0.0735863340 0.0574580650 1 1
0.0732878450 0.0561771800 1 1
0.0728714650 0.0554096580 1 1
0.0723430850 0.0551765060 1 1
0.0717152970 0.0554453860 1 1
0.0710088050 0.0561366720 1 1
0.0702566230 0.0571339570 1 1
0.0695068470 0.0582965930 1 1
0.0688194430 0.0594732740 1 1
0.0682581130 0.0605162870 1 1
0.0678818580 0.0612956800 1 1
0.0677390380 0.0617120370 1 1
0.0678638500 0.0617060970 1 1
0.0682734940 0.0612635660 1 1
0.0689647390 0.0604143190 1 1
0.0699105800 0.0592267270 1 1
0.0710587010 0.0577996200 1 1
0.0723331240 0.0562541500 1 1
0.0736403650 0.0547250360 1 1
0.0748801500 0.0533491890 1 1
0.0759583250 0.0522516170 1 1
0.0767989210 0.0515308210 1 1
0.0773535470 0.0512460990 1 1
0.0776068840 0.0514085820 1 1
0.0775773530 0.0519777750 1 1
0.0773127320 0.0528645000 1 1
0.0768811010 0.0539397610 1 1
0.0763583930 0.0550492150 1 1
0.0758150690 0.0560321510 1 1
0.0753050880 0.0567413020 1 1
0.0748591320 0.0570593110 1 1
0.0744822130 0.0569102340 1 1
0.0741549950 0.0562666740 1 1
0.0738378150 0.0551527680 1 1
0.0734763660 0.0536414030 1 1
0.0730085910 0.0518440990 1 1
0.0723718150 0.0498953610 1 1
0.0715077720 0.0479365030 1 1
0.0703637920 0.0461032190 1 1
0.0688917950 0.0445170880 1 1
0.0670488160 0.0432782500 1 1
0.0648006980 0.0424571650 1 1
0.0621278710 0.0420854760 1 1
0.0590316560 0.0421478850 1 1
0.0555399580 0.0425781250 1 1
0.0517106930 0.0432615110 1 1
0.0476311030 0.0440441080 1 1
0.0434120310 0.0447468990 1 1
0.0391777390 0.0451834880 1 1
0.0350533490 0.0451803110 1 1
0.0311524550 0.0445972970 1 1
0.0275669500 0.0433458740 0 1
0.0243595950 0.0414019350 0 1
0.0215583440 0.0388125750 0 1
0.0191524300 0.0356946820 0 1
0.0170930920 0.0322232550 0 1
0.0153017660 0.0286106800 0 0
0.0136840590 0.0250822960 0 0
0.0121442890 0.0218534710 0 0
0.0105966010 0.0191103650 0 0
0.0089722240 0.0169946520 0 0
0.0072239940 0.0155922410 0 0
0.0053289730 0.0149264860 0 0
0.0032897430 0.0149571880 0 0
0.0011344430 0.0155859610 0 0
-0.0010855020 0.0166663380 0 0
-0.0033009590 0.0180167540 0 0
-0.0054328000 0.0194363590 0 0
-0.0073997130 0.0207240040 0 0
-0.0091254340 0.0216988590 0 0
-0.0105458720 0.0222193390 0 0
-0.0116164930 0.0221972730 0 0
-0.0123185040 0.0216057930 0 0
-0.0126605580 0.0204803830 0 0
-0.0126750380 0.0189131600 0 0
-0.0124124690 0.0170411810 0 0
-0.0119371720 0.0150300880 0 0
-0.0113234920 0.0130549480 0 0
-0.0106514940 0.0112814030 0 0
-0.0100022300 0.0098501890 0 0
-0.0094514480 0.0088661170 0 0
-0.0090605400 0.0083908950 0 0
-0.0088668850 0.0084392580 0 0
-0.0088777550 0.0089787630 0 0
-0.0090697590 0.0099333640 0 0
-0.0093930190 0.0111895790 0 0
-0.0097794580 0.0126043330 0 0
-0.0101545490 0.0140157660 0 0
-0.0104496790 0.0152582660 0 0
-0.0106115210 0.0161801130 0 0
-0.0106076360 0.0166608400 0 0
-0.0104295530 0.0166255920 0 0
-0.0100931020 0.0160531630 0 0
-0.0096350540 0.0149759040 0 0
-0.0091069370 0.0134731030 0 0
-0.0085685360 0.0116611030 0 0
-0.0080827990 0.0096824830 0 0
-0.0077115630 0.0076948290 0 0
-0.0075104500 0.0058579430 0 0
-0.0075219760 0.0043187210 0 0
-0.0077668530 0.0031953110 0 0
-0.0082362290 0.0025640130 0 0
-0.0088897270 0.0024521200 0 0
-0.0096611520 0.0028374630 0 0
-0.0104691020 0.0036527110 0 0
-0.0112290070 0.0047922550 0 0
-0.0118650300 0.0061212640 0 0
-0.0123204090 0.0074873550 0 0
-0.0125631440 0.0087347310 0 0
-0.0125847440 0.0097195120 0 0
-0.0123938900 0.0103240380 0 0
-0.0120101380 0.0104682640 0 0
-0.0114613240 0.0101179040 0 0
-0.0107839420 0.0092891940 0 0
-0.0100231960 0.0080486640 0 0
-0.0092299930 0.0065059700 0 0
-0.0084544130 0.0048001900 0 0
-0.0077382810 0.0030829620 0 0
-0.0071109990 0.0015023020 0 0
-0.0065905420 0.0001884040 0 0
-0.0061878180 -0.0007586660 0 0
-0.0059117000 -0.0012781020 0 0
-0.0057728400 -0.0013526950 0 0
-0.0057838970 -0.0010085050 0 0
-0.0059542450 -0.0003107800 0 0
-0.0062813670 0.0006435950 0 0
-0.0067442030 0.0017365290 0 0
-0.0073013430 0.0028402630 0 0
-0.0078937310 0.0038279820 0 0
-0.0084512300 0.0045829990 0 0
-0.0089024240 0.0050075910 0 0
-0.0091857460 0.0050323660 0 0
-0.0092595140 0.0046250290 0 0
-0.0091094750 0.0037957340 0 0
-0.0087530530 0.0025970590 0 0
-0.0082384180 0.0011190860 0 0
-0.0076370230 -0.0005185990 0 0
-0.0070322160 -0.0021761260 0 0
-0.0065089240 -0.0037030470 0 0
-0.0061461500 -0.0049499130 0 0
-0.0060096650 -0.0057833070 0 0
-0.0061425890 -0.0061028830 0 0
-0.0065560570 -0.0058563910 0 0
-0.0072254040 -0.0050487010 0 0
-0.0080945540 -0.0037428970 0 0
-0.0090849550 -0.0020540850 0 0
-0.0101037960 -0.0001379170 0 0
-0.0110508200 0.0018246000 0 0
-0.0118265400 0.0036449260 0 0
-0.0123434950 0.0051459180 0 0
-0.0125381340 0.0061795550 0 0
-0.0123784760 0.0066411530 0 0
-0.0118655080 0.0064791470 0 0
-0.0110307760 0.0057006680 0 0
-0.0099321020 0.0043721720 0 0
-0.0086469620 0.0026132290 0 0
-0.0072645500 0.0005831180 0 0
-0.0058793790 -0.0015370380 0 0
-0.0045878410 -0.0035626600 0 0
-0.0034859300 -0.0053218160 0 0
-0.0026643470 -0.0066682030 0 0
-0.0021992840 -0.0074914490 0 0
-0.0021421430 -0.0077256940 0 0
-0.0025124370 -0.0073567460 0 0
-0.0032952170 -0.0064267550 0 0
-0.0044431800 -0.0050340770 0 0
-0.0058834610 -0.0033263360 0 0
-0.0075269360 -0.0014865460 0 0
-0.0092762270 0.0002858100 0 0
-0.0110311750 0.0017963670 0 0
-0.0126948190 0.0028780280 0 0
-0.0141826320 0.0034110000 0 0
-0.0154323600 0.0033368570 0 0
-0.0164088690 0.0026631360 0 0
-0.0171021510 0.0014578260 0 0
-0.0175221360 -0.0001634520 0 0
-0.0176951810 -0.0020537270 0 0
-0.0176632090 -0.0040518350 0 0
-0.0174821760 -0.0059988220 0 0
-0.0172164460 -0.0077522170 0 0
-0.0169295530 -0.0091968340 0 0
-0.0166748290 -0.0102513760 0 0
-0.0164892900 -0.0108715490 0 0
-0.0163919040 -0.0110508770 0 0
-0.0163849170 -0.0108196690 0 0
-0.0164566000 -0.0102422880 0 0
-0.0165849170 -0.0094130130 0 0
-0.0167412310 -0.0084502050 0 0
-0.0168926710 -0.0074876410 0 0
-0.0170033100 -0.0066621980 0 0
-0.0170357640 -0.0060986340 0 0
-0.0169542720 -0.0058940940 0 0
-0.0167295490 -0.0061055390 0 0
-0.0163450110 -0.0067420400 0 0
-0.0158023590 -0.0077626620 0 0
-0.0151234380 -0.0090800730 0 0
-0.0143469720 -0.0105692750 0 0
-0.0135220650 -0.0120804860 0 0
-0.0127017710 -0.0134553410 0 0
-0.0119381480 -0.0145450190 0 0
-0.0112779050 -0.0152284850 0 0
-0.0107573180 -0.0154286860 0 0
-0.0103967190 -0.0151235310 0 0
-0.0101970090 -0.0143485560 0 0
-0.0101406300 -0.0131911340 0 0
-0.0101968900 -0.0117787110 0 0
-0.0103291350 -0.0102634450 0 0
-0.0105008970 -0.0088052850 0 0
-0.0106793550 -0.0075557290 0 0
-0.0108365740 -0.0066434580 0 0
-0.0109498250 -0.0061623540 0 0
-0.0110013570 -0.0061631140 0 0
-0.0109777000 -0.0066498710 0 0
-0.0108697890 -0.0075817780 0 0
-0.0106750900 -0.0088781400 0 0
-0.0104011240 -0.0104259980 0 0
-0.0100689790 -0.0120902230 0 0
-0.0097154040 -0.0137258150 0 0
-0.0093916290 -0.0151906980 0 0
-0.0091575570 -0.0163572120 0 0
-0.0090723540 -0.0171220010 0 0
-0.0091842970 -0.0174145900 0 0
-0.0095226540 -0.0172041190 0 0
-0.0100931840 -0.0165031590 0 0
-0.0108777760 -0.0153680090 0 0
-0.0118378050 -0.0138954170 0 0
-0.0129196890 -0.0122155280 0 0
-0.0140602660 -0.0104804960 0 0
-0.0151910040 -0.0088490540 0 0
-0.0162420990 -0.0074692400 0 0
-0.0171473410 -0.0064623380 0 0
-0.0178496240 -0.0059103910 0 0
-0.0183067380 -0.0058487160 0 0
-0.0184965790 -0.0062641830 0 0
-0.0184203560 -0.0070992360 0 0
-0.0181031080 -0.0082603500 0 0
-0.0175918410 -0.0096285240 0 0
-0.0169508440 -0.0110700580 0 0
-0.0162528510 -0.0124477620 0 0
-0.0155678230 -0.0136332850 0 0
-0.0149543530 -0.0145195990 0 0
-0.0144567960 -0.0150311570 0 0
-0.0141068780 -0.0151300820 0 0
-0.0139262790 -0.0148186000 0 0
-0.0139271680 -0.0141386880 0 0
-0.0141101560 -0.0131696670 0 0
-0.0144612400 -0.0120228760 0 0
-0.0149496250 -0.0108312430 0 0
-0.0155285020 -0.0097335580 0 0
-0.0161401900 -0.0088571390 0 0
-0.0167241670 -0.0083033570 0 0
-0.0172246190 -0.0081379110 0 0
-0.0175960950 -0.0083857590 0 0
-0.0178077470 -0.0090302080 0 0
-0.0178459710 -0.0100156320 0 0
-0.0177146030 -0.0112534660 0 0
-0.0174323480 -0.0126315220 0 0
-0.0170281660 -0.0140263980 0 0
-0.0165370160 -0.0153175130 0 0
-0.0159983870 -0.0164001880 0 0
-0.0154567110 -0.0171956020 0 0
-0.0149602080 -0.0176568820 0 0
-0.0145563270 -0.0177717740 0 0
-0.0142850520 -0.0175624350 0 0
-0.0141724570 -0.0170822390 0 0
-0.0142262520 -0.0164093110 0 0
-0.0144337680 -0.0156375980 0 0
-0.0147625510 -0.0148672920 0 0
-0.0151639950 -0.0141961310 0 0
-0.0155798780 -0.0137119870 0 0
-0.0159503690 -0.0134869550 0 0
-0.0162216230 -0.0135727410 0 0
-0.0163517040 -0.0139961070 0 0
-0.0163148520 -0.0147537160 0 0
-0.0161049400 -0.0158080030 0 0
-0.0157375560 -0.0170865030 0 0
-0.0152488690 -0.0184864520 0 0
-0.0146911310 -0.0198853530 0 0
-0.0141270380 -0.0211560420 0 0
-0.0136252620 -0.0221828040 0 0
-0.0132567420 -0.0228748680 0 0
-0.0130881690 -0.0231752910 0 0
-0.0131705110 -0.0230653990 0 0
-0.0135259960 -0.0225658770 0 0
-0.0141400530 -0.0217343790 0 0
-0.0149627710 -0.0206592020 0 0
-0.0159196680 -0.0194499800 0 0
-0.0169266810 -0.0182271680 0 0
-0.0179033430 -0.0171114770 0 0
-0.0187812320 -0.0162141330 0 0
-0.0195082440 -0.0156291440 0 0
-0.0200512460 -0.0154276490 0 0
-0.0203985950 -0.0156525060 0 0
-0.0205605100 -0.0163115690 0 0
-0.0205648040 -0.0173717080 0 0
-0.0204496940 -0.0187580220 0 0
-0.0202587820 -0.0203600130 0 0
-0.0200405740 -0.0220424360 0 0
-0.0198492090 -0.0236580440 0 0
-0.0197417160 -0.0250610210 0 0
-0.0197710870 -0.0261206370 0 0
-0.0199780650 -0.0267341400 0 0
-0.0203842300 -0.0268376930 0 0
-0.0209869040 -0.0264148510 0 0
-0.0217557450 -0.0255018590 0 0
-0.0226319010 -0.0241880110 0 0
-0.0235318260 -0.0226098590 0 0
-0.0243570410 -0.0209395480 0 0
-0.0250078370 -0.0193680070 0 0
-0.0253970120 -0.0180834640 0 0
-0.0254609010 -0.0172469660 0 0
-0.0251664760 -0.0169694410 0 0
-0.0245141690 -0.0172964050 0 0
-0.0235374260 -0.0182041610 0 0
-0.0223000550 -0.0196068110 0 0
-0.0208904590 -0.0213702790 0 0
-0.0194114410 -0.0233294060 0 0
-0.0179668960 -0.0253059350 0 0
-0.0166493950 -0.0271261640 0 0
-0.0155319410 -0.0286366670 0 0
-0.0146639070 -0.0297166860 0 0
-0.0140692870 -0.0302867370 0 -1
-0.0137460400 -0.0303132150 0 -1
-0.0136670540 -0.0298089570 0 0
-0.0137841920 -0.0288306130 0 0
-0.0140358900 -0.0274739730 0 0
-0.0143566900 -0.0258675640 0 0
-0.0146863870 -0.0241639840 0 0
-0.0149778250 -0.0225283230 0 0
-0.0152027630 -0.0211231290 0 0
-0.0153541580 -0.0200901660 0 0
-0.0154439220 -0.0195312520 0 0
-0.0154973900 -0.0194927110 0 0
-0.0155460560 -0.0199585200 0 0
-0.0156197380 -0.0208544840 0 0
-0.0157404240 -0.0220615400 0 0
-0.0159203140 -0.0234340700 0 0
-0.0161638940 -0.0248191140 0 0
-0.0164721680 -0.0260731660 0 0
-0.0168478070 -0.0270745770 0 0
-0.0172995980 -0.0277315820 0 0
-0.0178428990 -0.0279869330 0 0
-0.0184940080 -0.0278201090 0 0
-0.0192603650 -0.0272482520 0 0
-0.0201316550 -0.0263263480 0 0
-0.0210763740 -0.0251450650 0 0
-0.0220448830 -0.0238238250 0 0
-0.0229761960 -0.0224992110 0 0
-0.0238055750 -0.0213115670 0 0
-0.0244725740 -0.0203918590 0 0
-0.0249295090 -0.0198487300 0 0
-0.0251477430 -0.0197557220 0 0
-0.0251190840 -0.0201405370 0 0
-0.0248533880 -0.0209792650 0 0
-0.0243755060 -0.0221974890 0 0
-0.0237224820 -0.0236780120 0 0
-0.0229400960 -0.0252732310 0 0
-0.0220793440 -0.0268201960 0 0
-0.0211938980 -0.0281567700 0 0
-0.0203377430 -0.0291372160 0 0
-0.0195618170 -0.0296460610 0 0
-0.0189099510 -0.0296097330 0 0
-0.0184144930 -0.0290051560 0 0
-0.0180913920 -0.0278637370 0 0
-0.0179356510 -0.0262696850 0 0
-0.0179193930 -0.0243525610 0 0
-0.0179945380 -0.0222746380 0 0
-0.0181002550 -0.0202139270 0 0
-0.0181730570 -0.0183444500 0 0
-0.0181569370 -0.0168166720 0 0
-0.0180119100 -0.0157421930 0 0
-0.0177198610 -0.0151859640 0 0
-0.0172869370 -0.0151659300 0 0
-0.0167425010 -0.0156568270 0 0
-0.0161352290 -0.0165949580 0 0
-0.0155266840 -0.0178828800 0 0
-0.0149826090 -0.0193948080 0 0
-0.0145635540 -0.0209846700 0 0
-0.0143177450 -0.0224983260 0 0
-0.0142776110 -0.0237889350 0 0
-0.0144587110 -0.0247323690 0 0
-0.0148595770 -0.0252399580 0 0
-0.0154631790 -0.0252670740 0 0
-0.0162410230 -0.0248169130 0 0
-0.0171586650 -0.0239396660 0 0
-0.0181798270 -0.0227277360 0 0
-0.0192666670 -0.0213073070 0 0
-0.0203761360 -0.0198264840 0 0
-0.0214561790 -0.0184407720 0 0
-0.0224462770 -0.0172976910 0 0
-0.0232832300 -0.0165226620 0 0
-0.0239095900 -0.0162072810 0 0
-0.0242811540 -0.0164002540 0 0
-0.0243712400 -0.0171018640 0 0
-0.0241722400 -0.0182634260 0 0
-0.0236962770 -0.0197923720 0 0
-0.0229751400 -0.0215618220 0 0
-0.0220585700 -0.0234231540 0 0
-0.0210110010 -0.0252209550 0 0
-0.0199071380 -0.0268093310 0 0
-0.0188256460 -0.0280667490 0 0
-0.0178405710 -0.0289066840 0 0
-0.0170120260 -0.0292832810 0 0
-0.0163788610 -0.0291926910 0 0
-0.0159553360 -0.0286705130 0 0
-0.0157317410 -0.0277857930 0 0
-0.0156774420 -0.0266331400 0 0
-0.0157454060 -0.0253248480 0 0
-0.0158781620 -0.0239834100 0 0
-0.0160147140 -0.0227334050 0 0
-0.0160963570 -0.0216917690 0 0
-0.0160700660 -0.0209567440 0 0
-0.0158915870 -0.0205970710 0 0
-0.0155310430 -0.0206431640 0 0
-0.0149797890 -0.0210819830 0 0
-0.0142542220 -0.0218573280 0 0
-0.0133943910 -0.0228759910 0 0
-0.0124592150 -0.0240178210 0 0
-0.0115209840 -0.0251467990 0 0
-0.0106592940 -0.0261224590 0 0
-0.0099531000 -0.0268136790 0 0
-0.0094709820 -0.0271156250 0 0
-0.0092615360 -0.0269663640 0 0
-0.0093461690 -0.0263576880 0 0
-0.0097160220 -0.0253366870 0 0
-0.0103329970 -0.0239981990 0 0
-0.0111331720 -0.0224708680 0 0
-0.0120321000 -0.0209002240 0 0
-0.0129328250 -0.0194317810 0 0
-0.0137352670 -0.0181965410 0 0
-0.0143448040 -0.0173006130 0 0
-0.0146809500 -0.0168193560 0 0
-0.0146877370 -0.0167944250 0 0
-0.0143444590 -0.0172311570 0 0
-0.0136733140 -0.0180955530 0 0
-0.0127401860 -0.0193129050 0 0
-0.0116468720 -0.0207709350 0 0
-0.0105173720 -0.0223285560 0 0
-0.0094823480 -0.0238295360 0 0
-0.0086637160 -0.0251194010 0 0
-0.0081599790 -0.0260633520 0 0
-0.0080332600 -0.0265623100 0 0
-0.0083002830 -0.0265644990 0 0
-0.0089309470 -0.0260711070 0 0
-0.0098561770 -0.0251354990 0 0
-0.0109816860 -0.0238562970 0 0
-0.0122015920 -0.0223653770 0 0
-0.0134090380 -0.0208122450 0 0
-0.0145048500 -0.0193466590 0 0
-0.0154047230 -0.0181021930 0 0
-0.0160436750 -0.0171828560 0 0
-0.0163786160 -0.0166531980 0 0
-0.0163920050 -0.0165321380 0 0
-0.0160964710 -0.0167922680 0 0
-0.0155362160 -0.0173660350 0 0
-0.0147817940 -0.0181571290 0 0
-0.0139191800 -0.0190532500 0 0
-0.0130376650 -0.0199377460 0 0
-0.0122205390 -0.0206997900 0 0
-0.0115381400 -0.0212430810 0 0
-0.0110418740 -0.0214927330 0 0
-0.0107603900 -0.0214003890 0 0
-0.0106986500 -0.0209482190 0 0
-0.0108389060 -0.0201521170 0 0
-0.0111439890 -0.0190636190 0 0
-0.0115640180 -0.0177692160 0 0
-0.0120447850 -0.0163852700 0 0
-0.0125338030 -0.0150473900 0 0
-0.0129819090 -0.0138957060 0 0
-0.0133427710 -0.0130595160 0 0
-0.0135747970 -0.0126435710 0 0
-0.0136472950 -0.0127160320 0 0
-0.0135483140 -0.0132985510 0 0
-0.0132899870 -0.0143609770 0 0
-0.0129093240 -0.0158227420 0 0
-0.0124649290 -0.0175601910 0 0
-0.0120302220 -0.0194180610 0 0
-0.0116834940 -0.0212244820 0 0
-0.0114967770 -0.0228092460 0 0
-0.0115265650 -0.0240236600 0 0
-0.0118078180 -0.0247586040 0 0
-0.0123509970 -0.0249571370 0 0
-0.0131419340 -0.0246196050 0 0
-0.0141447950 -0.0238017930 0 0
-0.0153072670 -0.0226076910 0 0
-0.0165653820 -0.0211776270 0 0
-0.0178464030 -0.0196719390 0 0
-0.0190713140 -0.0182517120 0 0
-0.0201586970 -0.0170600370 0 0
-0.0210298120 -0.0162076840 0 0
-0.0216148260 -0.0157649910 0 0
-0.0218614120 -0.0157591710 0 0
-0.0217456570 -0.0161752830 0 0
-0.0212812770 -0.0169595910 0 0
-0.0205210910 -0.0180247880 0 0
-0.0195478040 -0.0192576270 0 0
-0.0184574630 -0.0205294290 0 0
-0.0173427070 -0.0217081110 0 0
-0.0162813200 -0.0226700110 0 0
-0.0153314470 -0.0233109080 0 0
-0.0145321500 -0.0235552790 0 0
-0.0139068690 -0.0233621220 0 0
-0.0134664260 -0.0227272120 0 0
-0.0132093480 -0.0216830180 0 0
-0.0131206390 -0.0202966260 0 0
-0.0131716700 -0.0186651550 0 0
-0.0133223950 -0.0169086510 0 0
-0.0135254920 -0.0151607580 0 0
-0.0137312910 -0.0135577980 0 0
-0.0138923250 -0.0122270950 0 0
-0.0139673750 -0.0112753160 0 0
-0.0139256250 -0.0107778730 0 0
-0.0137501770 -0.0107709670 0 0
-0.0134393650 -0.0112473090 0 0
-0.0130061020 -0.0121557410 0 0
-0.0124769830 -0.0134046290 0 0
-0.0118919620 -0.0148692830 0 0
-0.0113032470 -0.0164036180 0 0
-0.0107711690 -0.0178550190 0 0
-0.0103569560 -0.0190802700 0 0
-0.0101146770 -0.0199604350 0 0
-0.0100839650 -0.0204129000 0 0
-0.0102842100 -0.0203988350 0 0
-0.0107108320 -0.0199251970 0 0
-0.0113340990 -0.0190417970 0 0
-0.0121013120 -0.0178349150 0 0
-0.0129430050 -0.0164190020 0 0
-0.0137816610 -0.0149271280 0 0
-0.0145396290 -0.0134999300 0 0
-0.0151437570 -0.0122728110 0 0
-0.0155273040 -0.0113622850 0 0
-0.0156321440 -0.0108532710 0 0
-0.0154134260 -0.0107890460 0 0
-0.0148458400 -0.0111653880 0 0
-0.0139290790 -0.0119303030 0 0
-0.0126911760 -0.0129895240 0 0
-0.0111892630 -0.0142171190 0 0
-0.0095062090 -0.0154707840 0 0
-0.0077417020 -0.0166100630 0 0
-0.0059989660 -0.0175134240 0 0
-0.0043701020 -0.0180908900 0 0
-0.0029237150 -0.0182919870 0 0
-0.0016990570 -0.0181097620 0 0
-0.0007079150 -0.0175804480 0 0
0.0000598447 -0.0167781030 0 0
0.0006315350 -0.0158049270 0 0
0.0010482570 -0.0147790610 0 0
0.0013616310 -0.0138215320 0 0
0.0016301240 -0.0130435710 0 0
0.0019144550 -0.0125355360 0 0
0.0022707250 -0.0123590370 0 0
0.0027407140 -0.0125433760 0 0
0.0033419270 -0.0130860600 0 0
0.0040621280 -0.0139561470 0 0
0.0048606670 -0.0150994720 0 0
0.0056749210 -0.0164448970 0 0
0.0064298030 -0.0179101350 0 0
0.0070500530 -0.0194057240 0 0
0.0074736870 -0.0208373330 0 0
0.0076617850 -0.0221089280 0 0
0.0076008140 -0.0231295490 0 0
0.0072987270 -0.0238237300 0 0
0.0067789670 -0.0241429310 0 0
0.0060756650 -0.0240746250 0 0
0.0052317330 -0.0236465220 0 0
0.0042993570 -0.0229251170 0 0
0.0033400660 -0.0220088400 0 0
0.0024210760 -0.0210159710 0 0
0.0016068030 -0.0200686840 0 0
0.0009487530 -0.0192769480 0 0
0.0004793820 -0.0187261390 0 0
0.0002123260 -0.0184698640 0 0
0.0001462320 -0.0185272570 0 0
0.0002687420 -0.0188836960 0 0
0.0005598590 -0.0194944780 0 0
0.0009949820 -0.0202909060 0 0
0.0015468040 -0.0211877890 0 0
0.0021852980 -0.0220914230 0 0
0.0028768800 -0.0229078080 0 0
0.0035841550 -0.0235516090 0 0
0.0042661270 -0.0239557890 0 0
0.0048794980 -0.0240804270 0 0
0.0053827660 -0.0239188460 0 0
0.0057417410 -0.0234995380 0 0
0.0059331120 -0.0228828110 0 0
0.0059462500 -0.0221525370 0 0
0.0057855780 -0.0214047140 0 0
0.0054730420 -0.0207349210 0 0
0.0050481530 -0.0202272410 0 0
0.0045647410 -0.0199472860 0 0
0.0040852170 -0.0199396730 0 0
0.0036724790 -0.0202269450 0 0
0.0033799250 -0.0208069130 0 0
0.0032423680 -0.0216493060 0 0
0.0032703670 -0.0226949760 0 0
0.0034478030 -0.0238593130 0 0
0.0037324670 -0.0250392530 0 0
0.0040610760 -0.0261227250 0 0
0.0043589520 -0.0269994460 0 0
0.0045522140 -0.0275716880 0 0
0.0045794050 -0.0277636320 0 0
0.0043995560 -0.0275286370 0 0
0.0039949850 -0.0268542320 0 0
0.0033701320 -0.0257641350 0 0
0.0025500980 -0.0243166310 0 0
0.0015812790 -0.0226000000 0 0
0.0005320540 -0.0207262460 0 0
-0.0005107960 -0.0188234470 0 0
-0.0014523140 -0.0170263020 0 0
-0.0022042680 -0.0154647060 0 0
-0.0026994030 -0.0142509260 0 0
-0.0029002060 -0.0134668400 0 0
-0.0028010460 -0.0131535870 0 0
-0.0024255620 -0.0133058140 0 0
-0.0018216620 -0.0138717210 0 0
-0.0010552200 -0.0147587690 0 0
-0.0002030180 -0.0158438290 0 0
0.0006543090 -0.0169864870 0 0
0.0014398410 -0.0180446860 0 0
0.0020886910 -0.0188909320 0 0
0.0025545540 -0.0194263010 0 0
0.0028119390 -0.0195904180 0 0
0.0028542900 -0.0193670090 0 0
0.0026903250 -0.0187846630 0 0
0.0023414960 -0.0179122190 0 0
0.0018409380 -0.0168494130 0 0
0.0012313250 -0.0157148440 0 0
0.0005603680 -0.0146331160 0 0
-0.0001237150 -0.0137223120 0 0
-0.0007740510 -0.0130829650 0 0
-0.0013452030 -0.0127896840 0 0
-0.0017947570 -0.0128857630 0 0
-0.0020878080 -0.0133803040 0 0
-0.0022038070 -0.0142473140 0 0
-0.0021438960 -0.0154265240 0 0
-0.0019336930 -0.0168263780 0 0
-0.0016173430 -0.0183302580 0 0
-0.0012457990 -0.0198062020 0 0
-0.0008669260 -0.0211188150 0 0
-0.0005215620 -0.0221418110 0 0
-0.0002437810 -0.0227703850 0 0
-0.0000607356 -0.0229326770 0 0
0.0000112437 -0.0225994390 0 0
-0.0000271909 -0.0217910170 0 0
-0.0001553260 -0.0205797750 0 0
-0.0003356690 -0.0190852820 0 0
-0.0005213120 -0.0174614150 0 0
-0.0006631880 -0.0158773570 0 0
-0.0007156760 -0.0144956230 0 0
-0.0006412140 -0.0134508760 0 0
-0.0004143920 -0.0128339900 0 0
-0.0000257251 -0.0126847250 0 0
0.0005142660 -0.0129932520 0 0
0.0011711860 -0.0137077140 0 0
0.0018867520 -0.0147443130 0 0
0.0025859930 -0.0159974540 0 0
0.0031896630 -0.0173484730 0 0
0.0036266470 -0.0186727720 0 0
0.0038435090 -0.0198467910 0 0
0.0038103370 -0.0207564060 0 0
0.0035218840 -0.0213071580 0 0
0.0029942550 -0.0214351590 0 0
0.0022594510 -0.0211161210 0 0
0.0013599640 -0.0203700690 0 0
0.0003441950 -0.0192610820 0 0
-0.0007370140 -0.0178920430 0 0
-0.0018319780 -0.0163942940 0 0
-0.0028876080 -0.0149134300 0 0
-0.0038480260 -0.0135939120 0 0
-0.0046551760 -0.0125643440 0 0
-0.0052532050 -0.0119240320 0 0
-0.0055955300 -0.0117320550 0 0
-0.0056522930 -0.0120009510 0 0
-0.0054162300 -0.0126961540 0 0
-0.0049056390 -0.0137409520 0 0
-0.0041644330 -0.0150263870 0 0
-0.0032595850 -0.0164244030 0 0
-0.0022753690 -0.0178012650 0 0
-0.0013040760 -0.0190293970 0 0
-0.0004340780 -0.0199980410 0 0
0.0002629060 -0.0206238140 0 0
0.0007422250 -0.0208608570 0 0
0.0009914110 -0.0207080790 0 0
0.0010296760 -0.0202105840 0 0
0.0009030980 -0.0194544370 0 0
0.0006759680 -0.0185556120 0 0
0.0004191640 -0.0176444450 0 0
0.0001989760 -0.0168478720 0 0
0.0000699487 -0.0162733130 0 0
0.0000717431 -0.0159980230 0 0
0.0002279730 -0.0160650480 0 0
0.0005464080 -0.0164835710 0 0
0.0010212830 -0.0172306640 0 0
0.0016372450 -0.0182537660 0 0
0.0023721820 -0.0194753950 0 0
0.0031968110 -0.0208007830 0 0
0.0040728070 -0.0221270110 0 0
0.0049527450 -0.0233520040 0 0
0.0057825980 -0.0243828540 0 0
0.0065060460 -0.0251434190 0 0
0.0070702210 -0.0255803720 0 0
0.0074318440 -0.0256662560 0 0
0.0075617350 -0.0253992160 0 0
0.0074464720 -0.0248010480 0 0
0.0070883780 -0.0239152320 0 0
0.0065062470 -0.0228052740 0 0
0.0057369680 -0.0215525820 0 0
0.0048357410 -0.0202525610 0 0
0.0038729960 -0.0190074440 0 0
0.0029279420 -0.0179158710 0 0
0.0020801730 -0.0170615340 0 0
0.0014010660 -0.0165038760 0 0
0.0009459100 -0.0162723730 0 0
0.0007478610 -0.0163643100 0 0
0.0008149730 -0.0167453540 0 0
0.0011296410 -0.0173528370 0 0
0.0016487750 -0.0181023970 0 0
0.0023053580 -0.0188980750 0 0
0.0030136680 -0.0196441780 0 0
0.0036781870 -0.0202556440 0 0
0.0042040430 -0.0206644360 0 0
0.0045077890 -0.0208224570 0 0
0.0045284640 -0.0207034430 0 0
0.0042380550 -0.0203055110 0 0
0.0036491740 -0.0196541680 0 0
0.0028170990 -0.0188038650 0 0
0.0018336820 -0.0178352080 0 0
0.0008130440 -0.0168463670 0 0
-0.0001268550 -0.0159402400 0 0
-0.0008805380 -0.0152112270 0 0
-0.0013657630 -0.0147348820 0 0
-0.0015297180 -0.0145610680 0 0
-0.0013523700 -0.0147098010 0 0
-0.0008462650 -0.0151697450 0 0
-0.0000520888 -0.0158994890 0 0
0.0009680640 -0.0168306970 0 0
0.0021379860 -0.0178726140 0 0
0.0033750350 -0.0189189960 0 0
0.0045974430 -0.0198584520 0 0
0.0057305020 -0.0205873690 0 0
0.0067122770 -0.0210235110 0 0
0.0074984300 -0.0211180390 0 0
0.0080636360 -0.0208625380 0 0
0.0083992860 -0.0202883400 0 0
0.0085112070 -0.0194598570 0 0
0.0084198320 -0.0184664360 0 0
0.0081603370 -0.0174139930 0 0
0.0077793710 -0.0164142620 0 0
0.0073288720 -0.0155716680 0 0
0.0068600310 -0.0149716620 0 0
0.0064189710 -0.0146734320 0 0
0.0060436080 -0.0147064510 0 0
0.0057608860 -0.0150695900 0 0
0.0055840180 -0.0157327660 0 0
0.0055103480 -0.0166407950 0 0
0.0055216610 -0.0177182250 0 0
0.0055874770 -0.0188744310 0 0
0.0056689520 -0.0200091270 0 0
0.0057211750 -0.0210185250 0 0
0.0056945580 -0.0218026690 0 0
0.0055378820 -0.0222744200 0 0
0.0052047370 -0.0223695080 0 0
0.0046626360 -0.0220564290 0 0
0.0039022500 -0.0213446620 0 0
0.0029438720 -0.0202891900 0 0
0.0018388390 -0.0189892690 0 0
0.0006652510 -0.0175802900 0 0
-0.0004814080 -0.0162188450 0 0
-0.0015013100 -0.0150629350 0 0
-0.0023041910 -0.0142511600 0 0
-0.0028205770 -0.0138852860 0 0
-0.0030078870 -0.0140190760 0 0
-0.0028511000 -0.0146540020 0 0
-0.0023601190 -0.0157411290 0 0
-0.0015669920 -0.0171882360 0 0
-0.0005237760 -0.0188712020 0 0
0.0007010130 -0.0206481330 0 0
0.0020283310 -0.0223742790 0 0
0.0033745230 -0.0239158850 0 0
0.0046541910 -0.0251610150 0 0
0.0057811540 -0.0260264690 0 0
0.0066725120 -0.0264622610 0 0
0.0072585110 -0.0264556160 0 0
0.0074945810 -0.0260337560 0 0
0.0073689830 -0.0252627050 0 0
0.0069026350 -0.0242403180 0 0
0.0061427910 -0.0230841390 0 0
0.0051547180 -0.0219164520 0 0
0.0040144550 -0.0208494500 0 0
0.0028031600 -0.0199732600 0 0
0.0016018220 -0.0193483900 0 0
0.0004851780 -0.0190026940 0 0
-0.0004851900 -0.0189321380 0 0
-0.0012674060 -0.0191049930 0 0
-0.0018432400 -0.0194690680 0 0
-0.0022174990 -0.0199604070 0 0
-0.0024134800 -0.0205112990 0 0
-0.0024673710 -0.0210565410 0 0
-0.0024234890 -0.0215379100 0 0
-0.0023297460 -0.0219068070 0 0
-0.0022320660 -0.0221253350 0 0
-0.0021676580 -0.0221673870 0 0
-0.0021586760 -0.0220215420 0 0
-0.0022091590 -0.0216952860 0 0
-0.0023068560 -0.0212178180 0 0
-0.0024278910 -0.0206393020 0 0
-0.0025411590 -0.0200264090 0 0
-0.0026119050 -0.0194552430 0 0
-0.0026054460 -0.0190028940 0 0
-0.0024912250 -0.0187381700 0 0
-0.0022463590 -0.0187117500 0 0
-0.0018579610 -0.0189468620 0 0
-0.0013241910 -0.0194327620 0 0
-0.0006547690 -0.0201235970 0 0
0.0001279580 -0.0209438190 0 0
0.0009873470 -0.0217989400 0 0
0.0018726680 -0.0225882370 0 0
0.0027231920 -0.0232162210 0 0
0.0034746080 -0.0236017590 0 0
0.0040659010 -0.0236854160 0 0
0.0044471310 -0.0234351420 0 0
0.0045873520 -0.0228493030 0 0
0.0044795950 -0.0219560070 0 0
0.0041411480 -0.0208093820 0 0
0.0036095880 -0.0194843250 0 0
0.0029357540 -0.0180704270 0 0
0.0021757960 -0.0166650720 0 0
0.0013847840 -0.0153656760 0 0
0.0006135470 -0.0142613420 0 0
-0.0000913150 -0.0134248620 0 0
-0.0006869800 -0.0129065460 0 0
-0.0011366160 -0.0127308140 0 0
-0.0014131940 -0.0128948480 0 0
-0.0015012840 -0.0133684010 0 0
-0.0013966730 -0.0140957540 0 0
-0.0011072900 -0.0150011700 0 0
-0.0006573250 -0.0159969570 0 0
-0.0000917948 -0.0169921780 0 0
0.0005235530 -0.0179010580 0 0
0.0011097280 -0.0186510450 0 0
0.0015873360 -0.0191905890 0 0
0.0018904160 -0.0194960870 0 0
0.0019773080 -0.0195761490 0 0
0.0018365830 -0.0194708620 0 0
0.0014885270 -0.0192458500 0 0
0.0009826980 -0.0189831760 0 0
0.0003905510 -0.0187708200 0 0
-0.0002059560 -0.0186915160 0 0
-0.0007259000 -0.0188125480 0 0
-0.0010985820 -0.0191784540 0 0
-0.0012709920 -0.0198070960 0 0
-0.0012141750 -0.0206878850 0 0
-0.0009266000 -0.0217814110 0 0
-0.0004321860 -0.0230218880 0 0
0.0002258820 -0.0243242230 0 0
0.0009916970 -0.0255943240 0 0
0.0018022290 -0.0267386850 0 0
0.0025934920 -0.0276707700 0 0
0.0033065150 -0.0283148500 0 0
0.0038901030 -0.0286093880 0 0
0.0043005620 -0.0285117130 0 0
0.0045022450 -0.0280044400 0 0
0.0044709260 -0.0271021540 0 0
0.0041981620 -0.0258557990 0 0
0.0036940840 -0.0243525580 0 0
0.0029881740 -0.0227102880 0 0
0.0021282430 -0.0210672500 0 0
0.0011765340 -0.0195690210 0 0
0.0002032610 -0.0183539180 0 0
-0.0007194380 -0.0175376590 0 0
-0.0015223120 -0.0171991830 0 0
-0.0021453240 -0.0173709110 0 0
-0.0025466910 -0.0180354170 0 0
-0.0027121350 -0.0191281940 0 0
-0.0026609260 -0.0205455760 0 0
-0.0024461910 -0.0221567590 0 0
-0.0021481540 -0.0238179700 0 0
-0.0018610500 -0.0253865730 0 0
-0.0016768390 -0.0267338120 0 0
-0.0016700820 -0.0277556050 0 0
-0.0018880220 -0.0283804590 0 0
-0.0023478340 -0.0285734470 0 0
-0.0030395440 -0.0283361180 0 0
-0.0039309650 -0.0277031720 0 0
-0.0049721710 -0.0267368130 0 0
-0.0060996610 -0.0255199060 0 0
-0.0072410360 -0.0241491730 0 0
-0.0083204190 -0.0227287080 0 0
-0.0092652600 -0.0213632000 0 0
-0.0100147600 -0.0201506850 0 0
-0.0105273250 -0.0191749330 0 0
-0.0107835210 -0.0184977630 0 0
-0.0107843810 -0.0181525670 0 0
-0.0105481300 -0.0181402640 0 0
-0.0101076530 -0.0184276540 0 0
-0.0095086210 -0.0189479510 0 0
-0.0088077290 -0.0196045510 0 0
-0.0080707410 -0.0202797560 0 0
-0.0073687130 -0.0208491970 0 0
-0.0067709550 -0.0211999810 0 0
-0.0063363280 -0.0212478240 0 0
-0.0061055200 -0.0209484320 0 0
-0.0060949320 -0.0203017550 0 0
-0.0062925950 -0.0193508070 0 0
-0.0066584650 -0.0181770130 0 0
-0.0071306720 -0.0168924730 0 0
-0.0076353520 -0.0156290010 0 0
-0.0080965940 -0.0145247720 0 0
-0.0084459080 -0.0137096880 0 0
-0.0086311350 -0.0132903370 0 0
-0.0086222680 -0.0133364830 0 0
-0.0084123400 -0.0138717770 0 0
-0.0080146920 -0.0148702280 0 0
-0.0074587270 -0.0162586760 0 0
-0.0067847270 -0.0179247390 0 0
-0.0060383490 -0.0197289020 0 0
-0.0052664290 -0.0215188620 0 0
-0.0045145070 -0.0231447340 0 0
-0.0038251080 -0.0244740930 0 0
-0.0032368140 -0.0254053190 0 0
-0.0027842140 -0.0258772090 0 0
-0.0024971150 -0.0258732840 0 0
-0.0023973160 -0.0254207330 0 0
-0.0024930710 -0.0245855310 0 0
-0.0027736490 -0.0234653150 0 0
-0.0032069930 -0.0221800930 0 0
-0.0037419220 -0.0208602900 0 0
-0.0043148300 -0.0196329500 0 0
-0.0048595870 -0.0186084260 0 0
-0.0053176390 -0.0178699560 0 0
-0.0056456470 -0.0174673110 0 0
-0.0058203860 -0.0174142160 0 0
-0.0058411350 -0.0176884610 0 0
-0.0057285560 -0.0182338390 0 0
-0.0055194860 -0.0189644620 0 0
-0.0052588900 -0.0197735640 0 0
-0.0049915870 -0.0205474040 0 0
-0.0047563270 -0.0211810830 0 0
-0.0045831140 -0.0215916290 0 0
-0.0044925480 -0.0217260090 0 0
-0.0044951010 -0.0215644350 0 0
-0.0045894810 -0.0211199710 0 0
-0.0047613930 -0.0204355350 0 0
-0.0049847960 -0.0195791580 0 0
-0.0052263970 -0.0186374130 0 0
-0.0054511530 -0.0177070810 0 0
-0.0056256510 -0.0168866440 0 0
-0.0057194180 -0.0162689120 0 0
-0.0057064390 -0.0159343570 0 0
-0.0055674530 -0.0159442800 0 0
-0.0052915450 -0.0163337900 0 0
-0.0048768680 -0.0171051780 0 0
-0.0043321330 -0.0182233570 0 0
-0.0036792850 -0.0196159030 0 0
-0.0029554060 -0.0211790340 0 0
-0.0022110690 -0.0227885070 0 0
-0.0015038840 -0.0243132030 0 0
-0.0008892620 -0.0256286460 0 0
-0.0004123340 -0.0266276830 0 0
-0.0001038180 -0.0272273370 0 0
0.0000200537 -0.0273728000 0 0
-0.0000446494 -0.0270397880 0 0
-0.0002917030 -0.0262358990 0 0
-0.0007050790 -0.0250014890 0 0
-0.0012577980 -0.0234101550 0 0
-0.0019120020 -0.0215673130 0 0
-0.0026223450 -0.0196042220 0 0
-0.0033413200 -0.0176661500 0 0
-0.0040235790 -0.0158961550 0 0
-0.0046283610 -0.0144174830 0 0
-0.0051216510 -0.0133179690 0 0
-0.0054797160 -0.0126402290 0 0
-0.0056927940 -0.0123805050 0 0
-0.0057659020 -0.0124951490 0 0
-0.0057160020 -0.0129106390 0 0
-0.0055685380 -0.0135341610 0 0
-0.0053565000 -0.0142640040 0 0
-0.0051215470 -0.0149990920 0 0
-0.0049137830 -0.0156465720 0 0
-0.0047874900 -0.0161275420 0 0
-0.0047931990 -0.0163822570 0 0
-0.0049690350 -0.0163754220 0 0
-0.0053342380 -0.0161006230 0 0
-0.0058857480 -0.0155824070 0 0
-0.0065975960 -0.0148752030 0 0
-0.0074228270 -0.0140589480 0 0
-0.0082972040 -0.0132315400 0 0
-0.0091434710 -0.0124990180 0 0
-0.0098761320 -0.0119650290 0 0
-0.0104084840 -0.0117204620 0 0
-0.0106631670 -0.0118333700 0 0
-0.0105854330 -0.0123397240 0 0
-0.0101566320 -0.0132364060 0 0
-0.0094036330 -0.0144781640 0 0
-0.0083989820 -0.0159798620 0 0
-0.0072497080 -0.0176240180 0 0
-0.0060780950 -0.0192724540 0 0
-0.0050012720 -0.0207810910 0 0
-0.0041161390 -0.0220172420 0 0
-0.0034928210 -0.0228772140 0 0
-0.0031750090 -0.0232999130 0 0
-0.0031824180 -0.0232727960 0 0
-0.0035122950 -0.0228300370 0 0
-0.0041404080 -0.0220454230 0 0
-0.0050225560 -0.0210224610 0 0
-0.0060967110 -0.0198830480 0 0
-0.0072863650 -0.0187555160 0 0
-0.0085063410 -0.0177630100 0 0
-0.0096709240 -0.0170132720 0 0
-0.0107024310 -0.0165903790 0 0
-0.0115380530 -0.0165480940 0 0
-0.0121340300 -0.0169045140 0 0
-0.0124681070 -0.0176390440 0 0
-0.0125415320 -0.0186932970 0 0
-0.0123791580 -0.0199762300 0 0
-0.0120250930 -0.0213726140 0 0
-0.0115346940 -0.0227542820 0 0
-0.0109664460 -0.0239935400 0 0
-0.0103761950 -0.0249769540 0 0
-0.0098137020 -0.0256172100 0 0
-0.0093201940 -0.0258616240 0 0
-0.0089258600 -0.0256964940 0 0
-0.0086471670 -0.0251469290 0 0
-0.0084850720 -0.0242728720 0 0
-0.0084253330 -0.0231626400 0 0
-0.0084407400 -0.0219250800 0 0
-0.0084945290 -0.0206808700 0 0
-0.0085451240 -0.0195529530 0 0
-0.0085523010 -0.0186555100 0 0
-0.0084835360 -0.0180814180 0 0
-0.0083185350 -0.0178903360 0 0
-0.0080510500 -0.0181017150 0 0
-0.0076887460 -0.0186954080 0 0
-0.0072523690 -0.0196177560 0 0
-0.0067744290 -0.0207886180 0 0
-0.0062960710 -0.0221074420 0 0
-0.0058609300 -0.0234598090 0 0
-0.0055071160 -0.0247259090 0 0
-0.0052609450 -0.0257904700 0 0
-0.0051362250 -0.0265526280 0 0
-0.0051389370 -0.0269346590 0 0
-0.0052725300 -0.0268889790 0 0
-0.0055392470 -0.0264027730 0 0
-0.0059369790 -0.0254994170 0 0
-0.0064544740 -0.0242360600 0 0
-0.0070684300 -0.0226971240 0 0
-0.0077437250 -0.0209844900 0 0
-0.0084354270 -0.0192062960 0 0
-0.0090915530 -0.0174670540 0 0
-0.0096571390 -0.0158610930 0 0
-0.0100800220 -0.0144686750 0 0
-0.0103172520 -0.0133521480 0 0
-0.0103410060 -0.0125509850 0 0
-0.0101436600 -0.0120773770 0 0
-0.0097412290 -0.0119147960 0 0
-0.0091734310 -0.0120204790 0 0
-0.0084992540 -0.0123312090 0 0
-0.0077887050 -0.0127707300 0 0
-0.0071127920 -0.0132571330 0 0
-0.0065342200 -0.0137099690 0 0
-0.0061004990 -0.0140581840 0 0
-0.0058391980 -0.0142490360 0 0
-0.0057547980 -0.0142552790 0 0
-0.0058285870 -0.0140770090 0 0
-0.0060237890 -0.0137377200 0 0
-0.0062950640 -0.0132774540 0 0
-0.0065978010 -0.0127464230 0 0
-0.0068929450 -0.0122009380 0 0
-0.0071477790 -0.0117007920 0 0
-0.0073363090 -0.0113054650 0 0
-0.0074410530 -0.0110679210 0 0
-0.0074549540 -0.0110276610 0 0
-0.0073822380 -0.0112053590 0 0
-0.0072382980 -0.0115997710 0 0
-0.0070482170 -0.0121866060 0 0
-0.0068432210 -0.0129196820 0 0
-0.0066561150 -0.0137352140 0 0
-0.0065182280 -0.0145591410 0 0
-0.0064590700 -0.0153155760 0 0
-0.0065070540 -0.0159338340 0 0
-0.0066885400 -0.0163536050 0 0
-0.0070244780 -0.0165298270 0 0
-0.0075260260 -0.0164381410 0 0
-0.0081905260 -0.0160797160 0 0
-0.0089995280 -0.0154833950 0 0
-0.0099207410 -0.0147042320 0 0
-0.0109128820 -0.0138191340 0 0
-0.0119299870 -0.0129204010 0 0
-0.0129235900 -0.0121067640 0 0
-0.0138442570 -0.0114716200 0 0
-0.0146446430 -0.0110901260 0 0
-0.0152845110 -0.0110086190 0 0
-0.0157357040 -0.0112394410 0 0
-0.0159850510 -0.0117618230 0 0
-0.0160353190 -0.0125267860 0 0
-0.0159048020 -0.0134633450 0 0
-0.0156250880 -0.0144850850 0 0
-0.0152367310 -0.0154980250 0 0
-0.0147837560 -0.0164105730 0 0
-0.0143084920 -0.0171445860 0 0
-0.0138474070 -0.0176451330 0 0
-0.0134276870 -0.0178862820 0 0
-0.0130647900 -0.0178718580 0 0
-0.0127623840 -0.0176321980 0 0
-0.0125154980 -0.0172185520 0 0
-0.0123145960 -0.0166964400 0 0
-0.0121468870 -0.0161388750 0 0
-0.0119941360 -0.0156195140 0 0
-0.0118298260 -0.0152058780 0 0
-0.0116189050 -0.0149536790 0 0
-0.0113221710 -0.0149026050 0 0
-0.0109054540 -0.0150723260 0 0
-0.0103498940 -0.0154587110 0 0
-0.0096577060 -0.0160328670 0 0
-0.0088512830 -0.0167451830 0 0
-0.0079686580 -0.0175333590 0 0
-0.0070594400 -0.0183311170 0 0
-0.0061820790 -0.0190743680 0 0
-0.0054003200 -0.0197040150 0 0
-0.0047772210 -0.0201675600 0 0
-0.0043676380 -0.0204224870 0 0
-0.0042111060 -0.0204422790 0 0
-0.0043264900 -0.0202228790 0 0
-0.0047094560 -0.0197863200 0 0
-0.0053332480 -0.0191798590 0 0
-0.0061519970 -0.0184708420 0 0
-0.0071051210 -0.0177381490 0 0
-0.0081220210 -0.0170619940 0 0
-0.0091270080 -0.0165147870 0 0
-0.0100447100 -0.0161540590 0 0
-0.0108067050 -0.0160165020 0 0
-0.0113600110 -0.0161135710 0 0
-0.0116759320 -0.0164303400 0 0
-0.0117550000 -0.0169275360 0 0
-0.0116241440 -0.0175451810 0 0
-0.0113274190 -0.0182072490 0 0
-0.0109159920 -0.0188281080 0 0
-0.0104413190 -0.0193212850 0 0
-0.0099510700 -0.0196098050 0 0
-0.0094860210 -0.0196364240 0 0
-0.0090772870 -0.0193716570 0 0
-0.0087445410 -0.0188175690 0 0
-0.0084962100 -0.0180064750 0 0
-0.0083320660 -0.0169957870 0 0
-0.0082470770 -0.0158613730 0 0
-0.0082342460 -0.0146903940 0 0
-0.0082850600 -0.0135726450 0 0
-0.0083885730 -0.0125904980 0 0
-0.0085313000 -0.0118099740 0 0
-0.0086991920 -0.0112750700 0 0
-0.0088805570 -0.0110051880 0 0
-0.0090676730 -0.0109949350 0 0
-0.0092567930 -0.0112161620 0 0
-0.0094484060 -0.0116216810 0 0
-0.0096484510 -0.0121495120 0 0
-0.0098688420 -0.0127274120 0 0
-0.0101258290 -0.0132782780 0 0
-0.0104366990 -0.0137268570 0 0
-0.0108162390 -0.0140071940 0 0
-0.0112735590 -0.0140697050 0 0
-0.0118093920 -0.0138872330 0 0
-0.0124142790 -0.0134596410 0 0
-0.0130682130 -0.0128157520 0 0
-0.0137419020 -0.0120114660 0 0
-0.0143989980 -0.0111244130 0 0
-0.0149985040 -0.0102467670 0 0
-0.0154979070 -0.0094774720 0 0
-0.0158583700 -0.0089138200 0 0
-0.0160514310 -0.0086416940 0 0
-0.0160638120 -0.0087250170 0 0
-0.0158970010 -0.0091965620 0 0
-0.0155620950 -0.0100520430 0 0
-0.0150743880 -0.0112484480 0 0
-0.0144516230 -0.0127069550 0 0
-0.0137160050 -0.0143200320 0 0
-0.0128976740 -0.0159617950 0 0
-0.0120368380 -0.0175007350 0 0
-0.0111825040 -0.0188130980 0 0
-0.0103873580 -0.0197943550 0 0
-0.0097000790 -0.0203674290 0 0
-0.0091579420 -0.0204882620 0 0
-0.0087825360 -0.0201488840 0 0
-0.0085790420 -0.0193767490 0 0
-0.0085374030 -0.0182298640 0 0
-0.0086340110 -0.0167896350 0 0
-0.0088341210 -0.0151538380 0 0
-0.0090962670 -0.0134301450 0 0
-0.0093793950 -0.0117292760 0 0
-0.0096507590 -0.0101578500 0 0
-0.0098907480 -0.0088115070 0 0
-0.0100926010 -0.0077679710 0 0
-0.0102580200 -0.0070793540 0 0
-0.0103911910 -0.0067644550 0 0
-0.0104939580 -0.0068035580 0 0
-0.0105641020 -0.0071386250 0 0
-0.0105965040 -0.0076806450 0 0
-0.0105855090 -0.0083239080 0 0
-0.0105277700 -0.0089638610 0 0
-0.0104254100 -0.0095129050 0 0
-0.0102878420 -0.0099100230 0 0
-0.0101303030 -0.0101240550 0 0
-0.0099696080 -0.0101524580 0 0
-0.0098194520 -0.0100173890 0 0
-0.0096872020 -0.0097606570 0 0
-0.0095726730 -0.0094384340 0 0
-0.0094687920 -0.0091154440 0 0
-0.0093640880 -0.0088580490 0 0
-0.0092460120 -0.0087266890 0 0
-0.0091033180 -0.0087692900 0 0
-0.0089267850 -0.0090167970 0 0
-0.0087088150 -0.0094805090 0 0
-0.0084430490 -0.0101503630 0 0
-0.0081253090 -0.0109940270 0 0
-0.0077559590 -0.0119577650 0 0
-0.0073420050 -0.0129701160 0 0
-0.0068972340 -0.0139480050 0 0
-0.0064403660 -0.0148042820 0 0
-0.0059928650 -0.0154564270 0 0
-0.0055776920 -0.0158358210 0 0
-0.0052182310 -0.0158954400 0 0
-0.0049364960 -0.0156141690 0 0
-0.0047512740 -0.0149981500 0 0
-0.0046768960 -0.0140804280 0 0
-0.0047218300 -0.0129192960 0 0
-0.0048865140 -0.0115952480 0 0
-0.0051610850 -0.0102062760 0 0
-0.0055241590 -0.0088607950 0 0
-0.0059435410 -0.0076676890 0 0
-0.0063791960 -0.0067246220 0 0
-0.0067883040 -0.0061070950 0 0
-0.0071316250 -0.0058606550 0 0
-0.0073796690 -0.0059975520 0 0
-0.0075169220 -0.0064974780 0 0
-0.0075423840 -0.0073106940 0 0
-0.0074660380 -0.0083619980 0 0
-0.0073038130 -0.0095553420 0 0
-0.0070744610 -0.0107798920 0 0
-0.0067989000 -0.0119184630 0 0
-0.0065004310 -0.0128589150 0 0
-0.0062042890 -0.0135075690 0 0
-0.0059359460 -0.0138015190 0 0
-0.0057188280 -0.0137161020 0 0
-0.0055726230 -0.0132656890 0 0
-0.0055122280 -0.0124985900 0 0
-0.0055470230 -0.0114883950 0 0
-0.0056811380 -0.0103242230 0 0
-0.0059155730 -0.0091011710 0 0
-0.0062509850 -0.0079113270 0 0
-0.0066874580 -0.0068363120 0 0
-0.0072186350 -0.0059427930 0 0
-0.0078235160 -0.0052808450 0 0
-0.0084630600 -0.0048831550 0 0
-0.0090852850 -0.0047636500 0 0
-0.0096360070 -0.0049158920 0 0
-0.0100696880 -0.0053123210 0 0
-0.0103571880 -0.0059051580 0 0
-0.0104903070 -0.0066290880 0 0
-0.0104832780 -0.0074059460 0 0
-0.0103704040 -0.0081521770 0 0
-0.0102001950 -0.0087894000 0 0
-0.0100282360 -0.0092562930 0 0
-0.0099104110 -0.0095181850 0 0
-0.0098959050 -0.0095714500 0 0
-0.0100193710 -0.0094424840 0 0
-0.0102944130 -0.0091825430 0 0
-0.0107118570 -0.0088594540 0 0
-0.0112429840 -0.0085474590 0 0
-0.0118443880 -0.0083173170 0 0
-0.0124619640 -0.0082285210 0 0
-0.0130345360 -0.0083242410 0 0
-0.0134992250 -0.0086284090 0 0
-0.0137991490 -0.0091437750 0 0
-0.0138916320 -0.0098502770 0 0
-0.0137546180 -0.0107044060 0 0
-0.0133906310 -0.0116413350 0 0
-0.0128289000 -0.0125809620 0 0
-0.0121247790 -0.0134370960 0 0
-0.0113536130 -0.0141276560 0 0
-0.0105988780 -0.0145840000 0 0
-0.0099387670 -0.0147584250 0 0
-0.0094352240 -0.0146291410 0 0
-0.0091267530 -0.0142021130 0 0
-0.0090249940 -0.0135096960 0 0
-0.0091149500 -0.0126068070 0 0
-0.0093588560 -0.0115660650 0 0
-0.0097032550 -0.0104726310 0 0
-0.0100876450 -0.0094178600 0 0
-0.0104527460 -0.0084908210 0 0
-0.0107475790 -0.0077685640 0 0
-0.0109352380 -0.0073072460 0 0
-0.0109968340 -0.0071355510 0 0
-0.0109326290 -0.0072505990 0 0
-0.0107592580 -0.0076164110 0 0
-0.0105030550 -0.0081654580 0 0
-0.0101920990 -0.0088039810 0 0
-0.0098511660 -0.0094215370 0 0
-0.0095015330 -0.0099046480 0 0
-0.0091635650 -0.0101530430 0 0
-0.0088583700 -0.0100949030 0 0
-0.0086060480 -0.0096971360 0 0
-0.0084203530 -0.0089692020 0 0
-0.0083023530 -0.0079611790 0 0
-0.0082373010 -0.0067565720 0 0
-0.0081969630 -0.0054601330 0 0
-0.0081464020 -0.0041828370 0 0
-0.0080524320 -0.0030282110 0 0
-0.0078904980 -0.0020835430 0 0
-0.0076480800 -0.0014166240 0 0
-0.0073252670 -0.0010759030 0 0
-0.0069339720 -0.0010910360 0 0
-0.0064969260 -0.0014720640 0 0
-0.0060466250 -0.0022072280 0 0
-0.0056228690 -0.0032606620 0 0
-0.0052680560 -0.0045715210 0 0
-0.0050217900 -0.0060559350 0 0
-0.0049162090 -0.0076121470 0 0
-0.0049716620 -0.0091279700 0 0
-0.0051926830 -0.0104892980 0 0
-0.0055667740 -0.0115886320 0 0
-0.0060688870 -0.0123329200 0 0
-0.0066703190 -0.0126506240 0 0
-0.0073463870 -0.0124981560 0 0
-0.0080782550 -0.0118653330 0 0
-0.0088491600 -0.0107793870 0 0
-0.0096384570 -0.0093073530 0 0
-0.0104168730 -0.0075559320 0 0
-0.0111444780 -0.0056664030 0 0
-0.0117716930 -0.0038021530 0 0
-0.0122440090 -0.0021294910 0 0
-0.0125103650 -0.0007962010 0 0
-0.0125327060 0.0000863549 0 0
-0.0122933290 0.0004537360 0 0
-0.0117987060 0.0002915190 0 0
-0.0110806450 -0.0003665640 0 0
-0.0101956380 -0.0014438510 0 0
-0.0092212750 -0.0028291950 0 0
-0.0082479700 -0.0043880520 0 0
-0.0073669940 -0.0059751680 0 0
-0.0066587950 -0.0074480040 0 0
-0.0061851140 -0.0086798650 0 0
-0.0059855000 -0.0095715180 0 0
-0.0060768980 -0.0100603110 0 0
-0.0064551140 -0.0101259440 0 0
-0.0070973080 -0.0097920410 0 0
-0.0079642140 -0.0091234150 0 0
-0.0090014650 -0.0082193500 0 0
-0.0101414160 -0.0072028630 0 0
-0.0113073650 -0.0062062550 0 0
-0.0124203830 -0.0053550660 0 0
-0.0134075780 -0.0047535270 0 0
-0.0142105840 -0.0044738090 0 0
-0.0147924440 -0.0045499720 0 0
-0.0151403530 -0.0049764410 0 0
-0.0152635850 -0.0057103080 0 0
-0.0151887230 -0.0066773040 0 0
-0.0149551230 -0.0077812860 0 0
-0.0146120260 -0.0089158590 0 0
-0.0142165120 -0.0099756270 0 0
-0.0138305320 -0.0108650780 0 0
-0.0135161950 -0.0115049690 0 0
-0.0133287600 -0.0118373140 0 0
-0.0133076960 -0.0118291510 0 0
-0.0134688800 -0.0114744700 0 0
-0.0138020800 -0.0107941950 0 0
-0.0142751280 -0.0098348430 0 0
-0.0148423120 -0.0086666180 0 0
-0.0154528930 -0.0073811590 0 0
-0.0160570520 -0.0060876470 0 0
-0.0166089410 -0.0049047530 0 0
-0.0170679510 -0.0039476320 0 0
-0.0174001650 -0.0033128650 0 0
-0.0175810130 -0.0030659060 0 0
-0.0175979630 -0.0032338250 0 0
-0.0174513150 -0.0038036080 0 0
-0.0171522450 -0.0047250410 0 0
-0.0167190630 -0.0059168330 0 0
-0.0161739680 -0.0072748610 0 0
-0.0155423370 -0.0086819200 0 0
-0.0148542260 -0.0100184420 0 0
-0.0141455450 -0.0111732190 0 0
-0.0134569130 -0.0120533350 0 0
-0.0128295700 -0.0125927920 0 0
-0.0122985210 -0.0127591590 0 0
-0.0118847640 -0.0125573330 0 0
-0.0115901820 -0.0120293480 0 0
-0.0113977610 -0.0112493180 0 0
-0.0112769140 -0.0103142000 0 0
-0.0111919700 -0.0093326600 0 0
-0.0111114150 -0.0084133510 0 0
-0.0110152630 -0.0076526560 0 0
-0.0108985630 -0.0071233670 0 0
-0.0107706250 -0.0068667700 0 0
-0.0106507520 -0.0068893550 0 0
-0.0105621630 -0.0071636580 0 0
-0.0105265270 -0.0076322640 0 0
-0.0105609210 -0.0082141160 0 0
-0.0106769430 -0.0088129000 0 0
-0.0108803280 -0.0093268760 0 0
-0.0111703520 -0.0096591050 0 0
-0.0115394210 -0.0097279200 0 0
-0.0119725730 -0.0094777040 0 0
-0.0124466650 -0.0088880280 0 0
-0.0129308370 -0.0079778910 0 0
-0.0133896670 -0.0068036290 0 0
-0.0137876770 -0.0054524530 0 0
-0.0140931990 -0.0040343080 0 0
-0.0142815870 -0.0026715810 0 0
-0.0143385950 -0.0014848510 0 0
-0.0142632020 -0.0005768580 0 0
-0.0140678170 -0.0000205994 0 0
-0.0137749580 0.0001451370 0 0
-0.0134116620 -0.0000849884 0 0
-0.0130038970 -0.0006852700 0 0
-0.0125730090 -0.0016018690 0 0
-0.0121349180 -0.0027568110 0 0
-0.0117017930 -0.0040530380 0 0
-0.0112862650 -0.0053798420 0 0
-0.0109072090 -0.0066195040 0 0
-0.0105931760 -0.0076575100 0 0
-0.0103799150 -0.0083964310 0 0
-0.0103031160 -0.0087696770 0 0
-0.0103904130 -0.0087505300 0 0
-0.0106552740 -0.0083540430 0 0
-0.0110936780 -0.0076321880 0 0
-0.0116837510 -0.0066646960 0 0
-0.0123876090 -0.0055485640 0 0
-0.0131545540 -0.0043882690 0 0
-0.0139252760 -0.0032870930 0 0
-0.0146362250 -0.0023392080 0 0
-0.0152233060 -0.0016232550 0 0
-0.0156263020 -0.0011985140 0 0
-0.0157963080 -0.0011026750 0 0
-0.0157052110 -0.0013490700 0 0
-0.0153527450 -0.0019234440 0 0
-0.0147679970 -0.0027827180 0 0
-0.0140060280 -0.0038573070 0 0
-0.0131410890 -0.0050567420 0 0
-0.0122565210 -0.0062776460 0 0
-0.0114329420 -0.0074132090 0 0
-0.0107388690 -0.0083632910 0 0
-0.0102259150 -0.0090440700 0 0
-0.0099273250 -0.0093961360 0 0
-0.0098583610 -0.0093897470 0 0
-0.0100178630 -0.0090263640 0 0
-0.0103899860 -0.0083370610 0 0
-0.0109449210 -0.0073791330 0 0
-0.0116382530 -0.0062313980 0 0
-0.0124104200 -0.0049879690 0 0
-0.0131889370 -0.0037505180 0 0
-0.0138952570 -0.0026194450 0 0
-0.0144549790 -0.0016845800 0 0
-0.0148075040 -0.0010164620 0 0
-0.0149120600 -0.0006591210 0 0
-0.0147497550 -0.0006249370 0 0
-0.0143229720 -0.0008923370 0 0
-0.0136534320 -0.0014070340 0 0
-0.0127798840 -0.0020872690 0 0
-0.0117565850 -0.0028337200 0 0
-0.0106528340 -0.0035433900 0 0
-0.0095513110 -0.0041239930 0 0
-0.0085423300 -0.0045046380 0 0
-0.0077136390 -0.0046412390 0 0
-0.0071377070 -0.0045181930 0 0
-0.0068584670 -0.0041485230 0 0
-0.0068804260 -0.0035729240 0 0
-0.0071652620 -0.0028566950 0 0
-0.0076390620 -0.0020843310 0 0
-0.0082059850 -0.0013520610 0 0
-0.0087614220 -0.0007579010 0 0
-0.0092035670 -0.0003893580 0 0
-0.0094460530 -0.0003111770 0 0
-0.0094304370 -0.0005565210 0 0
-0.0091337530 -0.0011232510 0 0
-0.0085691210 -0.0019746640 0 0
-0.0077815260 -0.0030434820 0 0
-0.0068406870 -0.0042383970 0 0
-0.0058307660 -0.0054528520 0 0
-0.0048378340 -0.0065758420 0 0
-0.0039389120 -0.0075038190 0 0
-0.0031957690 -0.0081522040 0 0
-0.0026528350 -0.0084650280 0 0
-0.0023369410 -0.0084212470 0 0
-0.0022584470 -0.0080364660 0 0
-0.0024140700 -0.0073602290 0 0
-0.0027897610 -0.0064703560 0 0
-0.0033612360 -0.0054649880 0 0
-0.0040923570 -0.0044518960 0 0
-0.0049344950 -0.0035357420 0 0
-0.0058296360 -0.0028056940 0 0
-0.0067169170 -0.0023260390 0 0
-0.0075401820 -0.0021315260 0 0
-0.0082547540 -0.0022273300 0 0
-0.0088321290 -0.0025917560 0 0
-0.0092612090 -0.0031798300 0 0
-0.0095466560 -0.0039274110 0 0
-0.0097073990 -0.0047561870 0 0
-0.0097773320 -0.0055793770 0 0
-0.0098065090 -0.0063078010 0 0
-0.0098585250 -0.0068563800 0 0
-0.0100016440 -0.0071511800 0 0
-0.0102959720 -0.0071366690 0 0
-0.0107815820 -0.0067824030 0 0
-0.0114715310 -0.0060883110 0 0
-0.0123506250 -0.0050875070 0 0
-0.0133778240 -0.0038453010 0 0
-0.0144903650 -0.0024539470 0 0
-0.0156104090 -0.0010240240 0 0
-0.0166558850 0.0003262580 0 0
-0.0175539230 0.0014825480 0 0
-0.0182516000 0.0023453530 0 0
-0.0187198220 0.0028397950 0 0
-0.0189513590 0.0029237080 0 0
-0.0189567350 0.0025932380 0 0
-0.0187596050 0.0018848240 0 0
-0.0183912910 0.0008724080 0 0
-0.0178854410 -0.0003406760 0 0
-0.0172750990 -0.0016339600 0 0
-0.0165931870 -0.0028831250 0 0
-0.0158751220 -0.0039716290 0 0
-0.0151610800 -0.0048008050 0 0
-0.0144953450 -0.0052995150 0 0
-0.0139220190 -0.0054321770 0 0
-0.0134789450 -0.0052023300 0 0
-0.0131921110 -0.0046503380 0 0
-0.0130716820 -0.0038462610 0 0
-0.0131107540 -0.0028802470 0 0
-0.0132868110 -0.0018525150 0 0
-0.0135641040 -0.0008642630 0 0
-0.0138967110 -0.0000103978 0 0
-0.0142337700 0.0006262870 0 0
-0.0145263930 0.0009814020 0 0
-0.0147335120 0.0010163530 0 0
-0.0148253410 0.0007245430 0 0
-0.0147856090 0.0001338410 0 0
-0.0146134930 -0.0006949690 0 0
-0.0143244900 -0.0016732950 0 0
-0.0139491270 -0.0026938080 0 0
-0.0135294240 -0.0036429380 0 0
-0.0131141120 -0.0044140480 0 0
-0.0127542060 -0.0049187440 0 0
-0.0124998430 -0.0050961640 0 0
-0.0123965890 -0.0049207710 0 0
-0.0124782230 -0.0044070950 0 0
-0.0127572120 -0.0036091110 0 0
-0.0132182080 -0.0026140720 0 0
-0.0138179400 -0.0015319880 0 0
-0.0144910580 -0.0004814840 0 0
-0.0151594920 0.0004265120 0 0
-0.0157412010 0.0011035600 0 0
-0.0161550400 0.0014924260 0 0
-0.0163233780 0.0015679750 0 0
-0.0161769610 0.0013330050 0 0
-0.0156632360 0.0008134780 0 0
-0.0147553530 0.0000551786 0 0
-0.0134590800 -0.0008794030 0 0
-0.0118164570 -0.0019157100 0 0
-0.0099050130 -0.0029733830 0 0
-0.0078311430 -0.0039728600 0 0
-0.0057175950 -0.0048415740 0 0
-0.0036872730 -0.0055201250 0 0
-0.0018470970 -0.0059683540 0 0
-0.0002751220 -0.0061698410 0 0
0.0009869000 -0.0061331970 0 0
0.0019332340 -0.0058898120 0 0
0.0025866380 -0.0054890760 0 0
0.0029882580 -0.0049924420 0 0
0.0031887460 -0.0044673600 0 0
0.0032410680 -0.0039820040 0 0
0.0031955410 -0.0036006610 0 0
0.0030984010 -0.0033783880 0 0
0.0029935020 -0.0033544470 0 0
0.0029241440 -0.0035458350 0 0
0.0029310110 -0.0039427010 0 0
0.0030451940 -0.0045070910 0 0
0.0032800080 -0.0051765330 0 0
0.0036262860 -0.0058728700 0 0
0.0040528200 -0.0065138970 0 0
0.0045106420 -0.0070237210 0 0
0.0049398160 -0.0073396470 0 0
0.0052788700 -0.0074166600 0 0
0.0054758360 -0.0072313280 0 0
0.0054973490 -0.0067846760 0 0
0.0053331710 -0.0061022180 0 0
0.0049970040 -0.0052312650 0 0
0.0045256370 -0.0042372320 0 0
0.0039759110 -0.0031993870 0 0
0.0034169450 -0.0022049580 0 0
0.0029179320 -0.0013417360 0 0
0.0025364370 -0.0006907330 0 0
0.0023116880 -0.0003191930 0 0
0.0022633670 -0.0002731030 0 0
0.0023940910 -0.0005699320 0 0
0.0026932820 -0.0011945710 0 0
0.0031403920 -0.0021009290 0 0
0.0037071510 -0.0032181160 0 0
0.0043598290 -0.0044573940 0 0
0.0050618200 -0.0057179410 0 0
0.0057755120 -0.0068929670 0 0
0.0064624270 -0.0078777410 0 0
0.0070823090 -0.0085790560 0 0
0.0075932370 -0.0089250190 0 0
0.0079540280 -0.0088738150 0 0
0.0081289940 -0.0084194230 0 0
0.0080948570 -0.0075930840 0 0
0.0078481370 -0.0064608850 0 0
0.0074092080 -0.0051180050 0 0
0.0068209420 -0.0036802520 0 0
0.0061439650 -0.0022743120 0 0
0.0054503830 -0.0010277030 0 0
0.0048155030 -0.0000574362 0 0
0.0043076810 0.0005434040 0 0
0.0039785650 0.0007191290 0 0
0.0038567590 0.0004609250 0 0
0.0039470610 -0.0001906510 0 0
0.0042342200 -0.0011506890 0 0
0.0046873930 -0.0023013490 0 0
0.0052632000 -0.0035081200 0 0
0.0059085840 -0.0046384340 0 0
0.0065646080 -0.0055790950 0 0
0.0071711890 -0.0062489310 0 0
0.0076735050 -0.0066046200 0 0
0.0080301210 -0.0066400220 0 0
0.0082205660 -0.0063814350 0 0
0.0082497850 -0.0058813330 0 0
0.0081477530 -0.0052118820 0 0
0.0079636780 -0.0044584730 0 0
0.0077560330 -0.0037129610 0 0
0.0075811340 -0.0030662400 0 0
0.0074836950 -0.0026003450 0 0
0.0074911820 -0.0023804970 0 0
0.0076107810 -0.0024472850 0 0
0.0078278770 -0.0028097960 0 0
0.0081076240 -0.0034421520 0 0
0.0084011080 -0.0042860610 0 0
0.0086548540 -0.0052595370 0 0
0.0088209730 -0.0062691700 0 0
0.0088650550 -0.0072220180 0 0
0.0087692040 -0.0080336060 0 0
0.0085300620 -0.0086309630 0 0
0.0081548100 -0.0089533930 0 0
0.0076578920 -0.0089554700 0 0
0.0070579880 -0.0086138670 0 0
0.0063737090 -0.0079347760 0 0
0.0056192820 -0.0069570340 0 0
0.0048036430 -0.0057491060 0 0
0.0039337960 -0.0044019020 0 0
0.0030194130 -0.0030199630 0 0
0.0020760160 -0.0017116890 0 0
0.0011271420 -0.0005786980 0 0
0.0002061500 0.0002944880 0 0
-0.0006434690 0.0008482980 0 0
-0.0013705610 0.0010518150 0 0
-0.0019216630 0.0009024090 0 0
-0.0022491690 0.0004233180 0 0
-0.0023217980 -0.0003385460 0 0
-0.0021340170 -0.0013141620 0 0
-0.0017093190 -0.0024153980 0 0
-0.0010953160 -0.0035416980 0 0
-0.0003532940 -0.0045899890 0 0
0.0004535030 -0.0054653050 0 0
0.0012690220 -0.0060902670 0 0
0.0020487510 -0.0064121750 0 0
0.0027603900 -0.0064066840 0 0
0.0033834880 -0.0060783880 0 0
0.0039087030 -0.0054597170 0 0
0.0043360700 -0.0046087810 0 0
0.0046728880 -0.0036051540 0 0
0.0049325140 -0.0025424080 0 0
0.0051343410 -0.0015180790 0 0
0.0053035830 -0.0006230880 0 0
0.0054698160 0.0000676842 0 0
0.0056648310 0.0005028160 0 0
0.0059195040 0.0006593640 0 0
0.0062581670 0.0005451020 0 0
0.0066918160 0.0001975020 0 0
0.0072136770 -0.0003203730 0 0
0.0077986910 -0.0009265080 0 0
0.0084060750 -0.0015288940 0 0
0.0089837440 -0.0020366410 0 0
0.0094739780 -0.0023717010 0 0
0.0098200150 -0.0024782400 0 0
0.0099724670 -0.0023274440 0 0
0.0098943610 -0.0019182570 0 0
0.0095649720 -0.0012759620 0 0
0.0089833820 -0.0004492280 0 0
0.0081715400 0.0004949500 0 0
0.0071756220 0.0014778320 0 0
0.0060645840 0.0024153320 0 0
0.0049248720 0.0032234270 0 0
0.0038510830 0.0038236220 0 0
0.0029341880 0.0041498830 0 0
0.0022499890 0.0041568180 0 0
0.0018496570 0.0038266570 0 0
0.0017532750 0.0031724190 0 0
0.0019467900 0.0022369690 0 0
0.0023827020 0.0010898380 0 0
0.0029857690 -0.0001773340 0 0
0.0036647870 -0.0014575500 0 0
0.0043283000 -0.0026376130 0 0
0.0048998140 -0.0036088710 0 0
0.0053291490 -0.0042786740 0 0
0.0055976350 -0.0045810720 0 0
0.0057155750 -0.0044846410 0 0
0.0057139190 -0.0039962830 0 0
0.0056354090 -0.0031612850 0 0
0.0055283090 -0.0020595160 0 0
0.0054413710 -0.0007970910 0 0
0.0054183180 0.0005052790 0 0
0.0054927780 0.0017241520 0 0
0.0056856630 0.0027438160 0 0
0.0060055440 0.0034664230 0 0
0.0064509300 0.0038229330 0 0
0.0070124820 0.0037836630 0 0
0.0076738280 0.0033651070 0 0
0.0084116390 0.0026298170 0 0
0.0091961250 0.0016785080 0 0
0.0099918510 0.0006359720 0 0
0.0107587530 -0.0003665270 0 0
0.0114539030 -0.0012088940 0 0
0.0120348370 -0.0017963900 0 0
0.0124654340 -0.0020692720 0 0
0.0127234690 -0.0020087640 0 0
0.0128061190 -0.0016393650 0 0
0.0127305430 -0.0010262300 0 0
0.0125299600 -0.0002668130 0 0
0.0122473050 0.0005222410 0 0
0.0119287650 0.0012204920 0 0
0.0116191380 0.0017187940 0 0
0.0113590720 0.0019325370 0 0
0.0111822200 0.0018124020 0 0
0.0111110900 0.0013514450 0 0
0.0111532030 0.0005859530 0 0
0.0113001010 -0.0004111300 0 0
0.0115297310 -0.0015420170 0 0
0.0118107130 -0.0026975760 0 0
0.0121067530 -0.0037695910 0 0
0.0123798400 -0.0046596330 0 0
0.0125914160 -0.0052835840 0 0
0.0127024490 -0.0055731480 0 0
0.0126750490 -0.0054776050 0 0
0.0124772450 -0.0049682120 0 0
0.0120896340 -0.0040445860 0 0
0.0115109490 -0.0027400750 0 0
0.0107609220 -0.0011235320 0 0
0.0098807030 0.0007032210 0 0
0.0089306490 0.0026116940 0 0
0.0079846270 0.0044565140 0 0
0.0071209210 0.0060888470 0 0
0.0064109560 0.0073728610 0 0
0.0059086260 0.0082027640 0 0
0.0056435030 0.0085165960 0 0
0.0056192120 0.0083035540 0 0
0.0058158050 0.0076035480 0 0
0.0061939560 0.0064997360 0 0
0.0067001840 0.0051062690 0 0
0.0072730890 0.0035542420 0 0
0.0078487070 0.0019788640 0 0
0.0083635880 0.0005096230 0 0
0.0087584740 -0.0007368100 0 0
0.0089847110 -0.0016625290 0 0
0.0090104550 -0.0021942510 0 0
0.0088241540 -0.0022889780 0 0
0.0084367990 -0.0019385400 0 0
0.0078834750 -0.0011718630 0 0
0.0072212480 -0.0000537704 0 0
0.0065216390 0.0013201160 0 0
0.0058602620 0.0028316690 0 0
0.0053072800 0.0043502880 0 0
0.0049206320 0.0057434100 0 0
0.0047424790 0.0068871230 0 0
0.0047978880 0.0076769630 0 0
0.0050937310 0.0080387100 0 0
0.0056167160 0.0079380940 0 0
0.0063316090 0.0073873920 0 0
0.0071819460 0.0064461820 0 0
0.0080948260 0.0052143910 0 0
0.0089891370 0.0038189250 0 0
0.0097846310 0.0023982970 0 0
0.0104092790 0.0010892610 0 0
0.0108045440 0.0000165152 0 0
0.0109296360 -0.0007157900 0 0
0.0107649560 -0.0010323880 0 0
0.0103137030 -0.0008955510 0 0
0.0096004190 -0.0003124480 0 0
0.0086669180 0.0006617730 0 0
0.0075686120 0.0019280220 0 0
0.0063728290 0.0033551400 0 0
0.0051561750 0.0047967750 0 0
0.0039986680 0.0061087170 0 0
0.0029771970 0.0071637560 0 0
0.0021603490 0.0078636220 0 0
0.0016030260 0.0081482240 0 0
0.0013402510 0.0080015270 0 0
0.0013826380 0.0074524410 0 0
0.0017160570 0.0065701310 0 0
0.0023054540 0.0054551330 0 0
0.0031004350 0.0042282380 0 0
0.0040406160 0.0030186580 0 0
0.0050605120 0.0019524780 0 0
0.0060945420 0.0011412320 0 0
0.0070826000 0.0006703050 0 0
0.0079761230 0.0005887790 0 0
0.0087433110 0.0009034130 0 0
0.0093716950 0.0015777970 0 0
0.0098672680 0.0025357470 0 0
0.0102508930 0.0036680780 0 0
0.0105535440 0.0048429600 0 0
0.0108113990 0.0059193920 0 0
0.0110605470 0.0067620040 0 0
0.0113304080 0.0072560230 0 0
0.0116361820 0.0073220410 0 0
0.0119733000 0.0069283820 0 0
0.0123176570 0.0060969950 0 0
0.0126321330 0.0049001900 0 0
0.0128756390 0.0034489620 0 0
0.0130108830 0.0018765530 0 0
0.0130103440 0.0003215010 0 0
0.0128603600 -0.0010871620 0 0
0.0125616210 -0.0022412640 0 0
0.0121256280 -0.0030607780 0 0
0.0115700520 -0.0034977300 0 0
0.0109163670 -0.0035384980 0 0
0.0101897890 -0.0032052530 0 0
0.0094191750 -0.0025552670 0 0
0.0086360130 -0.0016761810 0 0
0.0078732100 -0.0006770100 0 0
0.0071633490 0.0003233280 0 0
0.0065359100 0.0012080690 0 0
0.0060150130 0.0018740180 0 0
0.0056193130 0.0022413270 0 0
0.0053631780 0.0022610650 0 0
0.0052568200 0.0019202440 0 0
0.0053042970 0.0012435280 0 0
0.0055005910 0.0002911450 0 0
0.0058298800 -0.0008468730 0 0
0.0062661110 -0.0020601230 0 0
0.0067756810 -0.0032302060 0 0
0.0073211820 -0.0042438770 0 0
0.0078642880 -0.0050051190 0 0
0.0083669090 -0.0054451990 0 0
0.0087928120 -0.0055294260 0 0
0.0091121210 -0.0052589470 0 0
0.0093070150 -0.0046672780 0 0
0.0093751080 -0.0038136600 0 0
0.0093299320 -0.0027764720 0 0
0.0091994180 -0.0016478590 0 0
0.0090217860 -0.0005274720 0 0
0.0088388790 0.0004867200 0 0
0.0086896360 0.0013090810 0 0
0.0086068290 0.0018751860 0 0
0.0086174340 0.0021472910 0 0
0.0087439970 0.0021165380 0 0
0.0090042880 0.0018026380 0 0
0.0094084920 0.0012519180 0 0
0.0099546510 0.0005342330 0 0
0.0106244500 -0.0002617910 0 0
0.0113820770 -0.0010361950 0 0
0.0121772890 -0.0016878610 0 0
0.0129513250 -0.0021259660 0 0
0.0136434820 -0.0022804440 0 0
0.0141968340 -0.0021093570 0 0
0.0145622980 -0.0016023380 0 0
0.0147011150 -0.0007810790 0 0
0.0145876240 0.0003021260 0 0
0.0142135400 0.0015678040 0 0
0.0135923120 0.0029145350 0 0
0.0127617930 0.0042258560 0 0
0.0117840760 0.0053799210 0 0
0.0107406680 0.0062627380 0 0
0.0097228640 0.0067832370 0 0
0.0088202120 0.0068862640 0 0
0.0081104130 0.0065599540 0 0
0.0076522530 0.0058363530 0 0
0.0074812290 0.0047866480 0 0
0.0076063050 0.0035134590 0 0
0.0080073010 0.0021414430 0 0
0.0086354590 0.0008055720 0 0
0.0094198110 -0.0003631200 0 0
0.0102776310 -0.0012517840 0 0
0.0111244820 -0.0017766110 0 0
0.0118815950 -0.0018894700 0 0
0.0124816470 -0.0015813420 0 0
0.0128738640 -0.0008823780 0 0
0.0130278780 0.0001424640 0 0
0.0129367790 0.0014013340 0 0
0.0126196180 0.0027847520 0 0
0.0121208570 0.0041750500 0 0
0.0115049280 0.0054558500 0 0
0.0108481880 0.0065215360 0 0
0.0102313270 0.0072863960 0 0
0.0097325750 0.0076922360 0 0
0.0094199220 0.0077132290 0 0
0.0093412670 0.0073580340 0 0
0.0095145940 0.0066695490 0 0
0.0099227730 0.0057213520 0 0
0.0105160430 0.0046098970 0 0
0.0112209630 0.0034431710 0 0
0.0119527140 0.0023278850 0 0
0.0126279450 0.0013576180 0 0
0.0131746640 0.0006042420 0 0
0.0135367610 0.0001138270 0 0
0.0136751680 -0.0000936887 0 0
0.0135689570 -0.0000229579 0 0
0.0132165280 0.0002988980 0 0
0.0126355090 0.0008251320 0 0
0.0118608800 0.0014934530 0 0
0.0109413570 0.0022307010 0 0
0.0099341330 0.0029571220 0 0
0.0088992520 0.0035905550 0 0
0.0078955750 0.0040518940 0 0
0.0069783400 0.0042729660 0 0
0.0061960010 0.0042063440 0 0
0.0055849660 0.0038341780 0 0
0.0051634330 0.0031732710 0 0
0.0049269850 0.0022760880 0 0
0.0048486290 0.0012273250 0 0
0.0048840210 0.0001345010 0 0
0.0049792020 -0.0008864750 0 0
0.0050776160 -0.0017269060 0 0
0.0051259410 -0.0022990780 0 0
0.0050800100 -0.0025468740 0 0
0.0049108580 -0.0024516980 0 0
0.0046090440 -0.0020325170 0 0
0.0041853790 -0.0013411470 0 0
0.0036680560 -0.0004556890 0 0
0.0030977610 0.0005263700 0 0
0.0025228530 0.0014961250 0 0
0.0019955990 0.0023429370 0 0
0.0015682100 0.0029654200 0 0
0.0012869210 0.0032827420 0 0
0.0011848600 0.0032441660 0 0
0.0012762830 0.0028346340 0 0
0.0015542300 0.0020761960 0 0
0.0019928610 0.0010265890 0 0
0.0025542120 -0.0002245210 0 0
0.0031959570 -0.0015627010 0 0
0.0038758810 -0.0028598050 0 0
0.0045517690 -0.0039874990 0 0
0.0051791950 -0.0048311640 0 0
0.0057117380 -0.0053025630 0 0
0.0061063330 -0.0053494400 0 0
0.0063311360 -0.0049601100 0 0
0.0063708570 -0.0041623220 0 0
0.0062279060 -0.0030178760 0 0
0.0059213640 -0.0016157250 0 0
0.0054852560 -0.0000650769 0 0
0.0049654880 0.0015119890 0 0
0.0044143650 0.0029896020 0 0
0.0038828850 0.0042490520 0 0
0.0034129480 0.0051898590 0 0
0.0030318870 0.0057385850 0 0
0.0027495910 0.0058547500 0 0
0.0025577170 0.0055348560 0 0
0.0024320110 0.0048143780 0 0
0.0023388520 0.0037656500 0 0
0.0022444230 0.0024901160 0 0
0.0021225090 0.0011058610 0 0
0.0019571090 -0.0002669690 0 0
0.0017394030 -0.0015195190 0 0
0.0014632710 -0.0025633420 0 0
0.0011242940 -0.0033345870 0 0
0.0007226360 -0.0037952270 0 0
0.0002666340 -0.0039335490 0 0
-0.0002256380 -0.0037641900 0 0
-0.0007286900 -0.0033266840 0 0
-0.0012158360 -0.0026820940 0 0
-0.0016653200 -0.0019083920 0 0
-0.0020618650 -0.0010947940 0 0
-0.0023941330 -0.0003345880 0 0
-0.0026517320 0.0002835150 0 0
-0.0028236140 0.0006849460 0 0
-0.0028975300 0.0008189810 0 0
-0.0028608050 0.0006668540 0 0
-0.0027032440 0.0002461940 0 0
-0.0024217230 -0.0003891390 0 0
-0.0020244380 -0.0011539040 0 0
-0.0015326740 -0.0019407770 0 0
-0.0009790620 -0.0026328230 0 0
-0.0004029870 -0.0031176250 0 0
0.0001551290 -0.0033024150 0 0
0.0006587400 -0.0031284430 0 0
0.0010776640 -0.0025802050 0 0
0.0013886240 -0.0016860340 0 0
0.0015768030 -0.0005109440 0 0
0.0016394840 0.0008543870 0 0
0.0015884340 0.0023050660 0 0
0.0014480650 0.0037322720 0 0
0.0012508730 0.0050321190 0 0
0.0010338130 0.0061131520 0 0
0.0008367240 0.0069021530 0 0
0.0006995890 0.0073484640 0 0
0.0006557520 0.0074278930 0 0
0.0007232270 0.0071464190 0 0
0.0008983420 0.0065416450 0 0
0.0011546620 0.0056796380 0 0
0.0014479840 0.0046472710 0 0
0.0017248800 0.0035426600 0 0
0.0019309310 0.0024662560 0 0
0.0020172950 0.0015134780 0 0
0.0019465180 0.0007685460 0 0
0.0016978880 0.0002987480 0 0
0.0012716050 0.0001484470 0 0
0.0006906940 0.0003330720 0 0
-0.0000009097 0.0008347610 0 0
-0.0007447880 0.0016019790 0 0
-0.0014774520 0.0025544960 0 0
-0.0021397690 0.0035932020 0 0
-0.0026829960 0.0046127170 0 0
-0.0030700560 0.0055141050 0 0
-0.0032748770 0.0062153240 0 0
-0.0032832400 0.0066583790 0 0
-0.0030938050 0.0068136980 0 0
-0.0027162610 0.0066825920 0 0
-0.0021686780 0.0062977470 0 0
-0.0014782190 0.0057205390 0 0
-0.0006836840 0.0050342230 0 0
0.0001653890 0.0043338200 0 0
0.0010146470 0.0037150570 0 0
0.0018129990 0.0032645500 0 0
0.0025189030 0.0030519840 0 0
0.0031025280 0.0031239110 0 0
0.0035446940 0.0034988900 0 0
0.0038353760 0.0041647660 0 0
0.0039734010 0.0050791750 0 0
0.0039677190 0.0061729710 0 0
0.0038403570 0.0073556200 0 0
0.0036285500 0.0085223110 0 0
0.0033819840 0.0095625700 0 0
0.0031549230 0.0103698450 0 0
0.0029968550 0.0108521100 0 0
0.0029446440 0.0109429730 0 0
0.0030174110 0.0106112880 0 0
0.0032146690 0.0098669640 0 0
0.0035172590 0.0087613620 0 0
0.0038905700 0.0073817550 0 0
0.0042897230 0.0058412440 0 0
0.0046655560 0.0042668440 0 0
0.0049704160 0.0027872800 0 0
0.0051630380 0.0015206030 0 0
0.0052111480 0.0005626840 0 0
0.0050922620 -0.0000209991 0 0
0.0047949350 -0.0001988570 0 0
0.0043207670 0.0000269589 0 0
0.0036860800 0.0006221940 0 0
0.0029222480 0.0015229270 0 0
0.0020731660 0.0026398500 0 0
0.0011898940 0.0038651870 0 0
0.0003255090 0.0050816880 0 0
-0.0004680590 0.0061727180 0 0
-0.0011432190 0.0070328870 0 0
-0.0016613850 0.0075787730 0 0
-0.0019972050 0.0077583130 0 0
-0.0021404780 0.0075569280 0 0
-0.0020961940 0.0069990060 0 0
-0.0018834730 0.0061442930 0 0
-0.0015324310 0.0050797800 0 0
-0.0010781400 0.0039091750 0 0
-0.0005544690 0.0027427060 0 0
0.0000078811 0.0016883350 0 0
0.0005789840 0.0008431690 0 0
0.0011269600 0.0002841460 0 0
0.0016181860 0.0000589693 0 0
0.0020205800 0.0001789980 0 0
0.0023087610 0.0006155660 0 0
0.0024699460 0.0013008960 0 0
0.0025080280 0.0021345540 0 0
0.0024427910 0.0029957730 0 0
0.0023048830 0.0037602730 0 0
0.0021294090 0.0043182520 0 0
0.0019491360 0.0045890940 0 0
0.0017882200 0.0045295370 0 0
0.0016594980 0.0041354630 0 0
0.0015669210 0.0034397200 0 0
0.0015108960 0.0025073280 0 0
0.0014925200 0.0014277780 0 0
0.0015135060 0.0003046870 0 0
0.0015707830 -0.0007556960 0 0
0.0016488320 -0.0016551910 0 0
0.0017156610 -0.0023118530 0 0
0.0017261680 -0.0026651760 0 0
0.0016315760 -0.0026797280 0 0
0.0013905030 -0.0023485100 0 0
0.0009768300 -0.0016952320 0 0
0.0003815670 -0.0007729930 0 0
-0.0003894910 0.0003419830 0 0
-0.0013175180 0.0015601800 0 0
-0.0023698200 0.0027890440 0 0
-0.0034986330 0.0039410610 0 0
-0.0046423790 0.0049388270 0 0
-0.0057301330 0.0057181480 0 0
-0.0066878680 0.0062310120 0 0
-0.0074450590 0.0064493850 0 0
-0.0079422880 0.0063692180 0 0
-0.0081401400 0.0060130630 0 0
-0.0080269140 0.0054297510 0 0
-0.0076221130 0.0046908090 0 0
-0.0069749370 0.0038842430 0 0
-0.0061584720 0.0031062310 0 0
-0.0052601250 0.0024513850 0 0
-0.0043695380 0.0020026450 0 0
-0.0035666500 0.0018217330 0 0
-0.0029126370 0.0019410790 0 0
-0.0024446570 0.0023588270 0 0
-0.0021741110 0.0030387950 0 0
-0.0020888480 0.0039162510 0 0
-0.0021592950 0.0049085640 0 0
-0.0023458920 0.0059277060 0 0
-0.0026046990 0.0068908740 0 0
-0.0028908520 0.0077272970 0 0
-0.0031613730 0.0083815830 0 0
-0.0033782470 0.0088147460 0 0
-0.0035116000 0.0090041490 0 0
-0.0035426520 0.0089435620 0 0
-0.0034660050 0.0086438010 0 0
-0.0032904940 0.0081335880 0 0
-0.0030378660 0.0074596880 0 0
-0.0027390180 0.0066846810 0 0
-0.0024284720 0.0058812060 0 0
-0.0021388060 0.0051235590 0 0
-0.0018967830 0.0044788390 0 0
-0.0017217120 0.0039993200 0 0
-0.0016254680 0.0037170130 0 0
-0.0016133380 0.0036411040 0 0
-0.0016848340 0.0037580450 0 0
-0.0018335670 0.0040333010 0 0
-0.0020458310 0.0044146220 0 0
-0.0022987470 0.0048374040 0 0
-0.0025596810 0.0052318230 0 0
-0.0027883350 0.0055308690 0 0
-0.0029415750 0.0056784460 0 0
-0.0029800540 0.0056362340 0 0
-0.0028752390 0.0053879990 0 0
-0.0026149720 0.0049409700 0 0
-0.0022058860 0.0043241890 0 0
-0.0016725640 0.0035841250 0 0
-0.0010547120 0.0027793280 0 0
-0.0004022990 0.0019762440 0 0
0.0002328490 0.0012460520 0 0
0.0008073620 0.0006604290 0 0
0.0012933380 0.0002848220 0 0
0.0016794200 0.0001699150 0 0
0.0019678480 0.0003432120 0 0
0.0021705070 0.0008030330 0 0
0.0023053980 0.0015168750 0 0
0.0023934040 0.0024248360 0 0
0.0024550650 0.0034467090 0 0
0.0025074560 0.0044903290 0 0
0.0025616180 0.0054595850 0 0
0.0026208190 0.0062622240 0 0
0.0026797570 0.0068183130 0 0
0.0027256670 0.0070693780 0 0
0.0027424510 0.0069873320 0 0
0.0027165690 0.0065813130 0 0
0.0026414870 0.0058998600 0 0
0.0025182730 0.0050268470 0 0
0.0023517220 0.0040719370 0 0
0.0021438960 0.0031576800 0 0
0.0018890600 0.0024053550 0 0
0.0015732560 0.0019207890 0 0
0.0011783310 0.0017810560 0 0
0.0006881520 0.0020240440 0 0
0.0000947828 0.0026430630 0 0
-0.0005971030 0.0035871180 0 0
-0.0013682190 0.0047666350 0 0
-0.0021849700 0.0060639990 0 0
-0.0030021860 0.0073470660 0 0
-0.0037676790 0.0084831250 0 0
-0.0044269240 0.0093519370 0 0
-0.0049277400 0.0098576220 0 0
-0.0052263400 0.0099387210 0 0
-0.0052939100 0.0095751080 0 0
-0.0051215310 0.0087909240 0 0
-0.0047227720 0.0076532230 0 0
-0.0041334560 0.0062657990 0 0
-0.0034071260 0.0047581680 0 0
-0.0026067170 0.0032710440 0 0
-0.0017961110 0.0019402850 0 0
-0.0010345770 0.0008816510 0 0
-0.0003728780 0.0001791080 0 0
0.0001515270 -0.0001216980 0 0
0.0005195830 -0.0000151016 0 0
0.0007330840 0.0004667000 0 0
0.0008131210 0.0012588160 0 0
0.0007964370 0.0022716050 0 0
0.0007315110 0.0034010840 0 0
0.0006732000 0.0045407320 0 0
0.0006745830 0.0055924160 0 0
0.0007781770 0.0064739930 0 0
0.0010103010 0.0071229740 0 0
0.0013798260 0.0074978650 0 0
0.0018800680 0.0075790740 0 0
0.0024924600 0.0073697850 0 0
0.0031913970 0.0068957870 0 0
0.0039492020 0.0062029090 0 0
0.0047392210 0.0053518180 0 0
0.0055359300 0.0044117670 0 0
0.0063130110 0.0034557000 0 0
0.0070409110 0.0025572280 0 0
0.0076853040 0.0017874890 0 0
0.0082077680 0.0012103430 0 0
0.0085691390 0.0008766630 0 0
0.0087352180 0.0008191280 0 0
0.0086831120 0.0010481950 0 0
0.0084048960 0.0015497220 0 0
0.0079076570 0.0022850000 0 0
0.0072136560 0.0031933120 0 0
0.0063633640 0.0041959120 0 0
0.0054175800 0.0052008280 0 0
0.0044527960 0.0061097060 0 0
0.0035499640 0.0068279120 0 0
0.0027823040 0.0072766370 0 0
0.0022059380 0.0074038810 0 0
0.0018524070 0.0071915780 0 0
0.0017220140 0.0066579390 0 0
0.0017810550 0.0058553640 0 0
0.0019668160 0.0048642350 0 0
0.0021995520 0.0037829520 0 0
0.0023966660 0.0027159830 0 0
0.0024851820 0.0017631200 0 0
0.0024108010 0.0010125190 0 0
0.0021423710 0.0005371930 0 0
0.0016712500 0.0003915400 0 0
0.0010073270 0.0006047460 0 0
0.0001752980 0.0011721830 0 0
-0.0007862770 0.0020494090 0 0
-0.0018244310 0.0031528410 0 0
-0.0028732890 0.0043677970 0 0
-0.0038595070 0.0055617450 0 0
-0.0047107620 0.0066002620 0 0
-0.0053645420 0.0073633000 0 0
-0.0057750340 0.0077590950 0 0
-0.0059185800 0.0077343150 0 0
-0.0057980610 0.0072804190 0 0
-0.0054433270 0.0064350600 0 0
-0.0049058020 0.0052768920 0 0
-0.0042500500 0.0039147130 0 0
-0.0035453960 0.0024738770 0 0
-0.0028587540 0.0010822490 0 0
-0.0022501050 -0.0001424590 0 0
-0.0017710160 -0.0011021960 0 0
-0.0014637120 -0.0017243880 0 0
-0.0013583010 -0.0019650820 0 0
-0.0014687500 -0.0018107760 0 0
-0.0017896790 -0.0012791300 0 0
-0.0022950100 -0.0004179260 0 0
-0.0029388420 0.0006981830 0 0
-0.0036594360 0.0019736710 0 0
-0.0043858640 0.0033013220 0 0
-0.0050441830 0.0045737680 0 0
-0.0055609910 0.0056949240 0 0
-0.0058662860 0.0065890050 0 0
-0.0058990090 0.0072068800 0 0
-0.0056156230 0.0075310890 0 0
-0.0049985280 0.0075799660 0 0
-0.0040608220 0.0074088340 0 0
-0.0028465020 0.0071052340 0 0
-0.0014273960 0.0067774090 0 0
0.0001020670 0.0065385970 0 0
0.0016330850 0.0064906470 0 0
0.0030545020 0.0067092360 0 0
0.0042669110 0.0072323480 0 0
0.0051956280 0.0080539660 0 0
0.0057995060 0.0091241190 0 0
0.0060738920 0.0103550730 0 0
0.0060485310 0.0116328250 0 0
0.0057819370 0.0128327470 0 0
0.0053524270 0.0138371360 0 0
0.0048462820 0.0145507730 0 0
0.0043457380 0.0149109420 0 0
0.0039198840 0.0148910980 0 0
0.0036190160 0.0144997990 0 0
0.0034712180 0.0137766350 0 0
0.0034810510 0.0127862290 0 0
0.0036307500 0.0116115030 0 0
0.0038833780 0.0103473110 0 0
0.0041875760 0.0090943620 0 0
0.0044843440 0.0079528310 0 0
0.0047156420 0.0070156290 0 0
0.0048327520 0.0063614640 0 0
0.0048023470 0.0060479550 0 0
0.0046098710 0.0061055330 0 0
0.0042603530 0.0065327670 0 0
0.0037768360 0.0072937110 0 0
0.0031975890 0.0083183670 0 0
0.0025724870 0.0095075890 0 0
0.0019574760 0.0107428460 0 0
0.0014066070 0.0118999070 0 0
0.0009636220 0.0128640910 0 0
0.0006571370 0.0135438560 0 0
0.0005016730 0.0138799160 0 0
0.0005015040 0.0138487690 0 0
0.0006531410 0.0134614550 0 0
0.0009465260 0.0127593360 0 0
0.0013661920 0.0118085700 0 0
0.0018910070 0.0106944320 0 0
0.0024916260 0.0095155000 0 0
0.0031280800 0.0083767170 0 0
0.0037498580 0.0073807960 0 0
0.0042989460 0.0066189720 0 0
0.0047165730 0.0061628290 0 0
0.0049538690 0.0060586530 0 0
0.0049833030 0.0063244450 0 0
0.0048056520 0.0069487040 0 0
0.0044491620 0.0078906560 0 0
0.0039621760 0.0090824120 0 0
0.0034032830 0.0104335710 0 0
0.0028321310 0.0118382940 0 0
0.0023027090 0.0131843490 0 0
0.0018599920 0.0143636770 0 0
0.0015384180 0.0152844400 0 0
0.0013597590 0.0158829620 0 0
0.0013302210 0.0161322160 0 0
0.0014388420 0.0160443200 0 0
0.0016596060 0.0156671040 0 0
0.0019572770 0.0150765750 0 0
0.0022928980 0.0143670120 0 0
0.0026253990 0.0136396950 0 0
0.0029112740 0.0129913870 0 0
0.0031065260 0.0125038600 0 0
0.0031713790 0.0122354090 0 0
0.0030751760 0.0122152490 0 0
0.0027996200 0.0124417070 0 0
0.0023406450 0.0128842550 0 0
0.0017103450 0.0134881960 0 0
0.0009384130 0.0141808620 0 0
0.0000698389 0.0148791960 0 0
-0.0008422120 0.0154986760 0 0
-0.0017438670 0.0159624490 0 0
-0.0025834970 0.0162086160 0 0
-0.0033109530 0.0161942830 0 0
-0.0038785920 0.0158970130 0 0
-0.0042473480 0.0153151130 0 0
-0.0043945320 0.0144673450 0 0
-0.0043183300 0.0133920040 0 0
-0.0040383160 0.0121455710 0 0
-0.0035935200 0.0108007780 0 0
-0.0030388520 0.0094432030 0 0
-0.0024403010 0.0081657950 0 0
-0.0018686390 0.0070618520 0 0
-0.0013916280 0.0062171390 0 0
-0.0010667330 0.0057014770 0 0
-0.0009361750 0.0055609590 0 0
-0.0010239380 0.0058125530 0 0
-0.0013340800 0.0064414850 0 0
-0.0018506790 0.0074008500 0 0
-0.0025396110 0.0086138530 0 0
-0.0033515670 0.0099797460 0 0
-0.0042255560 0.0113834880 0 0
-0.0050930960 0.0127076590 0 0
-0.0058843020 0.0138441300 0 0
-0.0065362570 0.0147036570 0 0
-0.0070014680 0.0152234640 0 0
-0.0072527990 0.0153731530 0 0
-0.0072831880 0.0151578000 0 0
-0.0071019400 0.0146164520 0 0
-0.0067306520 0.0138159290 0 0
-0.0062003470 0.0128418660 0 0
-0.0055495150 0.0117888910 0 0
-0.0048219240 0.0107503730 0 0
-0.0040634900 0.0098083000 0 0
-0.0033185850 0.0090252460 0 0
-0.0026264390 0.0084400570 0 0
-0.0020182540 0.0080668280 0 0
-0.0015155250 0.0078958660 0 0
-0.0011288470 0.0078965090 0 0
-0.0008563310 0.0080224290 0 0
-0.0006828470 0.0082190840 0 0
-0.0005817720 0.0084318980 0 0
-0.0005187750 0.0086130810 0 0
-0.0004559020 0.0087253560 0 0
-0.0003552120 0.0087426600 0 0
-0.0001826240 0.0086503320 0 0
0.0000870953 0.0084472820 0 0
0.0004646630 0.0081495530 0 0
0.0009423210 0.0077918460 0 0
0.0014936610 0.0074245180 0 0
0.0020770770 0.0071067040 0 0
0.0026416140 0.0068979290 0 0
0.0031336630 0.0068499960 0 0
0.0035021420 0.0070000230 0 0
0.0037012090 0.0073653110 0 0
0.0036936160 0.0079401810 0 0
0.0034578980 0.0086943340 0 0
0.0029967220 0.0095725760 0 0
0.0023405070 0.0104968820 0 0
0.0015442290 0.0113724420 0 0
0.0006801060 0.0120985720 0 0
-0.0001705210 0.0125830820 0 0
-0.0009253500 0.0127566330 0 0
-0.0015107910 0.0125831840 0 0
-0.0018733640 0.0120641830 0 0
-0.0019892030 0.0112365280 0 0
-0.0018669490 0.0101661380 0 0
-0.0015429560 0.0089392870 0 0
-0.0010723040 0.0076533910 0 0
-0.0005204520 0.0064086840 0 0
0.0000428057 0.0053018960 0 0
0.0005492570 0.0044219170 0 0
0.0009397690 0.0038459390 0 0
0.0011717740 0.0036337210 0 0
0.0012243990 0.0038187390 0 0
0.0011006270 0.0043984460 0 0
0.0008261750 0.0053284290 0 0
0.0004439610 0.0065238230 0 0
0.0000048427 0.0078680010 0 0
-0.0004413310 0.0092267000 0 0
-0.0008502520 0.0104651000 0 0
-0.0011828860 0.0114646920 0 0
-0.0014033720 0.0121367270 0 0
-0.0014782640 0.0124300620 0 0
-0.0013782880 0.0123327470 0 0
-0.0010820110 0.0118682680 0 0
-0.0005801710 0.0110887500 0 0
0.0001212270 0.0100676120 0 0
0.0010006220 0.0088927900 0 0
0.0020228780 0.0076602620 0 0
0.0031413490 0.0064675480 0 0
0.0042991140 0.0054072250 0 0
0.0054306450 0.0045605310 0 0
0.0064661000 0.0039918340 0 0
0.0073389410 0.0037450040 0 0
0.0079949240 0.0038412960 0 0
0.0083992960 0.0042776230 0 0
0.0085400870 0.0050256340 0 0
0.0084270500 0.0060330400 0 0
0.0080873340 0.0072278170 0 0
0.0075602220 0.0085243470 0 0
0.0068932240 0.0098300070 0 0
0.0061400220 0.0110518150 0 0
0.0053587700 0.0121039460 0 0
0.0046087880 0.0129160220 0 0
0.0039445900 0.0134401230 0 0
0.0034080590 0.0136545670 0 0
0.0030216220 0.0135644700 0 0
0.0027858550 0.0132005830 0 0
0.0026822650 0.0126172780 0 0
0.0026784330 0.0118889280 0 0
0.0027331610 0.0111035860 0 0
0.0028022440 0.0103540780 0 0
0.0028453720 0.0097276310 0 0
0.0028322380 0.0092950650 0 0
0.0027460090 0.0091005220 0 0
0.0025840400 0.0091537560 0 0
0.0023566580 0.0094273420 0 0
0.0020851450 0.0098596660 0 0
0.0017988740 0.0103633170 0 0
0.0015294950 0.0108380910 0 0
0.0013019320 0.0111868950 0 0
0.0011268440 0.0113311050 0 0
0.0009990940 0.0112213170 0 0
0.0009016770 0.0108413500 0 0
0.0008120570 0.0102066520 0 0
0.0007083660 0.0093599690 0 0
0.0005728810 0.0083665370 0 0
0.0003916800 0.0073096530 0 0
0.0001527600 0.0062856790 0 0
-0.0001540860 0.0053962590 0 0
-0.0005344700 0.0047371460 0 0
-0.0009852930 0.0043863000 0 0
-0.0014926800 0.0043948390 0 0
-0.0020337370 0.0047823910 0 0
-0.0025803670 0.0055361380 0 0
-0.0031025110 0.0066124170 0 0
-0.0035706630 0.0079400400 0 0
-0.0039590890 0.0094245890 0 0
-0.0042488650 0.0109538970 0 0
-0.0044276170 0.0124061950 0 0
-0.0044857990 0.0136616190 0 0
-0.0044140360 0.0146151760 0 0
-0.0042055270 0.0151878600 0 0
-0.0038618440 0.0153336860 0 0
-0.0033964870 0.0150426980 0 0
-0.0028334510 0.0143410330 0 0
-0.0022033620 0.0132883390 0 0
-0.0015403170 0.0119726160 0 0
-0.0008798270 0.0105034990 0 0
-0.0002574370 0.0090045570 0 0
0.0002918030 0.0076036480 0 0
0.0007335700 0.0064208630 0 0
0.0010356700 0.0055557990 0 0
0.0011713400 0.0050766860 0 0
0.0011237890 0.0050128730 0 0
0.0008904680 0.0053514540 0 0
0.0004851620 0.0060384300 0 0
-0.0000631073 0.0069842090 0 0
-0.0007139270 0.0080729420 0 0
-0.0014212700 0.0091750200 0 0
-0.0021401580 0.0101616260 0 0
-0.0028322010 0.0109192700 0 0
-0.0034685930 0.0113614340 0 0
-0.0040306330 0.0114349140 0 0
-0.0045076810 0.0111207250 0 0
-0.0048926940 0.0104319310 0 0
-0.0051780630 0.0094110010 0 0
-0.0053555040 0.0081267290 0 0
-0.0054210820 0.0066691650 0 0
-0.0053820230 0.0051423030 0 0
-0.0052599420 0.0036558820 0 0
-0.0050875570 0.0023172420 0 0
-0.0049003170 0.0012229920 0 0
-0.0047271930 0.0004503210 0 0
-0.0045847510 0.0000489580 0 0
-0.0044760920 0.0000352647 0 0
-0.0043931240 0.0003895560 0 0
-0.0043195130 0.0010573490 0 0
-0.0042329530 0.0019553080 0 0
-0.0041075230 0.0029815750 0 0
-0.0039177290 0.0040284380 0 0
-0.0036443350 0.0049950690 0 0
-0.0032799760 0.0057988050 0 0
-0.0028324340 0.0063833940 0 0
-0.0023242130 0.0067230780 0 0
-0.0017879660 0.0068227090 0 0
-0.0012593830 0.0067146480 0 0
-0.0007707970 0.0064531260 0 0
-0.0003474420 0.0061070150 0 0
-0.0000063415 0.0057522100 0 0
0.0002428060 0.0054642550 0 0
0.0003956630 0.0053112160 0 0
0.0004512860 0.0053469080 0 0
0.0004107090 0.0056048610 0 0
0.0002760790 0.0060937510 0 0
0.0000506215 0.0067954250 0 0
-0.0002597220 0.0076665080 0 0
-0.0006427330 0.0086432360 0 0
-0.0010758900 0.0096477840 0 0
-0.0015241410 0.0105951820 0 0
-0.0019409580 0.0114015640 0 0
-0.0022730000 0.0119935800 0 0
-0.0024677820 0.0123169100 0 0
-0.0024824820 0.0123421880 0 0
-0.0022918020 0.0120685050 0 0
-0.0018929450 0.0115251760 0 0
-0.0013054720 0.0107716770 0 0
-0.0005658720 0.0098948070 0 0
0.0002790860 0.0090016740 0 0
0.0011750630 0.0082077840 0 0
0.0020580860 0.0076210340 0 0
0.0028526920 0.0073243160 0 0
0.0034759550 0.0073610380 0 0
0.0038481100 0.0077277270 0 0
0.0039059280 0.0083758300 0 0
0.0036142800 0.0092216450 0 0
0.0029730960 0.0101608220 0 0
0.0020186060 0.0110833390 0 0
0.0008187250 0.0118860430 0 0
-0.0005364670 0.0124814320 0 0
-0.0019471460 0.0128027110 0 0
-0.0033165910 0.0128063560 0 0
-0.0045620290 0.0124736980 0 0
-0.0056216730 0.0118120060 0 0
-0.0064571180 0.0108541750 0 0
-0.0070514830 0.0096561410 0 0
-0.0074054100 0.0082921380 0 0
-0.0075338200 0.0068488160 0 0
-0.0074648300 0.0054193710 0 0
-0.0072394040 0.0040979490 0 0
-0.0069092670 0.0029735440 0 0
-0.0065322770 0.0021232840 0 0
-0.0061662430 0.0016061410 0 0
-0.0058625010 0.0014577380 0 0
-0.0056607590 0.0016866810 0 0
-0.0055864110 0.0022731990 0 0
-0.0056498130 0.0031703950 0 0
-0.0058459260 0.0043077540 0 0
-0.0061545620 0.0055965740 0 0
-0.0065432210 0.0069369610 0 0
-0.0069723040 0.0082258830 0 0
-0.0073990340 0.0093659330 0 0
-0.0077776250 0.0102744950 0 0
-0.0080591940 0.0108923930 0 0
-0.0081979000 0.0111897540 0 0
-0.0081640260 0.0111668410 0 0
-0.0079558540 0.0108503030 0 0
-0.0076019120 0.0102880280 0 0
-0.0071536970 0.0095455030 0 0
-0.0066748060 0.0087035690 0 0
-0.0062304880 0.0078550960 0 0
-0.0058787290 0.0070982670 0 0
-0.0056638580 0.0065265010 0 0
-0.0056133850 0.0062170960 0 0
-0.0057377330 0.0062212440 0 0
-0.0060322940 0.0065576010 0 0
-0.0064806090 0.0072104090 0 0
-0.0070574460 0.0081316410 0 0
-0.0077316240 0.0092460770 0 0
-0.0084679110 0.0104592430 0 0
-0.0092261570 0.0116685160 0 0
-0.0099584200 0.0127756370 0 0
-0.0106082310 0.0136972760 0 0
-0.0111152920 0.0143718380 0 0
-0.0114245280 0.0147630580 0 0
-0.0114952270 0.0148610130 0 0
-0.0113065820 0.0146804160 0 0
-0.0108591680 0.0142565740 0 0
-0.0101738330 0.0136406690 0 0
-0.0092887290 0.0128960490 0 0
-0.0082541530 0.0120956490 0 0
-0.0071256170 0.0113189090 0 0
-0.0059568700 0.0106460800 0 0
-0.0047941970 0.0101496870 0 0
-0.0036720360 0.0098851490 0 0
-0.0026095560 0.0098829300 0 0
-0.0016088870 0.0101436000 0 0
-0.0006568790 0.0106364560 0 0
0.0002692840 0.0113018000 0 0
0.0011947110 0.0120565070 0 0
0.0021396240 0.0128027020 0 0
0.0031131880 0.0134394810 0 0
0.0041097040 0.0138769700 0 0
0.0051084690 0.0140507570 0 0
0.0060773400 0.0139333210 0 0
0.0069786630 0.0135387630 0 0
0.0077760140 0.0129193320 0 0
0.0084405280 0.0121556260 0 0
0.0089547430 0.0113435250 0 0
0.0093119140 0.0105798260 0 0
0.0095127680 0.0099487100 0 0
0.0095641300 0.0095122180 0 0
0.0094801280 0.0093066760 0 0
0.0092825140 0.0093440090 0 0
0.0089983190 0.0096154560 0 0
0.0086569440 0.0100952730 0 0
0.0082890550 0.0107429890 0 0
0.0079266700 0.0115042050 0 0
0.0076025510 0.0123109640 0 0
0.0073485560 0.0130833730 0 0
0.0071934180 0.0137342830 0 0
0.0071594560 0.0141775790 0 0
0.0072583010 0.0143389400 0 0
0.0074880430 0.0141671360 0 0
0.0078339950 0.0136433300 0 0
0.0082719150 0.0127856130 0 0
0.0087702890 0.0116478110 0 0
0.0092898490 0.0103137270 0 0
0.0097819570 0.0088885540 0 0
0.0101892210 0.0074889590 0 0
0.0104502010 0.0062330030 0 0
0.0105072990 0.0052306010 0 0
0.0103149020 0.0045750690 0 0
0.0098454520 0.0043358930 0 0
0.0090934750 0.0045523280 0 0
0.0080780110 0.0052278900 0 0
0.0068419100 0.0063271780 0 0
0.0054464690 0.0077767700 0 0
0.0039629720 0.0094706330 0 0
0.0024646900 0.0112789650 0 0
0.0010213720 0.0130593480 0 0
-0.0003044860 0.0146694780 0 0
-0.0014611250 0.0159806660 0 0
-0.0024107480 0.0168909890 0 0
-0.0031304920 0.0173366640 0 0
-0.0036094070 0.0172995050 0 0
-0.0038423460 0.0168085930 0 0
-0.0038241070 0.0159360650 0 0
-0.0035465650 0.0147886910 0 0
-0.0030003300 0.0134969460 0 0
-0.0021810950 0.0122020620 0 0
-0.0010983100 0.0110414140 0 0
0.0002177840 0.0101342930 0 0
0.0017139440 0.0095704690 0 0
0.0033179890 0.0094023770 0 0
0.0049483860 0.0096405860 0 0
0.0065268000 0.0102521740 0 0
0.0079908860 0.0111626220 0 0
0.0093042790 0.0122628880 0 0
0.0104601050 0.0134218510 0 0
0.0114764960 0.0145020060 0 0
0.0123865430 0.0153758090 0 0
0.0132268190 0.0159404780 0 0
0.0140276850 0.0161287240 0 0
0.0148066860 0.0159135570 0 0
0.0155649720 0.0153077040 0 0
0.0162870800 0.0143596870 0 0
0.0169449360 0.0131476200 0 0
0.0175046870 0.0117705410 0 0
0.0179331780 0.0103380070 0 0
0.0182025060 0.0089602840 0 0
0.0182932800 0.0077407030 0 0
0.0181970880 0.0067694160 0 0
0.0179179210 0.0061171080 0 0
0.0174721260 0.0058284300 0 0
0.0168869110 0.0059162990 0 0
0.0161984200 0.0063588660 0 0
0.0154500740 0.0071004140 0 0
0.0146899580 0.0080564070 0 0
0.0139664070 0.0091222630 0 0
0.0133237080 0.0101847210 0 0
0.0127998430 0.0111338290 0 0
0.0124254390 0.0118741040 0 0
0.0122222340 0.0123345140 0 0
0.0122009890 0.0124767720 0 0
0.0123601770 0.0123000920 0 0
0.0126867410 0.0118404020 0 0
0.0131587580 0.0111640000 0 0
0.0137491360 0.0103579990 0 0
0.0144295900 0.0095200170 0 0
0.0151732110 0.0087480090 0 0
0.0159536710 0.0081303890 0 0
0.0167418470 0.0077369720 0 0
0.0175025870 0.0076116190 0 0
0.0181938290 0.0077675240 0 0
0.0187695690 0.0081863930 0 0
0.0191873700 0.0088224010 0 0
0.0194187070 0.0096098090 0 0
0.0194579690 0.0104713290 0 0
0.0193261010 0.0113249420 0 0
0.0190674440 0.0120895880 0 0
0.0187411830 0.0126919930 0 0
0.0184104840 0.0130751720 0 0
0.0181319910 0.0132061660 0 0
0.0179468750 0.0130803540 0 0
0.0178740870 0.0127219430 0 0
0.0179072680 0.0121810760 0 0
0.0180173530 0.0115272060 0 0
0.0181607960 0.0108388030 0 0
0.0182899810 0.0101916500 0 0
0.0183622900 0.0096494410 0 0
0.0183474930 0.0092589310 0 0
0.0182341960 0.0090488640 0 0
0.0180338030 0.0090300100 0 0
0.0177791240 0.0091942430 0 0
0.0175173800 0.0095130490 0 0
0.0173008850 0.0099378210 0 0
0.0171791380 0.0104034720 0 0
0.0171935850 0.0108345420 0 0
0.0173744060 0.0111524390 0 0
0.0177388250 0.0112835870 0 0
0.0182912340 0.0111680300 0 0
0.0190252830 0.0107669840 0 0
0.0199266660 0.0100679320 0 0
0.0209743130 0.0090865120 0 0
0.0221391710 0.0078654100 0 0
0.0233825200 0.0064712680 0 0
0.0246558970 0.0049907690 0 0
0.0259024640 0.0035263090 0 0
0.0270590590 0.0021901580 0 0
0.0280589590 0.0010954380 0 0
0.0288357310 0.0003441660 0 0
0.0293289040 0.0000144362 0 0
0.0294921280 0.0001487480 0 0
0.0293024020 0.0007458150 0 0
0.0287666280 0.0017588130 0 0
0.0279222960 0.0031013460 0 0
0.0268321330 0.0046589200 0 0
0.0255748950 0.0063020820 0 0
0.0242347590 0.0078986060 0 0
0.0228912810 0.0093246430 0 0
0.0216111530 0.0104755470 0 0
0.0204425380 0.0112758060 0 0
0.0194123900 0.0116864170 0 0
0.0185266810 0.0117087250 0 0
0.0177730500 0.0113846080 0 0
0.0171250330 0.0107922580 0 0
0.0165467460 0.0100361520 0 0
0.0159974960 0.0092322080 0 0
0.0154364930 0.0084921500 0 0
0.0148274970 0.0079107030 0 0
0.0141431370 0.0075566570 0 0
0.0133694530 0.0074675890 0 0
0.0125104450 0.0076481280 0 0
0.0115910780 0.0080720900 0 0
0.0106576920 0.0086883250 0 0
0.0097748100 0.0094287790 0 0
0.0090167360 0.0102169420 0 0
0.0084551600 0.0109758320 0 0
0.0081471350 0.0116354690 0 0
0.0081268960 0.0121391420 0 0
0.0084031620 0.0124471810 0 0
0.0089622290 0.0125379140 0 0
0.0097740720 0.0124068860 0 0
0.0107967880 0.0120658630 0 0
0.0119777920 0.0115424240 0 0
0.0132547070 0.0108798040 0 0
0.0145586360 0.0101360160 0 0
0.0158192110 0.0093818630 0 0
0.0169694990 0.0086976380 0 0
0.0179501980 0.0081677140 0 0
0.0187137080 0.0078719260 0 0
0.0192282260 0.0078739550 0 0
0.0194815850 0.0082095880 0 0
0.0194844390 0.0088792600 0 0
0.0192711060 0.0098475430 0 0
0.0188960870 0.0110485510 0 0
0.0184268860 0.0123943590 0 0
0.0179359500 0.0137843880 0 0
0.0174931550 0.0151153600 0 0
0.0171583480 0.0162916720 0 0
0.0169745510 0.0172351660 0 0
0.0169641700 0.0178927040 0 0
0.0171291930 0.0182400790 0 0
0.0174539650 0.0182816190 0 0
0.0179091250 0.0180462010 0 0
0.0184565330 0.0175815450 0 0
0.0190550540 0.0169483320 0 0
0.0196660640 0.0162143510 0 0
0.0202563520 0.0154479660 0 0
0.0207961870 0.0147112290 0 0
0.0212540070 0.0140546580 0 0
0.0215928800 0.0135153850 0 0
0.0217725110 0.0131178700 0 0
0.0217562240 0.0128746550 0 0
0.0215199450 0.0127853560 0 0
0.0210600240 0.0128341960 0 0
0.0203969940 0.0129879480 0 0
0.0195735940 0.0131959860 0 0
0.0186485940 0.0133931840 0 0
0.0176901500 0.0135056670 0 0
0.0167697780 0.0134591360 0 0
0.0159544600 0.0131893740 0 0
0.0152962600 0.0126540260 0 0
0.0148236020 0.0118432420 0 0
0.0145388310 0.0107857890 0 0
0.0144224720 0.0095487550 0 0
0.0144404320 0.0082312970 0 0
0.0145503800 0.0069536950 0 0
0.0147062850 0.0058428980 0 0
0.0148624150 0.0050164050 0 0
0.0149778560 0.0045669890 0 0
0.0150207910 0.0045506760 0 0
0.0149716180 0.0049798530 0 0
0.0148252570 0.0058223760 0 0
0.0145928240 0.0070059160 0 0
0.0143014430 0.0084258460 0 0
0.0139913130 0.0099558770 0 0
0.0137104970 0.0114610790 0 0
0.0135091420 0.0128114370 0 0
0.0134349610 0.0138935310 0 0
0.0135301310 0.0146194110 0 0
0.0138283690 0.0149331820 0 0
0.0143516280 0.0148158090 0 0
0.0151067060 0.0142876430 0 0
0.0160824170 0.0134072040 0 0
0.0172486510 0.0122652700 0 0
0.0185579860 0.0109749950 0 0
0.0199485550 0.0096601650 0 0
0.0213468920 0.0084436180 0 0
0.0226713840 0.0074369980 0 0
0.0238376450 0.0067325320 0 0
0.0247662490 0.0063970140 0 0
0.0253923090 0.0064672170 0 0
0.0256750990 0.0069460750 0 0
0.0256050030 0.0078004290 0 0
0.0252054770 0.0089615630 0 0
0.0245294450 0.0103288490 0 0
0.0236513880 0.0117768250 0 0
0.0226576310 0.0131664870 0 0
0.0216373580 0.0143600830 0 0
0.0206753420 0.0152367920 0 0
0.0198456750 0.0157066230 0 0
0.0192058630 0.0157206200 0 0
0.0187920220 0.0152759690 0 0
0.0186162960 0.0144155620 0 0
0.0186663780 0.0132226310 0 0
0.0189064390 0.0118118290 0 0
0.0192801890 0.0103181540 0 0
0.0197178600 0.0088844690 0 0
0.0201472310 0.0076480670 0 0
0.0205054390 0.0067272140 0 0
0.0207467460 0.0062093720 0 0
0.0208442930 0.0061431290 0 0
0.0207879360 0.0065347780 0 0
0.0205807820 0.0073488160 0 0
0.0202357070 0.0085111740 0 0
0.0197730650 0.0099150840 0 0
0.0192208170 0.0114305070 0 0
0.0186169560 0.0129172070 0 0
0.0180114930 0.0142392700 0 0
0.0174638660 0.0152781210 0 0
0.0170348840 0.0159425040 0 0
0.0167773930 0.0161753800 0 0
0.0167302150 0.0159581960 0 0
0.0169160170 0.0153128510 0 0
0.0173405500 0.0143009510 0 0
0.0179911810 0.0130193840 0 0
0.0188355190 0.0115918270 0 0
0.0198223420 0.0101566990 0 0
0.0208857010 0.0088528560 0 0
0.0219511060 0.0078052730 0 0
0.0229425390 0.0071133810 0 0
0.0237903800 0.0068431740 0 0
0.0244403880 0.0070219900 0 0
0.0248619140 0.0076346370 0 0
0.0250521520 0.0086222030 0 0
0.0250349960 0.0098868100 0 0
0.0248557030 0.0113032920 0 0
0.0245726050 0.0127348670 0 0
0.0242465510 0.0140487910 0 0
0.0239297940 0.0151299080 0 0
0.0236576010 0.0158914690 0 0
0.0234453590 0.0162823380 0 0
0.0232909390 0.0162898820 0 0
0.0231792900 0.0159389680 0 0
0.0230864020 0.0152884820 0 0
0.0229817270 0.0144262460 0 0
0.0228300700 0.0134620210 0 0
0.0225947470 0.0125175920 0 0
0.0222433030 0.0117137570 0 0
0.0217547740 0.0111558320 0 0
0.0211246960 0.0109205340 0 0
0.0203650360 0.0110471710 0 0
0.0195005180 0.0115351270 0 0
0.0185644850 0.0123473660 0 0
0.0175955080 0.0134174030 0 0
0.0166347340 0.0146568290 0 0
0.0157243160 0.0159619460 0 0
0.0149066820 0.0172197250 0 0
0.0142230600 0.0183140170 0 0
0.0137098020 0.0191325710 0 0
0.0133934180 0.0195754720 0 0
0.0132874400 0.0195658190 0 0
0.0133930580 0.0190620250 0 0
0.0137020940 0.0180687480 0 0
0.0141988830 0.0166425960 0 0
0.0148592050 0.0148897250 0 0
0.0156482790 0.0129546700 0 0
0.0165210170 0.0110023990 0 0
0.0174241120 0.0091972320 0 0
0.0182981800 0.0076825900 0 0
0.0190814800 0.0065649030 0 0
0.0197172680 0.0059039910 0 0
0.0201632920 0.0057106710 0 0
0.0203993800 0.0059505190 0 0
0.0204295050 0.0065515320 0 0
0.0202782240 0.0074139270 0 0
0.0199856980 0.0084210920 0 0
0.0196044100 0.0094508880 0 0
0.0191955350 0.0103868210 0 0
0.0188220550 0.0111288620 0 0
0.0185392200 0.0116030450 0 0
0.0183853110 0.0117687620 0 0
0.0183757770 0.0116234150 0 0
0.0185022540 0.0112034750 0 0
0.0187356460 0.0105797880 0 0
0.0190309420 0.0098462450 0 0
0.0193322780 0.0091043000 0 0
0.0195789520 0.0084478720 0 0
0.0197135920 0.0079526350 0 0
0.0196913810 0.0076716610 0 0
0.0194866680 0.0076368660 0 0
0.0190945700 0.0078633790 0 0
0.0185294870 0.0083527600 0 0
0.0178239080 0.0090920860 0 0
0.0170274110 0.0100494330 0 0
0.0162031600 0.0111697320 0 0
0.0154213960 0.0123747940 0 0
0.0147519610 0.0135681070 0 0
0.0142567420 0.0146430630 0 0
0.0139816730 0.0154937210 0 0
0.0139497670 0.0160274030 0 0
0.0141579970 0.0161773710 0 0
0.0145786560 0.0159129400 0 0
0.0151635760 0.0152447930 0 0
0.0158497930 0.0142246800 0 0
0.0165662210 0.0129399430 0 0
0.0172410250 0.0115038170 0 0
0.0178093920 0.0100431430 0 0
0.0182214410 0.0086856070 0 0
0.0184487830 0.0075478120 0 0
0.0184868850 0.0067245580 0 0
0.0183519540 0.0062794920 0 0
0.0180737750 0.0062371980 0 0
0.0176869710 0.0065780780 0 0
0.0172237060 0.0072388740 0 0
0.0167114490 0.0081203980 0 0
0.0161773170 0.0091007660 0 0
0.0156557730 0.0100506650 0 0
0.0151933780 0.0108477930 0 0
0.0148458500 0.0113889010 0 0
0.0146680550 0.0115986410 0 0
0.0147019810 0.0114348270 0 0
0.0149674530 0.0108904110 0 0
0.0154576300 0.0099932070 0 0
0.0161400340 0.0088039920 0 0
0.0169622490 0.0074126220 0 0
0.0178589440 0.0059317380 0 0
0.0187574310 0.0044885260 0 0
0.0195821280 0.0032152580 0 0
0.0202600750 0.0022382550 0 0
0.0207286170 0.0016647180 0 0
0.0209437220 0.0015687090 0 0
0.0208855590 0.0019797750 0 0
0.0205598570 0.0028768470 0 0
0.0199963530 0.0041874850 0 0
0.0192453310 0.0057924410 0 0
0.0183722430 0.0075373200 0 0
0.0174515310 0.0092517250 0 0
0.0165616440 0.0107722710 0 0
0.0157807270 0.0119639790 0 0
0.0151799450 0.0127352090 0 0
0.0148136790 0.0130432640 0 0
0.0147108610 0.0128916430 0 0
0.0148722410 0.0123229630 0 0
0.0152734960 0.0114106570 0 0
0.0158707630 0.0102504280 0 0
0.0166065910 0.0089519900 0 0
0.0174169960 0.0076314100 0 0
0.0182402460 0.0064036910 0 0
0.0190250070 0.0053751260 0 0
0.0197336090 0.0046355540 0 0
0.0203389910 0.0042513310 0 0
0.0208187910 0.0042598820 0 0
0.0211509620 0.0046657670 0 0
0.0213122160 0.0054379240 0 0
0.0212778650 0.0065092890 0 0
0.0210221480 0.0077807200 0 0
0.0205197040 0.0091292480 0 0
0.0197487800 0.0104187170 0 0
0.0186959260 0.0115111470 0 0
0.0173608920 0.0122782510 0 0
0.0157587440 0.0126127910 0 0
0.0139165420 0.0124391120 0 0
0.0118655900 0.0117221280 0 0
0.0096331880 0.0104732160 0 0
0.0072373480 0.0087509320 0 0
0.0046858150 0.0066558400 0 0
0.0019778050 0.0043202940 0 0
-0.0008948220 0.0018937240 0 0
-0.0039471800 -0.0004761080 0 0
-0.0071980000 -0.0026630840 0 0
-0.0106615240 -0.0045792040 0 0
-0.0143381340 -0.0061839650 0 0
-0.0182090610 -0.0074856660 0 0
-0.0222378500 -0.0085358600 0 0
-0.0263765080 -0.0094194750 0 0
-0.0305710640 -0.0102434710 -1 0
-0.0347629840 -0.0111260560 -1 0
-0.0388878420 -0.0121868460 -1 0
-0.0428761000 -0.0135367640 -1 0
-0.0466599030 -0.0152664380 -1 0
-0.0501851950 -0.0174340660 -1 0
-0.0534240330 -0.0200562280 -1 0
-0.0563814280 -0.0231046910 -1 0
-0.0590945410 -0.0265093450 -1 0
-0.0616259010 -0.0301654070 -1 -1
-0.0640535360 -0.0339432540 -1 -1
-0.0664600680 -0.0377003130 -1 -1
-0.0689225850 -0.0412953750 -1 -1
-0.0715054580 -0.0446046830 -1 -1
-0.0742569710 -0.0475362930 -1 -1
-0.0772080180 -0.0500386940 -1 -1
-0.0803709480 -0.0521030590 -1 -1
-0.0837386440 -0.0537613840 -1 -1
-0.0872843770 -0.0550821270 -1 -1
-0.0909623250 -0.0561633880 -1 -1
-0.0947094740 -0.0571233810 -1 -1
-0.0984503110 -0.0580882460 -1 -1
-0.1021042520 -0.0591778580 -1 -1
-0.1055940560 -0.0604914390 -1 -1
-0.1088533960 -0.0620958720 -1 -1
-0.1118318110 -0.0640196820 -1 -1
-0.1144955170 -0.0662537210 -1 -1
-0.1168246450 -0.0687571240 -1 -1
-0.1188101980 -0.0714658770 -1 -1
-0.1204539890 -0.0743013270 -1 -1
-0.1217711930 -0.0771770790 -1 -1
-0.1227922750 -0.0800044260 -1 -1
-0.1235620520 -0.0826974050 -1 -1
-0.1241358580 -0.0851779950 -1 -1
-0.1245736380 -0.0873809160 -1 -1
-0.1249330550 -0.0892570820 -1 -1
-0.1252623560 -0.0907756960 -1 -1
-0.1255936170 -0.0919263210 -1 -1
-0.1259379990 -0.0927217850 -1 -1
-0.1262854660 -0.0932004530 -1 -1
-0.1266100420 -0.0934257000 -1 -1
-0.1268782640 -0.0934818830 -1 -1
-0.1270561870 -0.0934667130 -1 -1
-0.1271120020 -0.0934801410 -1 -1
-0.1270157140 -0.0936113470 -1 -1
-0.1267396440 -0.0939266770 -1 -1
-0.1262617900 -0.0944606080 -1 -1
-0.1255714430 -0.0952108650 -1 -1
-0.1246750710 -0.0961380320 -1 -1
-0.1236002380 -0.0971691880 -1 -1
-0.1223963390 -0.0982051470 -1 -1
-0.1211323620 -0.0991312380 -1 -1
-0.1198922660 -0.0998306210 -1 -1
-0.1187678580 -0.1001979940 -1 -1
-0.1178488870 -0.1001521920 -1 -1
-0.1172114700 -0.0996470520 -1 -1
-0.1169075050 -0.0986789620 -1 -1
-0.1169577120 -0.0972890970 -1 -1
-0.1173500470 -0.0955606750 -1 -1
-0.1180439350 -0.0936131090 -1 -1
-0.1189787700 -0.0915928630 -1 -1
-0.1200835480 -0.0896595880 -1 -1
-0.1212848340 -0.0879688390 -1 -1
-0.1225122880 -0.0866547730 -1 -1
-0.1237027540 -0.0858152320 -1 -1
-0.1248035360 -0.0855006240 -1 -1
-0.1257740860 -0.0857087880 -1 -1
-0.1265856360 -0.0863873900 -1 -1
-0.1272204780 -0.0874423600 -1 -1
-0.1276733380 -0.0887488560 -1 -1
-0.1279538620 -0.0901624380 -1 -1
-0.1280862350 -0.0915309180 -1 -1
-0.1281048410 -0.0927082080 -1 -1
-0.1280494420 -0.0935693470 -1 -1
-0.1279625340 -0.0940234930 -1 -1
-0.1278876030 -0.0940225700 -1 -1
-0.1278662430 -0.0935651210 -1 -1
-0.1279341500 -0.0926950230 -1 -1
-0.1281168130 -0.0914949740 -1 -1
-0.1284255960 -0.0900765360 -1 -1
-0.1288551420 -0.0885688530 -1 -1
-0.1293831530 -0.0871066170 -1 -1
-0.1299728760 -0.0858170790 -1 -1
-0.1305779250 -0.0848069960 -1 -1
-0.1311490240 -0.0841516760 -1 -1
-0.1316419400 -0.0838881010 -1 -1
-0.1320246150 -0.0840127070 -1 -1
-0.1322811300 -0.0844829290 -1 -1
-0.1324120800 -0.0852209500 -1 -1
-0.1324325490 -0.0861191200 -1 -1
-0.1323689060 -0.0870484350 -1 -1
-0.1322554510 -0.0878714940 -1 -1
-0.1321314960 -0.0884586200 -1 -1
-0.1320382730 -0.0887032780 -1 -1
-0.1320143780 -0.0885337920 -1 -1
-0.1320891180 -0.0879203800 -1 -1
-0.1322750870 -0.0868772060 -1 -1
-0.1325634610 -0.0854598930 -1 -1
-0.1329250550 -0.0837593470 -1 -1
-0.1333159170 -0.0818924320 -1 -1
-0.1336834860 -0.0799903770 -1 -1
-0.1339719680 -0.0781860620 -1 -1
-0.1341284170 -0.0766009380 -1 -1
-0.1341096870 -0.0753328470 -1 -1
-0.1338888660 -0.0744468220 -1 -1
-0.1334605890 -0.0739695130 -1 -1
-0.1328441050 -0.0738865190 -1 -1
-0.1320821350 -0.0741430140 -1 -1
-0.1312351200 -0.0746487230 -1 -1
-0.1303722440 -0.0752870730 -1 -1
-0.1295611510 -0.0759277150 -1 -1
-0.1288588590 -0.0764412000 -1 -1
-0.1283061460 -0.0767132960 -1 -1
-0.1279262490 -0.0766562180 -1 -1
-0.1277270510 -0.0762162100 -1 -1
-0.1277051560 -0.0753784320 -1 -1
-0.1278497500 -0.0741691130 -1 -1
-0.1281437500 -0.0726539510 -1 -1
-0.1285622420 -0.0709328580 -1 -1
-0.1290717760 -0.0691314200 -1 -1
-0.1296327810 -0.0673885930 -1 -1
-0.1302036080 -0.0658414420 -1 -1
-0.1307438490 -0.0646103140 -1 -1
-0.1312154010 -0.0637878730 -1 -1
-0.1315806920 -0.0634328280 -1 -1
-0.1318005020 -0.0635666630 -1 -1
-0.1318362370 -0.0641715260 -1 -1
-0.1316580850 -0.0651897430 -1 -1
-0.1312543170 -0.0665272980 -1 -1
-0.1306366560 -0.0680621800 -1 -1
-0.1298407170 -0.0696557000 -1 -1
-0.1289225970 -0.0711643540 -1 -1
-0.1279526540 -0.0724513560 -1 -1
-0.1270074720 -0.0733980100 -1 -1
-0.1261606070 -0.0739147430 -1 -1
-0.1254732090 -0.0739510100 -1 -1
-0.1249869530 -0.0735021050 -1 -1
-0.1247207630 -0.0726101860 -1 -1
-0.1246706450 -0.0713587980 -1 -1
-0.1248119240 -0.0698629270 -1 -1
-0.1251029970 -0.0682563380 -1 -1
-0.1254889450 -0.0666770570 -1 -1
-0.1259048150 -0.0652530070 -1 -1
-0.1262805940 -0.0640906840 -1 -1
-0.1265493920 -0.0632681660 -1 -1
-0.1266574160 -0.0628319020 -1 -1
-0.1265724120 -0.0627958680 -1 -1
-0.1262880390 -0.0631410690 -1 -1
-0.1258237310 -0.0638146140 -1 -1
-0.1252210120 -0.0647310960 -1 -1
-0.1245378560 -0.0657801900 -1 -1
-0.1238421850 -0.0668407480 -1 -1
-0.1232045690 -0.0677971490 -1 -1
-0.1226907110 -0.0685528130 -1 -1
-0.1223550820 -0.0690385850 -1 -1
-0.1222360970 -0.0692166700 -1 -1
-0.1223525500 -0.0690814280 -1 -1
-0.1227015480 -0.0686578520 -1 -1
-0.1232579670 -0.0679986250 -1 -1
-0.1239759570 -0.0671801270 -1 -1
-0.1247942990 -0.0662965670 -1 -1
-0.1256451730 -0.0654514410 -1 -1
-0.1264620720 -0.0647468880 -1 -1
-0.1271834790 -0.0642724630 -1 -1
-0.1277544300 -0.0640950510 -1 -1
-0.1281306230 -0.0642518290 -1 -1
-0.1282853900 -0.0647478540 -1 -1
-0.1282150540 -0.0655580500 -1 -1
-0.1279393990 -0.0666312630 -1 -1
-0.1274981580 -0.0678940800 -1 -1
-0.1269457440 -0.0692544600 -1 -1
-0.1263452360 -0.0706068580 -1 -1
-0.1257624280 -0.0718398500 -1 -1
-0.1252611830 -0.0728454950 -1 -1
-0.1248996740 -0.0735291270 -1 -1
-0.1247255230 -0.0738190090 -1 -1
-0.1247696220 -0.0736754740 -1 -1
-0.1250403160 -0.0730981020 -1 -1
-0.1255199030 -0.0721284380 -1 -1
-0.1261662410 -0.0708466160 -1 -1
-0.1269204350 -0.0693624160 -1 -1
-0.1277167450 -0.0678032790 -1 -1
-0.1284902880 -0.0663017680 -1 -1
-0.1291821120 -0.0649833430 -1 -1
-0.1297419510 -0.0639544670 -1 -1
-0.1301278970 -0.0632918740 -1 -1
-0.1303048250 -0.0630345440 -1 -1
-0.1302470180 -0.0631789750 -1 -1
-0.1299475740 -0.0636770880 -1 -1
-0.1294293030 -0.0644375930 -1 -1
-0.1287485990 -0.0653337910 -1 -1
-0.1279888030 -0.0662193480 -1 -1
-0.1272461720 -0.0669491850 -1 -1
-0.1266133860 -0.0674000650 -1 -1
-0.1261638990 -0.0674864230 -1 -1
-0.1259397250 -0.0671696620 -1 -1
-0.1259459720 -0.0664609970 -1 -1
-0.1261550370 -0.0654186400 -1 -1
-0.1265190220 -0.0641403870 -1 -1
-0.1269836060 -0.0627526070 -1 -1
-0.1274965160 -0.0613966810 -1 -1
-0.1280094770 -0.0602141220 -1 -1
-0.1284771170 -0.0593318620 -1 -1
-0.1288561580 -0.0588493190 -1 -1
-0.1291056620 -0.0588286010 -1 -1
-0.1291881520 -0.0592887780 -1 -1
-0.1290723580 -0.0602043660 -1 -1
-0.1287386640 -0.0615075530 -1 -1
-0.1281863660 -0.0630939660 -1 -1
-0.1274391650 -0.0648320030 -1 -1
-0.1265451810 -0.0665753610 -1 -1
-0.1255702940 -0.0681777910 -1 -1
-0.1245866340 -0.0695080050 -1 -1
-0.1236599950 -0.0704617950 -1 -1
-0.1228405090 -0.0709698880 -1 -1
-0.1221592170 -0.0710020240 -1 -1
-0.1216298360 -0.0705676840 -1 -1
-0.1212526190 -0.0697139260 -1 -1
-0.1210169490 -0.0685220060 -1 -1
-0.1209017430 -0.0671032680 -1 -1
-0.1208759320 -0.0655916600 -1 -1
-0.1209017030 -0.0641302730 -1 -1
-0.1209403380 -0.0628537390 -1 -1
-0.1209576940 -0.0618717320 -1 -1
-0.1209266670 -0.0612577890 -1 -1
-0.1208278360 -0.0610445650 -1 -1
-0.1206515970 -0.0612244420 -1 -1
-0.1204022390 -0.0617535850 -1 -1
-0.1201005960 -0.0625576710 -1 -1
-0.1197820590 -0.0635382340 -1 -1
-0.1194898380 -0.0645797110 -1 -1
-0.1192662750 -0.0655583790 -1 -1
-0.1191462160 -0.0663539910 -1 -1
-0.1191550810 -0.0668626520 -1 -1
-0.1193098460 -0.0670084210 -1 -1
-0.1196187610 -0.0667524000 -1 -1
-0.1200788280 -0.0660986000 -1 -1
-0.1206734810 -0.0650948660 -1 -1
-0.1213728990 -0.0638280920 -1 -1
-0.1221373460 -0.0624149690 -1 -1
-0.1229218430 -0.0609894960 -1 -1
-0.1236803690 -0.0596881220 -1 -1
-0.1243691700 -0.0586352930 -1 -1
-0.1249491170 -0.0579331050 -1 -1
-0.1253871130 -0.0576560400 -1 -1
-0.1256573710 -0.0578481570 -1 -1
-0.1257436750 -0.0585198620 -1 -1
-0.1256426120 -0.0596443060 -1 -1
-0.1253664170 -0.0611554900 -1 -1
-0.1249438050 -0.0629495470 -1 -1
-0.1244181690 -0.0648902380 -1 -1
-0.1238435070 -0.0668195420 -1 -1
-0.1232791430 -0.0685729030 -1 -1
-0.1227844950 -0.0699969220 -1 -1
-0.1224139900 -0.0709663340 -1 -1
-0.1222111910 -0.0713972280 -1 -1
-0.1222021940 -0.0712549770 -1 -1
-0.1223907850 -0.0705570340 -1 -1
-0.1227584790 -0.0693710250 -1 -1
-0.1232695360 -0.0678084350 -1 -1
-0.1238775310 -0.0660148070 -1 -1
-0.1245300490 -0.0641576300 -1 -1
-0.1251708270 -0.0624121740 -1 -1
-0.1257416810 -0.0609445980 -1 -1
-0.1261871390 -0.0598922570 -1 -1
-0.1264614870 -0.0593441550 -1 -1
-0.1265351540 -0.0593270760 -1 -1
-0.1263984380 -0.0598017780 -1 -1
-0.1260623170 -0.0606701750 -1 -1
-0.1255561890 -0.0617919290 -1 -1
-0.1249225320 -0.0630066430 -1 -1
-0.1242095150 -0.0641561760 -1 -1
-0.1234635800 -0.0651024820 -1 -1
-0.1227247310 -0.0657391860 -1 -1
-0.1220260850 -0.0659978190 -1 -1
-0.1213957750 -0.0658502930 -1 -1
-0.1208573480 -0.0653081810 -1 -1
-0.1204279700 -0.0644188410 -1 -1
-0.1201168540 -0.0632591530 -1 -1
-0.1199252150 -0.0619279210 -1 -1
-0.1198473520 -0.0605375920 -1 -1
-0.1198729430 -0.0592055490 -1 -1
-0.1199904490 -0.0580451060 -1 -1
-0.1201899190 -0.0571565420 -1 -1
-0.1204628290 -0.0566183840 -1 -1
-0.1207984840 -0.0564790840 -1 -1
-0.1211799310 -0.0567500930 -1 -1
-0.1215831300 -0.0574019470 -1 -1
-0.1219799560 -0.0583646900 -1 -1
-0.1223425420 -0.0595335600 -1 -1
-0.1226469560 -0.0607798990 -1 -1
-0.1228761400 -0.0619657330 -1 -1
-0.1230221220 -0.0629597020 -1 -1
-0.1230869750 -0.0636518750 -1 -1
-0.1230829040 -0.0639650980 -1 -1
-0.1230310400 -0.0638614440 -1 -1
-0.1229565250 -0.0633434150 -1 -1
-0.1228798690 -0.0624511100 -1 -1
-0.1228095730 -0.0612578120 -1 -1
-0.1227410130 -0.0598650630 -1 -1
-0.1226612140 -0.0583953040 -1 -1
-0.1225550840 -0.0569803040 -1 -1
-0.1224092700 -0.0557471520 -1 -1
-0.1222126000 -0.0548058760 -1 -1
-0.1219544910 -0.0542408620 -1 -1
-0.1216238750 -0.0541050600 -1 -1
-0.1212105950 -0.0544153940 -1 -1
-0.1207096240 -0.0551495510 -1 -1
-0.1201265840 -0.0562454170 -1 -1
-0.1194819220 -0.0576043270 -1 -1
-0.1188117490 -0.0590990060 -1 -1
-0.1181651390 -0.0605861550 -1 -1
-0.1175982400 -0.0619221640 -1 -1
-0.1171655850 -0.0629793950 -1 -1
-0.1169103730 -0.0636605300 -1 -1
-0.1168571210 -0.0639088080 -1 -1
-0.1170087410 -0.0637126680 -1 -1
-0.1173472060 -0.0631051460 -1 -1
-0.1178368750 -0.0621599010 -1 -1
-0.1184304890 -0.0609852950 -1 -1
-0.1190759280 -0.0597162140 -1 -1
-0.1197202380 -0.0585025200 -1 -1
-0.1203102790 -0.0574940250 -1 -1
-0.1207927770 -0.0568234040 -1 -1
-0.1211164830 -0.0565898700 -1 -1
-0.1212370360 -0.0568474080 -1 -1
-0.1211241880 -0.0576001320 -1 -1
-0.1207698240 -0.0588038600 -1 -1
-0.1201930810 -0.0603718090 -1 -1
-0.1194395890 -0.0621840640 -1 -1
-0.1185756560 -0.0641006940 -1 -1
-0.1176798070 -0.0659761630 -1 -1
-0.1168330080 -0.0676721280 -1 -1
-0.1161087610 -0.0690675920 -1 -1
-0.1155652220 -0.0700667470 -1 -1
-0.1152408720 -0.0706050980 -1 -1
-0.1151535780 -0.0706546790 -1 -1
-0.1153025990 -0.0702281970 -1 -1
-0.1156732050 -0.0693804430 -1 -1
-0.1162419070 -0.0682050530 -1 -1
-0.1169793470 -0.0668258780 -1 -1
-0.1178502080 -0.0653839330 -1 -1
-0.1188119610 -0.0640221270 -1 -1
-0.1198141920 -0.0628701630 -1 -1
-0.1207996940 -0.0620316920 -1 -1
-0.1217082150 -0.0615753690 -1 -1
-0.1224826230 -0.0615304840 -1 -1
-0.1230763230 -0.0618868110 -1 -1
-0.1234607310 -0.0625973560 -1 -1
-0.1236310840 -0.0635825390 -1 -1
-0.1236083880 -0.0647354040 -1 -1
-0.1234356830 -0.0659285480 -1 -1
-0.1231683180 -0.0670236680 -1 -1
-0.1228607470 -0.0678843780 -1 -1
-0.1225547270 -0.0683918600 -1 -1
-0.1222736500 -0.0684609930 -1 -1
-0.1220241080 -0.0680534690 -1 -1
-0.1218015740 -0.0671847480 -1 -1
-0.1215963890 -0.0659231490 -1 -1
-0.1213982430 -0.0643813180 -1 -1
-0.1211981540 -0.0627019390 -1 -1
-0.1209869290 -0.0610403890 -1 -1
-0.1207503850 -0.0595474360 -1 -1
-0.1204646050 -0.0583547590 -1 -1
-0.1200957500 -0.0575646650 -1 -1
-0.1196060100 -0.0572431840 -1 -1
-0.1189635280 -0.0574145260 -1 -1
-0.1181529630 -0.0580567080 -1 -1
-0.1171831500 -0.0591012680 -1 -1
-0.1160890980 -0.0604396290 -1 -1
-0.1149289350 -0.0619350700 -1 -1
-0.1137784790 -0.0634373040 -1 -1
-0.1127237670 -0.0647977340 -1 -1
-0.1118498490 -0.0658840890 -1 -1
-0.1112270930 -0.0665925390 -1 -1
-0.1108997250 -0.0668562360 -1 -1
-0.1108802430 -0.0666506690 -1 -1
-0.1111499980 -0.0659959080 -1 -1
-0.1116645230 -0.0649547340 -1 -1
-0.1123616420 -0.0636265150 -1 -1
-0.1131698180 -0.0621381640 -1 -1
-0.1140142780 -0.0606326310 -1 -1
-0.1148203880 -0.0592547840 -1 -1
-0.1155165660 -0.0581371760 -1 -1
-0.1160391310 -0.0573890380 -1 -1
-0.1163384840 -0.0570885780 -1 -1
-0.1163840720 -0.0572773100 -1 -1
-0.1161666370 -0.0579568430 -1 -1
-0.1156978700 -0.0590886080 -1 -1
-0.1150088450 -0.0605958250 -1 -1
-0.1141490080 -0.0623678640 -1 -1
-0.1131850900 -0.0642684260 -1 -1
-0.1121965680 -0.0661475170 -1 -1
-0.1112663280 -0.0678550320 -1 -1
-0.1104693890 -0.0692542300 -1 -1
-0.1098627570 -0.0702346820 -1 -1
-0.1094770240 -0.0707236750 -1 -1
-0.1093103190 -0.0706944450 -1 -1
-0.1093272280 -0.0701702470 -1 -1
-0.1094649530 -0.0692231450 -1 -1
-0.1096455420 -0.0679659250 -1 -1
-0.1097904780 -0.0665369510 -1 -1
-0.1098339180 -0.0650808400 -1 -1
-0.1097313010 -0.0637295400 -1 -1
-0.1094616790 -0.0625876370 -1 -1
-0.1090263130 -0.0617237100 -1 -1
-0.1084479010 -0.0611678660 -1 -1
-0.1077708630 -0.0609148810 -1 -1
-0.1070596560 -0.0609311460 -1 -1
-0.1063933780 -0.0611619790 -1 -1
-0.1058571080 -0.0615371020 -1 -1
-0.1055308540 -0.0619757440 -1 -1
-0.1054777540 -0.0623936070 -1 -1
-0.1057347050 -0.0627112290 -1 -1
-0.1063081460 -0.0628619400 -1 -1
-0.1071755090 -0.0627987180 -1 -1
-0.1082913230 -0.0625001390 -1 -1
-0.1095955550 -0.0619752140 -1 -1
-0.1110208260 -0.0612659760 -1 -1
-0.1124969150 -0.0604456660 -1 -1
-0.1139536850 -0.0596107760 -1 -1
-0.1153232860 -0.0588676900 -1 -1
-0.1165409970 -0.0583175090 -1 -1
-0.1175454410 -0.0580433540 -1 -1
-0.1182810280 -0.0581023700 -1 -1
-0.1187038550 -0.0585215530 -1 -1
-0.1187892390 -0.0592952540 -1 -1
-0.1185381820 -0.0603835550 -1 -1
-0.1179806300 -0.0617129570 -1 -1
-0.1171739050 -0.0631812300 -1 -1
-0.1161962720 -0.0646661730 -1 -1
-0.1151382870 -0.0660359910 -1 -1
-0.1140956080 -0.0671596570 -1 -1
-0.1131640890 -0.0679170330 -1 -1
-0.1124340660 -0.0682091640 -1 -1
-0.1119814640 -0.0679691990 -1 -1
-0.1118580680 -0.0671733640 -1 -1
-0.1120853460 -0.0658497080 -1 -1
-0.1126530620 -0.0640815230 -1 -1
-0.1135208140 -0.0620032460 -1 -1
-0.1146214990 -0.0597885120 -1 -1
-0.1158675310 -0.0576321160 -1 -1
-0.1171596610 -0.0557287530 -1 -1
-0.1183966100 -0.0542516700 -1 -1
-0.1194839860 -0.0533343640 -1 -1
-0.1203421090 -0.0530577590 -1 -1
-0.1209126700 -0.0534438550 -1 -1
-0.1211634760 -0.0544554630 -1 -1
-0.1210902750 -0.0560014580 -1 -1
-0.1207158620 -0.0579466850 -1 -1
-0.1200874160 -0.0601250030 -1 -1
-0.1192721560 -0.0623539930 -1 -1
-0.1183512250 -0.0644502660 -1 -1
-0.1174122860 -0.0662442610 -1 -1
-0.1165410640 -0.0675936930 -1 -1
-0.1158113740 -0.0683951190 -1 -1
-0.1152745870 -0.0685925470 -1 -1
-0.1149514370 -0.0681817830 -1 -1
-0.1148285940 -0.0672099680 -1 -1
-0.1148605180 -0.0657708900 -1 -1
-0.1149762800 -0.0639968670 -1 -1
-0.1150904600 -0.0620471970 -1 -1
-0.1151157540 -0.0600930230 -1 -1
-0.1149742340 -0.0582998110 -1 -1
-0.1146057710 -0.0568096190 -1 -1
-0.1139745730 -0.0557260650 -1 -1
-0.1130744800 -0.0551054230 -1 -1
-0.1119307440 -0.0549557330 -1 -1
-0.1105966510 -0.0552423830 -1 -1
-0.1091470930 -0.0558965300 -1 -1
-0.1076712480 -0.0568232240 -1 -1
-0.1062636520 -0.0579083880 -1 -1
-0.1050133190 -0.0590263220 -1 -1
-0.1039934880 -0.0600496070 -1 -1
-0.1032551040 -0.0608611770 -1 -1
-0.1028249660 -0.0613667160 -1 -1
-0.1027074480 -0.0615052790 -1 -1
-0.1028878630 -0.0612558040 -1 -1
-0.1033350140 -0.0606379740 -1 -1
-0.1040021870 -0.0597080360 -1 -1
-0.1048290130 -0.0585520830 -1 -1
-0.1057465140 -0.0572786730 -1 -1
-0.1066843740 -0.0560100780 -1 -1
-0.1075781560 -0.0548702970 -1 -1
-0.1083748470 -0.0539704800 -1 -1
-0.1090354050 -0.0533958480 -1 -1
-0.1095344220 -0.0531977200 -1 -1
-0.1098593480 -0.0533906450 -1 -1
-0.1100108430 -0.0539526370 -1 -1
-0.1100035530 -0.0548269240 -1 -1
-0.1098662230 -0.0559249500 -1 -1
-0.1096401610 -0.0571317650 -1 -1
-0.1093748710 -0.0583151030 -1 -1
-0.1091213670 -0.0593382830 -1 -1
-0.1089250290 -0.0600758190 -1 -1
-0.1088190510 -0.0604294480 -1 -1
-0.1088193990 -0.0603413160 -1 -1
-0.1089232100 -0.0598017040 -1 -1
-0.1091115790 -0.0588506250 -1 -1
-0.1093551520 -0.0575741190 -1 -1
-0.1096195150 -0.0560966520 -1 -1
-0.1098679490 -0.0545706110 -1 -1
-0.1100617430 -0.0531627480 -1 -1
-0.1101612730 -0.0520368070 -1 -1
-0.1101306510 -0.0513331320 -1 -1
-0.1099449350 -0.0511489000 -1 -1
-0.1095964550 -0.0515238060 -1 -1
-0.1090977350 -0.0524342840 -1 -1
-0.1084801300 -0.0537966240 -1 -1
-0.1077885450 -0.0554773820 -1 -1
-0.1070742530 -0.0573089520 -1 -1
-0.1063880800 -0.0591085040 -1 -1
-0.1057747390 -0.0606983650 -1 -1
-0.1052685270 -0.0619250030 -1 -1
-0.1048914080 -0.0626742230 -1 -1
-0.1046541970 -0.0628816700 -1 -1
-0.1045597000 -0.0625379390 -1 -1
-0.1046050310 -0.0616870780 -1 -1
-0.1047811670 -0.0604187090 -1 -1
-0.1050706990 -0.0588562690 -1 -1
-0.1054468300 -0.0571438330 -1 -1
-0.1058755780 -0.0554319990 -1 -1
-0.1063200300 -0.0538627630 -1 -1
-0.1067442720 -0.0525552040 -1 -1
-0.1071159800 -0.0515950610 -1 -1
-0.1074079200 -0.0510301270 -1 -1
-0.1075989540 -0.0508709760 -1 -1
-0.1076749890 -0.0510947460 -1 -1
-0.1076302800 -0.0516497870 -1 -1
-0.1074689670 -0.0524603460 -1 -1
-0.1072055180 -0.0534314150 -1 -1
-0.1068628120 -0.0544538660 -1 -1
-0.1064687020 -0.0554104150 -1 -1
-0.1060528890 -0.0561839670 -1 -1
-0.1056452540 -0.0566694700 -1 -1
-0.1052756750 -0.0567874410 -1 -1
-0.1049735940 -0.0564952720 -1 -1
-0.1047643490 -0.0557936890 -1 -1
-0.1046615710 -0.0547279920 -1 -1
-0.1046595610 -0.0533846980 -1 -1
-0.1047311010 -0.0518839480 -1 -1
-0.1048314860 -0.0503676950 -1 -1
-0.1049046990 -0.0489845060 -1 -1
-0.1048900610 -0.0478730300 -1 -1
-0.1047310430 -0.0471458740 -1 -1
-0.1043852410 -0.0468752140 -1 -1
-0.1038327180 -0.0470827220 -1 -1
-0.1030822380 -0.0477367980 -1 -1
-0.1021742990 -0.0487576980 -1 -1
-0.1011780860 -0.0500285990 -1 -1
-0.1001824760 -0.0514101520 -1 -1
-0.0992846080 -0.0527563680 -1 -1
-0.0985778910 -0.0539296450 -1 -1
-0.0981397760 -0.0548127400 -1 -1
-0.0980218860 -0.0553165430 -1 -1
-0.0982457660 -0.0553844030 -1 -1
-0.0988037410 -0.0549952940 -1 -1
-0.0996617570 -0.0541672170 -1 -1
-0.1007623710 -0.0529589970 -1 -1
-0.1020283170 -0.0514672400 -1 -1
-0.1033678590 -0.0498178810 -1 -1
-0.1046822870 -0.0481548000 -1 -1
-0.1058747330 -0.0466277720 -1 -1
-0.1068592670 -0.0453801290 -1 -1
-0.1075688000 -0.0445358240 -1 -1
-0.1079596070 -0.0441866070 -1 -1
-0.1080116400 -0.0443811410 -1 -1
-0.1077268210 -0.0451177600 -1 -1
-0.1071276540 -0.0463418770 -1 -1
-0.1062558820 -0.0479489980 -1 -1
-0.1051699170 -0.0497940880 -1 -1
-0.1039406530 -0.0517064860 -1 -1
-0.1026458180 -0.0535079550 -1 -1
-0.1013636330 -0.0550318430 -1 -1
-0.1001669330 -0.0561419270 -1 -1
-0.0991177770 -0.0567485610 -1 -1
-0.0982621970 -0.0568186290 -1 -1
-0.0976262750 -0.0563767800 -1 -1
-0.0972153350 -0.0554975730 -1 -1
-0.0970158150 -0.0542911890 -1 -1
-0.0969977640 -0.0528879810 -1 -1
-0.0971166950 -0.0514262910 -1 -1
-0.0973152320 -0.0500437490 -1 -1
-0.0975271990 -0.0488692260 -1 -1
-0.0976865840 -0.0480132680 -1 -1
-0.0977389780 -0.0475577030 -1 -1
-0.0976495550 -0.0475470800 -1 -1
-0.0974052150 -0.0479835060 -1 -1
-0.0970141560 -0.0488240160 -1 -1
-0.0965058370 -0.0499801090 -1 -1
-0.0959298560 -0.0513219410 -1 -1
-0.0953511040 -0.0526898890 -1 -1
-0.0948409950 -0.0539132370 -1 -1
-0.0944664480 -0.0548324690 -1 -1
-0.0942791870 -0.0553196910 -1 -1
-0.0943084580 -0.0552929670 -1 -1
-0.0945590840 -0.0547235410 -1 -1
-0.0950143200 -0.0536368000 -1 -1
-0.0956416140 -0.0521077060 -1 -1
-0.0963992290 -0.0502511230 -1 -1
-0.0972415540 -0.0482082230 -1 -1
-0.0981213370 -0.0461318820 -1 -1
-0.0989891760 -0.0441738930 -1 -1
-0.0997932700 -0.0424741950 -1 -1
-0.1004821600 -0.0411505370 -1 -1
-0.1010103600 -0.0402878910 -1 -1
-0.1013450570 -0.0399296480 -1 -1
-0.1014720670 -0.0400734350 -1 -1
-0.1013990710 -0.0406721530 -1 -1
-0.1011548320 -0.0416390700 -1 -1
-0.1007850940 -0.0428565380 -1 -1
-0.1003470510 -0.0441881130 -1 -1
-0.0999031710 -0.0454930330 -1 -1
-0.0995137610 -0.0466414150 -1 -1
-0.0992285220 -0.0475283310 -1 -1
-0.0990786800 -0.0480850150 -1 -1
-0.0990720160 -0.0482857110 -1 -1
-0.0991933830 -0.0481485440 -1 -1
-0.0994109100 -0.0477294590 -1 -1
-0.0996842460 -0.0471107530 -1 -1
-0.0999709440 -0.0463881370 -1 -1
-0.1002304830 -0.0456602270 -1 -1
-0.1004275540 -0.0450219010 -1 -1
-0.1005351990 -0.0445599950 -1 -1
-0.1005370030 -0.0443489540 -1 -1
-0.1004272090 -0.0444451050 -1 -1
-0.1002078550 -0.0448796550 -1 -1
-0.0998840180 -0.0456516730 -1 -1
-0.0994605760 -0.0467232310 -1 -1
-0.0989429450 -0.0480189680 -1 -1
-0.0983408650 -0.0494314860 -1 -1
-0.0976726240 -0.0508322610 -1 -1
-0.0969679810 -0.0520857330 -1 -1
-0.0962684580 -0.0530638690 -1 -1
-0.0956239870 -0.0536597240 -1 -1
-0.0950871480 -0.0537991680 -1 -1
-0.0947073440 -0.0534487370 -1 -1
-0.0945251230 -0.0526177160 -1 -1
-0.0945655060 -0.0513553250 -1 -1
-0.0948312150 -0.0497458350 -1 -1
-0.0952985810 -0.0479032370 -1 -1
-0.0959182910 -0.0459649300 -1 -1
-0.0966210400 -0.0440829580 -1 -1
-0.0973259470 -0.0424117790 -1 -1
-0.0979494040 -0.0410931950 -1 -1
-0.0984138820 -0.0402401280 -1 -1
-0.0986569770 -0.0399213020 -1 -1
-0.0986397580 -0.0401498120 -1 -1
-0.0983520950 -0.0408791060 -1 -1
-0.0978137020 -0.0420084380 -1 -1
-0.0970717410 -0.0433965410 -1 -1
-0.0961961520 -0.0448793990 -1 -1
-0.0952729410 -0.0462875580 -1 -1
-0.0943957680 -0.0474607030 -1 -1
-0.0936565460 -0.0482604640 -1 -1
-0.0931352420 -0.0485837660 -1 -1
-0.0928889540 -0.0483769270 -1 -1
-0.0929421010 -0.0476473230 -1 -1
-0.0932811760 -0.0464681180 -1 -1
-0.0938563680 -0.0449732490 -1 -1
-0.0945896710 -0.0433426730 -1 -1
-0.0953872410 -0.0417801160 -1 -1
-0.0961532510 -0.0404866620 -1 -1
-0.0968022920 -0.0396342350 -1 -1
-0.0972679450 -0.0393433930 -1 -1
-0.0975069590 -0.0396693620 -1 -1
-0.0974996750 -0.0405981660 -1 -1
-0.0972475680 -0.0420516240 -1 -1
-0.0967696020 -0.0438984440 -1 -1
-0.0960997780 -0.0459695640 -1 -1
-0.0952869960 -0.0480764680 -1 -1
-0.0943960210 -0.0500296330 -1 -1
-0.0935067790 -0.0516538740 -1 -1
-0.0927091460 -0.0527999290 -1 -1
-0.0920924130 -0.0533541350 -1 -1
-0.0917319960 -0.0532478820 -1 -1
-0.0916782980 -0.0524663480 -1 -1
-0.0919514350 -0.0510539770 -1 -1
-0.0925413040 -0.0491136950 -1 -1
-0.0934097960 -0.0467983280 -1 -1
-0.0944938450 -0.0442953710 -1 -1
-0.0957107470 -0.0418081590 -1 -1
-0.0969665150 -0.0395361260 -1 -1
-0.0981659120 -0.0376555630 -1 -1
-0.0992229890 -0.0363020930 -1 -1
-0.1000718110 -0.0355574070 -1 -1
-0.1006756620 -0.0354430770 -1 -1
-0.1010314460 -0.0359218000 -1 -1
-0.1011672510 -0.0369042060 -1 -1
-0.1011346210 -0.0382599370 -1 -1
-0.1009995260 -0.0398322940 -1 -1
-0.1008344870 -0.0414545220 -1 -1
-0.1007110750 -0.0429646020 -1 -1
-0.1006918630 -0.0442169590 -1 -1
-0.1008226500 -0.0450926530 -1 -1
-0.1011259340 -0.0455105320 -1 -1
-0.1015964680 -0.0454388390 -1 -1
-0.1022000320 -0.0449032010 -1 -1
-0.1028762410 -0.0439867810 -1 -1
-0.1035457530 -0.0428216180 -1 -1
-0.1041210670 -0.0415728930 -1 -1
-0.1045186770 -0.0404187260 -1 -1
-0.1046705870 -0.0395284130 -1 -1
-0.1045337380 -0.0390421960 -1 -1
-0.1040953720 -0.0390552720 -1 -1
-0.1033719580 -0.0396083990 -1 -1
-0.1024017980 -0.0406863250 -1 -1
-0.1012363770 -0.0422225370 -1 -1
-0.0999359960 -0.0441070880 -1 -1
-0.0985693640 -0.0461957030 -1 -1
-0.0972129940 -0.0483206610 -1 -1
-0.0959481080 -0.0503038430 -1 -1
-0.0948552340 -0.0519709730 -1 -1
-0.0940072830 -0.0531662880 -1 -1
-0.0934618830 -0.0537672730 -1 -1
-0.0932540630 -0.0536979060 -1 -1
-0.0933910950 -0.0529379520 -1 -1
-0.0938518390 -0.0515270170 -1 -1
-0.0945911860 -0.0495631210 -1 -1
-0.0955467460 -0.0471951060 -1 -1
-0.0966447350 -0.0446085190 -1 -1
-0.0978051750 -0.0420070160 -1 -1
-0.0989472720 -0.0395928990 -1 -1
-0.0999942990 -0.0375493100 -1 -1
-0.1008775340 -0.0360246810 -1 -1
-0.1015401670 -0.0351197380 -1 -1
-0.1019418370 -0.0348781640 -1 -1
-0.1020631040 -0.0352821700 -1 -1
-0.1019080970 -0.0362539680 -1 -1
-0.1015038750 -0.0376637660 -1 -1
-0.1008969420 -0.0393438520 -1 -1
-0.1001493760 -0.0411072520 -1 -1
-0.0993358960 -0.0427688210 -1 -1
-0.0985399620 -0.0441654930 -1 -1
-0.0978467130 -0.0451718760 -1 -1
-0.0973333870 -0.0457093400 -1 -1
-0.0970587820 -0.0457492650 -1 -1
-0.0970532460 -0.0453119090 -1 -1
-0.0973129150 -0.0444619410 -1 -1
-0.0978017030 -0.0433010970 -1 -1
-0.0984590190 -0.0419580100 -1 -1
-0.0992082640 -0.0405757200 -1 -1
-0.0999644520 -0.0392980760 -1 -1
-0.1006422530 -0.0382560590 -1 -1
-0.1011649290 -0.0375548200 -1 -1
-0.1014729340 -0.0372629240 -1 -1
-0.1015302390 -0.0374055010 -1 -1
-0.1013268200 -0.0379619880 -1 -1
-0.1008775210 -0.0388682710 -1 -1
-0.1002193960 -0.0400228450 -1 -1
-0.0994087110 -0.0412966200 -1 -1
-0.0985157160 -0.0425459830 -1 -1
-0.0976151500 -0.0436276080 -1 -1
-0.0967743840 -0.0444120600 -1 -1
-0.0960440100 -0.0447941550 -1 -1
-0.0954535600 -0.0447009700 -1 -1
-0.0950110630 -0.0440999650 -1 -1
-0.0947046170 -0.0430076320 -1 -1
-0.0945063740 -0.0414953080 -1 -1
-0.0943792870 -0.0396872530 -1 -1
-0.0942841670 -0.0377487600 -1 -1
-0.0941840340 -0.0358662640 -1 -1
-0.0940455870 -0.0342243460 -1 -1
-0.0938399800 -0.0329849820 -1 -1
