-0.0210976620 0.0025844670 0 0
-0.0203633240 0.0004510000 0 0
-0.0196797500 -0.0014823240 0 0
-0.0191306550 -0.0030496280 0 0
-0.0187950190 -0.0041133470 0 0
-0.0187362400 -0.0045781580 0 0
-0.0189939910 -0.0044004880 0 0
-0.0195804640 -0.0035925530 0 0
-0.0204797930 -0.0022219630 0 0
-0.0216481550 -0.0004070560 0 0
-0.0230142300 0.0016933900 0 0
-0.0244822640 0.0038963220 0 0
-0.0259396730 0.0060137490 0 0
-0.0272692380 0.0078714060 0 0
-0.0283633170 0.0093246190 0 0
-0.0291360740 0.0102707290 0 0
-0.0295316620 0.0106570770 0 0
-0.0295289950 0.0104835180 0 0
-0.0291436570 0.0097998370 0 0
-0.0284270730 0.0086993470 0 0
-0.0274630950 0.0073099560 0 0
-0.0263605610 0.0057834190 0 0
-0.0252403340 0.0042827830 0 0
-0.0242195770 0.0029681010 0 0
-0.0233979650 0.0019815160 0 0
-0.0228470550 0.0014332020 0 0
-0.0226023980 0.0013895330 0 0
-0.0226603010 0.0018652000 0 0
-0.0229815730 0.0028211170 0 0
-0.0235009660 0.0041688930 0 0
-0.0241376400 0.0057807320 0 0
-0.0248033020 0.0075023760 0 0
-0.0254086320 0.0091675900 0 0
-0.0258698210 0.0106143800 0 0
-0.0261158330 0.0117025700 0 0
-0.0260962360 0.0123301030 0 0
-0.0257889950 0.0124449240 0 0
-0.0252067440 0.0120508950 0 0
-0.0243991070 0.0112076280 0 0
-0.0234488350 0.0100241760 0 0
-0.0224611110 0.0086464470 0 0
-0.0215482440 0.0072396860 0 0
-0.0208144460 0.0059690970 0 0
-0.0203448600 0.0049813430 0 0
-0.0201992500 0.0043888060 0 0
-0.0204078400 0.0042583420 0 0
-0.0209675800 0.0046060640 0 0
-0.0218401960 0.0053983920 0 0
-0.0229547140 0.0065581430 0 0
-0.0242153370 0.0079740330 0 0
-0.0255132280 0.0095124310 0 0
-0.0267400250 0.0110306480 0 0
-0.0278009140 0.0123907000 0 0
-0.0286253380 0.0134718940 0 0
-0.0291733190 0.0141811160 0 0
-0.0294353180 0.0144606000 0 0
-0.0294255990 0.0142924760 0 0
-0.0291728060 0.0136992630 0 0
-0.0287122650 0.0127403640 0 0
-0.0280813130 0.0115050260 0 0
-0.0273166820 0.0101027650 0 0
-0.0264541590 0.0086532950 0 0
-0.0255314530 0.0072774030 0 0
-0.0245926210 0.0060885780 0 0
-0.0236896300 0.0051850500 0 0
-0.0228781070 0.0046425370 0 0
-0.0222089770 0.0045080980 0 0
-0.0217201730 0.0047951430 0 0
-0.0214310310 0.0054800800 0 0
-0.0213394080 0.0065020920 0 0
-0.0214208990 0.0077676710 0 0
-0.0216302060 0.0091596870 0 0
-0.0219052450 0.0105488570 0 0
-0.0221737530 0.0118057970 0 0
-0.0223612810 0.0128129760 0 0
-0.0223998750 0.0134760530 0 0
-0.0222367280 0.0137334240 0 0
-0.0218413960 0.0135625220 0 0
-0.0212102400 0.0129815900 0 0
-0.0203673070 0.0120464960 0 0
-0.0193618010 0.0108436820 0 0
-0.0182630170 0.0094813090 0 0
-0.0171538170 0.0080799780 0 0
-0.0161226820 0.0067629360 0 0
-0.0152535440 0.0056452650 0 0
-0.0146140640 0.0048226570 0 0
-0.0142454150 0.0043617050 0 0
-0.0141567370 0.0042934060 0 0
-0.0143257880 0.0046104590 0 0
-0.0147053510 0.0052682530 0 0
-0.0152330160 0.0061890540 0 0
-0.0158415610 0.0072690120 0 0
-0.0164685040 0.0083881240 0 0
-0.0170640470 0.0094229880 0 0
-0.0175960400 0.0102609600 0 0
-0.0180502700 0.0108131850 0 0
-0.0184259280 0.0110242800 0 0
-0.0187291110 0.0108774510 0 0
-0.0189681870 0.0103945160 0 0
-0.0191521530 0.0096316300 0 0
-0.0192906570 0.0086725460 0 0
-0.0193948010 0.0076203710 0 0
-0.0194782170 0.0065879490 0 0
-0.0195571460 0.0056875590 0 0
-0.0196491310 0.0050207830 0 0
-0.0197715230 0.0046685710 0 0
-0.0199403080 0.0046816240 0 0
-0.0201683070 0.0050723970 0 0
-0.0204623350 0.0058109030 0 0
-0.0208201190 0.0068256910 0 0
-0.0212279530 0.0080100360 0 0
-0.0216599690 0.0092327470 0 0
-0.0220797230 0.0103525290 0 0
-0.0224440980 0.0112341830 0 0
-0.0227083710 0.0117645020 0 0
-0.0228314720 0.0118655750 0 0
-0.0227819170 0.0115034170 0 0
-0.0225447330 0.0106907660 0 0
-0.0221274470 0.0094846090 0 0
-0.0215625940 0.0079802430 0 0
-0.0209053870 0.0063034020 0 0
-0.0202267970 0.0046003530 0 0
-0.0196038600 0.0030255000 0 0
-0.0191097550 0.0017274800 0 0
-0.0188048500 0.0008350850 0 0
-0.0187285640 0.0004435420 0 0
-0.0188930470 0.0006022940 0 0
-0.0192813340 0.0013066880 0 0
-0.0198516780 0.0024960920 0 0
-0.0205465600 0.0040601350 0 0
-0.0213022490 0.0058526240 0 0
-0.0220553450 0.0077097720 0 0
-0.0227461490 0.0094680380 0 0
-0.0233211060 0.0109785300 0 0
-0.0237360560 0.0121179260 0 0
-0.0239603280 0.0127977770 0 0
-0.0239804320 0.0129732120 0 0
-0.0238018040 0.0126493020 0 0
-0.0234483560 0.0118817700 0 0
-0.0229602480 0.0107707710 0 0
-0.0223897770 0.0094492220 0 0
-0.0217957540 0.0080684120 0 0
-0.0212373920 0.0067831700 0 0
-0.0207682280 0.0057374010 0 0
-0.0204303310 0.0050497380 0 0
-0.0202484960 0.0048004060 0 0
-0.0202243640 0.0050219730 0 0
-0.0203331010 0.0056956170 0 0
-0.0205264780 0.0067523030 0 0
-0.0207427350 0.0080780610 0 0
-0.0209195150 0.0095242530 0 0
-0.0210052280 0.0109236650 0 0
-0.0209657270 0.0121105800 0 0
-0.0207857500 0.0129404260 0 0
-0.0204671610 0.0133051740 0 0
-0.0200262850 0.0131433460 0 0
-0.0194908830 0.0124452670 0 0
-0.0188960550 0.0112541190 0 0
-0.0182789140 0.0096626240 0 0
-0.0176733180 0.0078049660 0 0
-0.0171066130 0.0058441720 0 0
-0.0165997320 0.0039558940 0 0
-0.0161708080 0.0023102360 0 0
-0.0158406300 0.0010538620 0 0
-0.0156366970 0.0002945700 0 0
-0.0155936040 0.0000903065 0 0
-0.0157495820 0.0004443950 0 0
-0.0161393100 0.0013078680 0 0
-0.0167836640 0.0025880970 0 0
-0.0176801250 0.0041614130 0 0
-0.0187986930 0.0058866900 0 0
-0.0200839840 0.0076173520 0 0
-0.0214606580 0.0092112870 0 0
-0.0228406190 0.0105398570 0 0
-0.0241317580 0.0114968800 0 0
-0.0252466830 0.0120069000 0 0
-0.0261097470 0.0120316350 0 0
-0.0266626920 0.0115743740 0 0
-0.0268698580 0.0106822980 0 0
-0.0267225290 0.0094455660 0 0
-0.0262417220 0.0079915240 0 0
-0.0254789020 0.0064736180 0 0
-0.0245131610 0.0050559270 0 0
-0.0234434150 0.0038950770 0 0
-0.0223767980 0.0031221000 0 0
-0.0214163400 0.0028272970 0 0
-0.0206496980 0.0030504670 0 0
-0.0201389440 0.0037769660 0 0
-0.0199125960 0.0049386730 0 0
-0.0199627460 0.0064196280 0 0
-0.0202484320 0.0080668800 0 0
-0.0207031170 0.0097056840 0 0
-0.0212434960 0.0111569810 0 0
-0.0217780170 0.0122555250 0 0
-0.0222150610 0.0128675060 0 0
-0.0224716320 0.0129058930 0 0
-0.0224824690 0.0123408490 0 0
-0.0222080420 0.0112029550 0 0
-0.0216404460 0.0095794850 0 0
-0.0208066490 0.0076057690 0 0
-0.0197673690 0.0054523400 0 0
-0.0186101990 0.0033073420 0 0
-0.0174385450 0.0013560170 0 0
-0.0163594070 -0.0002382560 0 0
-0.0154719350 -0.0013480920 0 0
-0.0148575880 -0.0018913200 0 0
-0.0145722360 -0.0018367220 0 0
-0.0146402340 -0.0012065610 0 0
-0.0150514010 -0.0000742229 0 0
-0.0157624260 0.0014441220 0 0
-0.0167025380 0.0032019940 0 0
-0.0177816800 0.0050365340 0 0
-0.0188999270 0.0067828050 0 0
-0.0199570960 0.0082884060 0 0
-0.0208618400 0.0094272840 0 0
-0.0215408350 0.0101105400 0 0
-0.0219473450 0.0102927750 0 0
-0.0220657150 0.0099743480 0 0
-0.0219099870 0.0092005660 0 0
-0.0215188850 0.0080582390 0 0
-0.0209500840 0.0066693260 0 0
-0.0202742520 0.0051809180 0 0
-0.0195678260 0.0037513970 0 0
-0.0189049560 0.0025342690 0 0
-0.0183510530 0.0016623560 0 0
-0.0179592410 0.0012343360 0 0
-0.0177683850 0.0013042310 0 0
-0.0178007960 0.0018743250 0 0
-0.0180592160 0.0028929670 0 0
-0.0185238800 0.0042587000 0 0
-0.0191514230 0.0058307590 0 0
-0.0198776090 0.0074450700 0 0
-0.0206242890 0.0089343320 0 0
-0.0213081670 0.0101491410 0 0
-0.0218487140 0.0109755460 0 0
-0.0221750000 0.0113452790 0 0
-0.0222323050 0.0112378140 0 0
-0.0219889070 0.0106761480 0 0
-0.0214428400 0.0097194240 0 0
-0.0206267670 0.0084552650 0 0
-0.0196078980 0.0069931260 0 0
-0.0184808270 0.0054575180 0 0
-0.0173541780 0.0039791170 0 0
-0.0163350100 0.0026833700 0 0
-0.0155147890 0.0016776460 0 0
-0.0149587270 0.0010387900 0 0
-0.0146997200 0.0008037530 0 0
-0.0147373170 0.0009657820 0 0
-0.0150405080 0.0014765710 0 0
-0.0155531910 0.0022528180 0 0
-0.0162027290 0.0031861200 0 0
-0.0169113870 0.0041561000 0 0
-0.0176077680 0.0050450960 0 0
-0.0182342790 0.0057509510 0 0
-0.0187487920 0.0061955070 0 0
-0.0191215870 0.0063291440 0 0
-0.0193308730 0.0061330880 0 0
-0.0193613600 0.0056208690 0 0
-0.0192074840 0.0048389630 0 0
-0.0188776540 0.0038651120 0 0
-0.0183955300 0.0028024230 0 0
-0.0177986980 0.0017692530 0 0
-0.0171366620 0.0008868020 0 0
-0.0164684550 0.0002662730 0 0
-0.0158588210 -0.0000029571 0 0
-0.0153719690 0.0001375780 0 0
-0.0150636100 0.0007101750 0 0
-0.0149736540 0.0016992170 0 0
-0.0151215050 0.0030522500 0 0
-0.0155038660 0.0046835920 0 0
-0.0160941190 0.0064802080 0 0
-0.0168434960 0.0083098840 0 0
-0.0176851770 0.0100323580 0 0
-0.0185413890 0.0115131200 0 0
-0.0193319100 0.0126375310 0 0
-0.0199823100 0.0133224510 0 0
-0.0204311290 0.0135239430 0 0
-0.0206356780 0.0132408340 0 0
-0.0205767160 0.0125142740 0 0
-0.0202621340 0.0114242770 0 0
-0.0197284550 0.0100846480 0 0
-0.0190383860 0.0086357670 0 0
-0.0182740160 0.0072332950 0 0
-0.0175270020 0.0060330410 0 0
-0.0168876920 0.0051749110 0 0
-0.0164346010 0.0047685110 0 0
-0.0162252560 0.0048815790 0 0
-0.0162897320 0.0055317880 0 0
-0.0166280180 0.0066825250 0 0
-0.0172106810 0.0082437590 0 0
-0.0179814670 0.0100793800 0 0
-0.0188622400 0.0120217350 0 0
-0.0197616180 0.0138917970 0 0
-0.0205861490 0.0155205340 0 0
-0.0212508620 0.0167668420 0 0
-0.0216872560 0.0175303190 0 0
-0.0218481900 0.0177590230 0 0
-0.0217104280 0.0174522140 0 0
-0.0212769720 0.0166583150 0 0
-0.0205796160 0.0154692490 0 0
-0.0196788310 0.0140118590 0 0
-0.0186588030 0.0124362950 0 0
-0.0176182140 0.0109014640 0 0
-0.0166579100 0.0095585890 0 0
-0.0158668440 0.0085347860 0 0
-0.0153100860 0.0079193520 0 0
-0.0150230980 0.0077552810 0 0
-0.0150118930 0.0080371450 0 0
-0.0152548770 0.0087146660 0 0
-0.0157039930 0.0096997550 0 0
-0.0162866640 0.0108751060 0 0
-0.0169112080 0.0121040360 0 0
-0.0174769410 0.0132419640 0 0
-0.0178876230 0.0141493740 0 0
-0.0180645940 0.0147059020 0 0
-0.0179558530 0.0148244380 0 0
-0.0175398980 0.0144626720 0 0
-0.0168257940 0.0136290110 0 0
-0.0158507280 0.0123815460 0 0
-0.0146749230 0.0108212810 0 0
-0.0133744670 0.0090818760 0 0
-0.0120339840 0.0073171780 0 0
-0.0107401620 0.0056869330 0 0
-0.0095757170 0.0043421030 0 0
-0.0086131590 0.0034117400 0 0
-0.0079083940 0.0029917880 0 0
-0.0074950870 0.0031358050 0 0
-0.0073811280 0.0038494960 0 0
-0.0075481850 0.0050906580 0 0
-0.0079552450 0.0067735260 0 0
-0.0085456700 0.0087758660 0 0
-0.0092546280 0.0109487140 0 0
-0.0100139490 0.0131287290 0 0
-0.0107549230 0.0151515430 0 0
-0.0114118390 0.0168643950 0 0
-0.0119278380 0.0181379850 0 0
-0.0122621970 0.0188781990 0 0
-0.0123966790 0.0190372350 0 0
-0.0123385720 0.0186219350 0 0
-0.0121197040 0.0176956330 0 0
-0.0117926070 0.0163707810 0 0
-0.0114249030 0.0147936800 0 0
-0.0110915790 0.0131261240 0 0
-0.0108645310 0.0115278390 0 0
-0.0108005580 0.0101407100 0 0
-0.0109320260 0.0090752350 0 0
-0.0112649690 0.0084011530 0 0
-0.0117841770 0.0081442330 0 0
-0.0124589090 0.0082889530 0 0
-0.0132449710 0.0087847350 0 0
-0.0140854190 0.0095529950 0 0
-0.0149138110 0.0104931650 0 0
-0.0156609460 0.0114878140 0 0
-0.0162630400 0.0124092100 0 0
-0.0166678100 0.0131296190 0 0
-0.0168370210 0.0135351430 0 0
-0.0167476500 0.0135407330 0 0
-0.0163939320 0.0131035860 0 0
-0.0157902790 0.0122326390 0 0
-0.0149736690 0.0109922550 0 0
-0.0140037910 0.0094985340 0 0
-0.0129593870 0.0079076800 0 0
-0.0119305610 0.0063972050 0 0
-0.0110085660 0.0051426080 0 0
-0.0102748180 0.0042935470 0 0
-0.0097904580 0.0039534610 0 0
-0.0095882810 0.0041662190 0 0
-0.0096687600 0.0049118530 0 0
-0.0100011720 0.0061103960 0 0
-0.0105298510 0.0076318600 0 0
-0.0111833770 0.0093117460 0 0
-0.0118832630 0.0109711210 0 0
-0.0125509610 0.0124377960 0 0
-0.0131143870 0.0135639630 0 0
-0.0135147370 0.0142377230 0 0
-0.0137123980 0.0143888390 0 0
-0.0136906110 0.0139903250 0 0
-0.0134567330 0.0130579870 0 0
-0.0130406180 0.0116496570 0 0
-0.0124890690 0.0098637410 0 0
-0.0118578490 0.0078344410 0 0
-0.0112053100 0.0057211900 0 0
-0.0105898050 0.0036931970 0 0
-0.0100692490 0.0019130550 0 0
-0.0097001300 0.0005224690 0 0
-0.0095346750 -0.0003699070 0 0
-0.0096160380 -0.0006991010 0 0
-0.0099718830 -0.0004516760 0 0
-0.0106077730 0.0003315740 0 0
-0.0115023950 0.0015593370 0 0
-0.0126060880 0.0030996990 0 0
-0.0138434290 0.0047953200 0 0
-0.0151199950 0.0064815870 0 0
-0.0163323630 0.0080032080 0 0
-0.0173794460 0.0092253320 0 0
-0.0181736570 0.0100396440 0 0
-0.0186507790 0.0103691980 0 0
-0.0187770710 0.0101744000 0 0
-0.0185523940 0.0094587420 0 0
-0.0180091660 0.0082713040 0 0
-0.0172074780 0.0067044710 0 0
-0.0162280060 0.0048870920 0 0
-0.0151648270 0.0029737860 0 0
-0.0141180880 0.0011311930 0 0
-0.0131852820 -0.0004777070 0 0
-0.0124517840 -0.0017101220 0 0
-0.0119824000 -0.0024596720 0 0
-0.0118149300 -0.0026698140 0 0
-0.0119564720 -0.0023413270 0 0
-0.0123834710 -0.0015321690 0 0
-0.0130460360 -0.0003502380 0 0
-0.0138760040 0.0010592860 0 0
-0.0147967790 0.0025298760 0 0
-0.0157318570 0.0038907850 0 0
-0.0166100810 0.0049844900 0 0
-0.0173686300 0.0056845910 0 0
-0.0179561070 0.0059122400 0 0
-0.0183367170 0.0056460700 0 0
-0.0184943010 0.0049222810 0 0
-0.0184347210 0.0038264390 0 0
-0.0181866980 0.0024808740 0 0
-0.0178014020 0.0010306580 0 0
-0.0173491320 -0.0003706600 0 0
-0.0169111260 -0.0015757770 0 0
-0.0165670270 -0.0024587720 0 0
-0.0163816220 -0.0029290990 0 0
-0.0163955060 -0.0029421530 0 0
-0.0166210900 -0.0025044910 0 0
-0.0170418110 -0.0016726880 0 0
-0.0176132940 -0.0005459810 0 0
-0.0182673640 0.0007460460 0 0
-0.0189194120 0.0020589010 0 0
-0.0194786930 0.0032498850 0 0
-0.0198610140 0.0041942700 0 0
-0.0200016660 0.0047991880 0 0
-0.0198643470 0.0050133990 0 0
-0.0194430350 0.0048311140 0 0
-0.0187581360 0.0042894630 0 0
-0.0178507670 0.0034611500 0 0
-0.0167776960 0.0024445620 0 0
-0.0156069400 0.0013532250 0 0
-0.0144128690 0.0003058160 0 0
-0.0132695980 -0.0005830330 0 0
-0.0122431360 -0.0012113530 0 0
-0.0113855750 -0.0014976810 0 0
-0.0107338920 -0.0013880100 0 0
-0.0103116150 -0.0008616600 0 0
-0.0101302280 0.0000646588 0 0
-0.0101891860 0.0013353370 0 0
-0.0104742120 0.0028577940 0 0
-0.0109543110 0.0045092580 0 0
-0.0115801920 0.0061489710 0 0
-0.0122869280 0.0076342520 0 0
-0.0130006370 0.0088375400 0 0
-0.0136469310 0.0096616670 0 0
-0.0141596150 0.0100513680 0 0
-0.0144884690 0.0099998490 0 0
-0.0146045060 0.0095494160 0 0
-0.0145026180 0.0087854170 0 0
-0.0142028950 0.0078241770 0 0
-0.0137500880 0.0067975130 0 0
-0.0132095450 0.0058372060 0 0
-0.0126600160 0.0050621330 0 0
-0.0121850610 0.0045691570 0 0
-0.0118640560 0.0044270560 0 0
-0.0117636110 0.0046721940 0 0
-0.0119308770 0.0053055400 0 0
-0.0123897180 0.0062915370 0 0
-0.0131388850 0.0075593510 0 0
-0.0141511470 0.0090066820 0 0
-0.0153737500 0.0105064990 0 0
-0.0167308430 0.0119174810 0 0
-0.0181281090 0.0130981800 0 0
-0.0194595750 0.0139229380 0 0
-0.0206161590 0.0142965210 0 0
-0.0214956920 0.0141648650 0 0
-0.0220147810 0.0135207210 0 0
-0.0221215760 0.0124043680 0 0
-0.0218050710 0.0108998470 0 0
-0.0210960140 0.0091269820 0 0
-0.0200600220 0.0072302490 0 0
-0.0187885390 0.0053665470 0 0
-0.0173910180 0.0036935900 0 0
-0.0159867120 0.0023591820 0 0
-0.0146941600 0.0014907670 0 0
-0.0136195280 0.0011846740 0 0
-0.0128461580 0.0014955870 0 0
-0.0124266230 0.0024280680 0 0
-0.0123776880 0.0039319330 0 0
-0.0126785760 0.0059026970 0 0
-0.0132733000 0.0081882740 0 0
-0.0140780470 0.0106020910 0 0
-0.0149931750 0.0129407940 0 0
-0.0159164770 0.0150042220 0 0
-0.0167535620 0.0166157480 0 0
-0.0174243880 0.0176403400 0 0
-0.0178678440 0.0179975650 0 0
-0.0180453390 0.0176680310 0 0
-0.0179425630 0.0166933640 0 0
-0.0175694140 0.0151703290 0 0
-0.0169590280 0.0132395870 0 0
-0.0161655380 0.0110704160 0 0
-0.0152593640 0.0088437310 0 0
-0.0143201390 0.0067349590 0 0
-0.0134282390 0.0048974610 0 0
-0.0126559380 0.0034484180 0 0
-0.0120595860 0.0024602960 0 0
-0.0116736660 0.0019590110 0 0
-0.0115069810 0.0019268360 0 0
-0.0115416080 0.0023077950 0 0
-0.0117352500 0.0030145810 0 0
-0.0120272530 0.0039362470 0 0
-0.0123485260 0.0049463870 0 0
-0.0126341140 0.0059131970 0 0
-0.0128347490 0.0067126770 0 0
-0.0129237270 0.0072436120 0 0
-0.0128982870 0.0074409560 0 0
-0.0127769490 0.0072843920 0 0
-0.0125942900 0.0068003660 0 0
-0.0123942700 0.0060575160 0 0
-0.0122236480 0.0051565990 0 0
-0.0121268660 0.0042168350 0 0
-0.0121431190 0.0033614150 0 0
-0.0123056950 0.0027049280 0 0
-0.0126417370 0.0023440230 0 0
-0.0131693860 0.0023505680 0 0
-0.0138920420 0.0027655810 0 0
-0.0147928450 0.0035935730 0 0
-0.0158319910 0.0047991080 0 0
-0.0169474240 0.0063072970 0 0
-0.0180588540 0.0080083350 0 0
-0.0190751270 0.0097654770 0 0
-0.0199044740 0.0114264040 0 0
-0.0204661330 0.0128378310 0 0
-0.0207006660 0.0138623300 0 0
-0.0205769180 0.0143950290 0 0
-0.0200955540 0.0143768390 0 0
-0.0192898750 0.0138014630 0 0
-0.0182238070 0.0127159640 0 0
-0.0169859120 0.0112166940 0 0
-0.0156790970 0.0094418410 0 0
-0.0144082880 0.0075597560 0 0
-0.0132700110 0.0057520400 0 0
-0.0123461530 0.0041928090 0 0
-0.0117008150 0.0030281170 0 0
-0.0113777840 0.0023593880 0 0
-0.0113975890 0.0022320630 0 0
-0.0117549950 0.0026292320 0 0
-0.0124180340 0.0034716210 0 0
-0.0133285010 0.0046262140 0 0
-0.0144037770 0.0059233460 0 0
-0.0155410790 0.0071788890 0 0
-0.0166250680 0.0082172850 0 0
-0.0175387810 0.0088920650 0 0
-0.0181774150 0.0091017310 0 0
-0.0184633510 0.0087995550 0 0
-0.0183586270 0.0079963250 0 0
-0.0178708600 0.0067561330 0 0
-0.0170509900 0.0051864010 0 0
-0.0159842680 0.0034240520 0 0
-0.0147775010 0.0016203760 0 0
-0.0135449260 -0.0000726347 0 0
-0.0123948540 -0.0015131000 0 0
-0.0114198970 -0.0025779070 0 0
-0.0106928990 -0.0031710380 0 0
-0.0102674880 -0.0032320570 0 0
-0.0101788160 -0.0027428100 0 0
-0.0104404520 -0.0017304040 0 0
-0.0110389050 -0.0002660800 0 0
-0.0119315720 0.0015403730 0 0
-0.0130505730 0.0035510860 0 0
-0.0143095630 0.0056139410 0 0
-0.0156106780 0.0075767330 0 0
-0.0168516620 0.0092995280 0 0
-0.0179341820 0.0106651180 0 0
-0.0187732390 0.0115878950 0 0
-0.0193058450 0.0120204120 0 0
-0.0194960900 0.0119562910 0 0
-0.0193353850 0.0114294570 0 0
-0.0188399300 0.0105109450 0 0
-0.0180481310 0.0093038900 0 0
-0.0170186690 0.0079359890 0 0
-0.0158281950 0.0065488770 0 0
-0.0145671480 0.0052851210 0 0
-0.0133333040 0.0042742280 0 0
-0.0122239230 0.0036193050 0 0
-0.0113272410 0.0033861870 0 0
-0.0107140120 0.0035964610 0 0
-0.0104303550 0.0042249420 0 0
-0.0104932760 0.0052019520 0 0
-0.0108898150 0.0064209390 0 0
-0.0115800500 0.0077512600 0 0
-0.0125027790 0.0090543000 0 0
-0.0135821020 0.0101993760 0 0
-0.0147337350 0.0110756810 0 0
-0.0158707030 0.0115992070 0 0
-0.0169085860 0.0117165970 0 0
-0.0177711360 0.0114082160 0 0
-0.0183967940 0.0106910570 0 0
-0.0187453490 0.0096203690 0 0
-0.0188030890 0.0082880440 0 0
-0.0185851470 0.0068162060 0 0
-0.0181345340 0.0053457690 0 0
-0.0175176660 0.0040212320 0 0
-0.0168164370 0.0029734610 0 0
-0.0161178920 0.0023026650 0 0
-0.0155035270 0.0020648910 0 0
-0.0150398140 0.0022655920 0 0
-0.0147702110 0.0028615620 0 0
-0.0147091460 0.0037691800 0 0
-0.0148395840 0.0048753450 0 0
-0.0151155100 0.0060488640 0 0
-0.0154692370 0.0071521490 0 0
-0.0158221410 0.0080536280 0 0
-0.0160963760 0.0086408570 0 0
-0.0162253500 0.0088336950 0 0
-0.0161628910 0.0085956920 0 0
-0.0158913410 0.0079410460 0 0
-0.0154255070 0.0069346560 0 0
-0.0148083640 0.0056841830 0 0
-0.0140996020 0.0043253750 0 0
-0.0133636140 0.0030041370 0 0
-0.0126625120 0.0018589600 0 0
-0.0120534440 0.0010059120 0 0
-0.0115858060 0.0005273020 0 0
-0.0112959600 0.0004649840 0 0
-0.0112012290 0.0008191170 0 0
-0.0112968180 0.0015518970 0 0
-0.0115574080 0.0025944690 0 0
-0.0119422500 0.0038552800 0 0
-0.0124015050 0.0052289700 0 0
-0.0128818580 0.0066049170 0 0
-0.0133301040 0.0078747230 0 0
-0.0136950620 0.0089387140 0 0
-0.0139299890 0.0097122140 0 0
-0.0139977540 0.0101322480 0 0
-0.0138783210 0.0101646610 0 0
-0.0135747430 0.0098104390 0 0
-0.0131139380 0.0091085410 0 0
-0.0125416540 0.0081332530 0 0
-0.0119141980 0.0069869340 0 0
-0.0112909090 0.0057907840 0 0
-0.0107300250 0.0046753380 0 0
-0.0102870210 0.0037701690 0 0
-0.0100121470 0.0031910540 0 0
-0.0099455330 0.0030243310 0 0
-0.0101115430 0.0033118450 0 0
-0.0105145740 0.0040414310 0 0
-0.0111362270 0.0051454970 0 0
-0.0119333390 0.0065072640 0 0
-0.0128387930 0.0079734480 0 0
-0.0137674690 0.0093720150 0 0
-0.0146262650 0.0105323120 0 0
-0.0153248920 0.0113043280 0 0
-0.0157857320 0.0115747200 0 0
-0.0159525790 0.0112781970 0 0
-0.0157972870 0.0104037300 0 0
-0.0153226310 0.0089956350 0 0
-0.0145612580 0.0071497180 0 0
-0.0135728940 0.0050052790 0 0
-0.0124415440 0.0027340120 0 0
-0.0112716550 0.0005259170 0 0
-0.0101808210 -0.0014278200 0 0
-0.0092879380 -0.0029538400 0 0
-0.0086985960 -0.0039151560 0 0
-0.0084920760 -0.0042263850 0 0
-0.0087129770 -0.0038626170 0 0
-0.0093672930 -0.0028598560 0 0
-0.0104224390 -0.0013073790 0 0
-0.0118112430 0.0006653830 0 0
-0.0134384190 0.0029039360 0 0
-0.0151881700 0.0052432060 0 0
-0.0169337310 0.0075204260 0 0
-0.0185496030 0.0095857360 0 0
-0.0199246460 0.0113104090 0 0
-0.0209723620 0.0125940020 0 0
-0.0216363050 0.0133712290 0 0
-0.0218921690 0.0136175020 0 0
-0.0217492340 0.0133512120 0 0
-0.0212512010 0.0126314760 0 0
-0.0204738460 0.0115520440 0 0
-0.0195168830 0.0102334970 0 0
-0.0184904560 0.0088144250 0 0
-0.0175005970 0.0074400910 0 0
-0.0166383200 0.0062481720 0 0
-0.0159729360 0.0053539110 0 0
-0.0155468020 0.0048373020 0 0
-0.0153699920 0.0047335640 0 0
-0.0154173530 0.0050283330 0 0
-0.0156315090 0.0056590890 0 0
-0.0159330780 0.0065228330 0 0
-0.0162357830 0.0074890670 0 0
-0.0164612800 0.0084167150 0 0
-0.0165487860 0.0091718660 0 0
-0.0164583800 0.0096425680 0 0
-0.0161705560 0.0097492790 0 0
-0.0156849950 0.0094518130 0 0
-0.0150194160 0.0087535130 0 0
-0.0142078520 0.0077023450 0 0
-0.0132979030 0.0063878630 0 0
-0.0123469830 0.0049332920 0 0
-0.0114173480 0.0034833460 0 0
-0.0105700370 0.0021895770 0 0
-0.0098590050 0.0011946940 0 0
-0.0093264810 0.0006169480 0 0
-0.0089992770 0.0005362110 0 0
-0.0088857060 0.0009838800 0 0
-0.0089740080 0.0019383440 0 0
-0.0092332110 0.0033269640 0 0
-0.0096156220 0.0050346230 0 0
-0.0100596670 0.0069173370 0 0
-0.0104939480 0.0088177150 0 0
-0.0108438660 0.0105791030 0 0
-0.0110400500 0.0120571730 0 0
-0.0110267930 0.0131298790 0 0
-0.0107690850 0.0137071620 0 0
-0.0102570310 0.0137405520 0 0
-0.0095073940 0.0132311290 0 0
-0.0085630020 0.0122329780 0 0
-0.0074903620 0.0108494970 0 0
-0.0063743940 0.0092227330 0 0
-0.0053092250 0.0075185490 0 0
-0.0043864710 0.0059102720 0 0
-0.0036843580 0.0045624190 0 0
-0.0032596190 0.0036151770 0 0
-0.0031422140 0.0031697810 0 0
-0.0033331600 0.0032762760 0 0
-0.0038062880 0.0039271920 0 0
-0.0045134130 0.0050594060 0 0
-0.0053908000 0.0065631500 0 0
-0.0063647520 0.0082953110 0 0
-0.0073562340 0.0100945890 0 0
-0.0082861870 0.0117970500 0 0
-0.0090819270 0.0132511450 0 0
-0.0096829960 0.0143310180 0 0
-0.0100453490 0.0149469940 0 0
-0.0101448920 0.0150528710 0 0
-0.0099818960 0.0146501810 0 0
-0.0095851690 0.0137894910 0 0
-0.0090123260 0.0125681380 0 0
-0.0083438610 0.0111227440 0 0
-0.0076726030 0.0096152040 0 0
-0.0070918790 0.0082136250 0 0
-0.0066848920 0.0070722990 0 0
-0.0065165670 0.0063144450 0 0
-0.0066273700 0.0060192840 0 0
-0.0070280100 0.0062137590 0 0
-0.0076958600 0.0068693100 0 0
-0.0085753830 0.0079041910 0 0
-0.0095832920 0.0091915810 0 0
-0.0106176500 0.0105733210 0 0
-0.0115705850 0.0118781590 0 0
-0.0123435380 0.0129415760 0 0
-0.0128613860 0.0136234730 0 0
-0.0130810300 0.0138217300 0 0
-0.0129927640 0.0134814970 0 0
-0.0126163840 0.0126001110 0 0
-0.0119953000 0.0112274270 0 0
-0.0111905510 0.0094618190 0 0
-0.0102746870 0.0074419900 0 0
-0.0093246190 0.0053340640 0 0
-0.0084144170 0.0033141460 0 0
-0.0076107610 0.0015490160 0 0
-0.0069717510 0.0001790030 0 0
-0.0065469000 -0.0006939980 0 0
-0.0063765180 -0.0010127270 0 0
-0.0064897340 -0.0007658960 0 0
-0.0068999360 0.0000139846 0 0
-0.0075975370 0.0012548610 0 0
-0.0085431560 0.0028503870 0 0
-0.0096659580 0.0046662370 0 0
-0.0108701450 0.0065483650 0 0
-0.0120486900 0.0083342000 0 0
-0.0130998350 0.0098669250 0 0
-0.0139404640 0.0110110540 0 0
-0.0145125830 0.0116664640 0 0
-0.0147835850 0.0117790580 0 0
-0.0147444900 0.0113470810 0 0
-0.0144104010 0.0104219290 0 0
-0.0138234850 0.0091026520 0 0
-0.0130541180 0.0075252740 0 0
-0.0121955920 0.0058490620 0 0
-0.0113526720 0.0042406930 0 0
-0.0106279780 0.0028570280 0 0
-0.0101095680 0.0018289240 0 0
-0.0098609970 0.0012489400 0 0
-0.0099149890 0.0011641220 0 0
-0.0102724060 0.0015733740 0 0
-0.0109064700 0.0024283470 0 0
-0.0117692280 0.0036373160 0 0
-0.0127967910 0.0050725060 0 0
-0.0139125670 0.0065814730 0 0
-0.0150299200 0.0080021340 0 0
-0.0160559130 0.0091798840 0 0
-0.0168978750 0.0099843200 0 0
-0.0174735940 0.0103230790 0 0
-0.0177232680 0.0101512890 0 0
-0.0176199790 0.0094760870 0 0
-0.0171757140 0.0083559530 0 0
-0.0164405300 0.0068947260 0 0
-0.0154947590 0.0052308480 0 0
-0.0144372900 0.0035232700 0 0
-0.0133736330 0.0019353220 0 0
-0.0124055510 0.0006177040 0 0
-0.0116221000 -0.0003070910 0 0
-0.0110917800 -0.0007558100 0 0
-0.0108565540 -0.0006895900 0 0
-0.0109288850 -0.0001141370 0 0
-0.0112922860 0.0009239010 0 0
-0.0119049600 0.0023437760 0 0
-0.0127054970 0.0040391730 0 0
-0.0136196360 0.0058859590 0 0
-0.0145672920 0.0077482760 0 0
-0.0154693840 0.0094846860 0 0
-0.0162544660 0.0109567860 0 0
-0.0168648940 0.0120414010 0 0
-0.0172614950 0.0126450360 0 0
-0.0174257960 0.0127172960 0 0
-0.0173596560 0.0122601040 0 0
-0.0170829180 0.0113310050 0 0
-0.0166303600 0.0100392230 0 0
-0.0160491510 0.0085340950 0 0
-0.0153966830 0.0069875540 0 0
-0.0147370830 0.0055734990 0 0
-0.0141349700 0.0044469920 0 0
-0.0136474650 0.0037266610 0 0
-0.0133174150 0.0034833260 0 0
-0.0131697090 0.0037358130 0 0
-0.0132098300 0.0044526980 0 0
-0.0134225780 0.0055578200 0 0
-0.0137705700 0.0069381140 0 0
-0.0141946590 0.0084533080 0 0
-0.0146186150 0.0099476070 0 0
-0.0149578470 0.0112636630 0 0
-0.0151295400 0.0122587010 0 0
-0.0150621880 0.0128212510 0 0
-0.0147053150 0.0128854160 0 0
-0.0140402580 0.0124394750 0 0
-0.0130887980 0.0115268920 0 0
-0.0119142790 0.0102396630 0 0
-0.0106135130 0.0087060750 0 0
-0.0093027920 0.0070763220 0 0
-0.0081024740 0.0055085280 0 0
-0.0071229460 0.0041553590 0 0
-0.0064530380 0.0031505640 0 0
-0.0061511030 0.0025957950 0 0
-0.0062391810 0.0025490940 0 0
-0.0067009070 0.0030168750 0 0
-0.0074830800 0.0039512100 0 0
-0.0085002240 0.0052534690 0 0
-0.0096424310 0.0067845510 0 0
-0.0107871500 0.0083810260 0 0
-0.0118134180 0.0098747580 0 0
-0.0126153870 0.0111123780 0 0
-0.0131130720 0.0119714750 0 0
-0.0132595010 0.0123715340 0 0
-0.0130438340 0.0122788350 0 0
-0.0124904870 0.0117057860 0 0
-0.0116550380 0.0107061340 0 0
-0.0106173520 0.0093679520 0 0
-0.0094717780 0.0078057650 0 0
-0.0083154940 0.0061522290 0 0
-0.0072376770 0.0045492710 0 0
-0.0063116670 0.0031377840 0 0
-0.0055904640 0.0020453870 0 0
-0.0051050640 0.0013738890 0 0
-0.0048651020 0.0011885930 0 0
-0.0048611710 0.0015100800 0 0
-0.0050681150 0.0023092530 0 0
-0.0054484060 0.0035075760 0 0
-0.0059541950 0.0049838850 0 0
-0.0065280080 0.0065872800 0 0
-0.0071048870 0.0081541910 0 0
-0.0076183650 0.0095270310 0 0
-0.0080087580 0.0105715700 0 0
-0.0082305620 0.0111900060 0 0
-0.0082575960 0.0113278180 0 0
-0.0080862080 0.0109751700 0 0
-0.0077365240 0.0101653450 0 0
-0.0072508120 0.0089719990 0 0
-0.0066882470 0.0075048730 0 0
-0.0061165260 0.0059020490 0 0
-0.0056019990 0.0043172430 0 0
-0.0052009030 0.0029030260 0 0
-0.0049542410 0.0017928040 0 0
-0.0048866960 0.0010849130 0 0
-0.0050075800 0.0008316230 0 0
-0.0053125480 0.0010344350 0 0
-0.0057861050 0.0016451580 0 0
-0.0064037620 0.0025717560 0 0
-0.0071318260 0.0036891110 0 0
-0.0079252050 0.0048543400 0 0
-0.0087260280 0.0059241110 0 0
-0.0094660320 0.0067705290 0 0
-0.0100743650 0.0072936030 0 0
-0.0104892830 0.0074300420 0 0
-0.0106692200 0.0071586900 0 0
-0.0105992610 0.0065020260 0 0
-0.0102923390 0.0055230960 0 0
-0.0097869430 0.0043185390 0 0
-0.0091432960 0.0030094280 0 0
-0.0084380330 0.0017312120 0 0
-0.0077560800 0.0006230450 0 0
-0.0071800350 -0.0001837940 0 0
-0.0067796330 -0.0005783230 0 0
-0.0066035320 -0.0004821740 0 0
-0.0066743230 0.0001401680 0 0
-0.0069875710 0.0012757020 0 0
-0.0075147570 0.0028632550 0 0
-0.0082078910 0.0047993510 0 0
-0.0090039660 0.0069479120 0 0
-0.0098297630 0.0091519480 0 0
-0.0106078090 0.0112464920 0 0
-0.0112625240 0.0130730290 0 0
-0.0117252900 0.0144944390 0 0
-0.0119393210 0.0154076180 0 0
-0.0118657150 0.0157514020 0 0
-0.0114896280 0.0155096470 0 0
-0.0108239710 0.0147110400 0 0
-0.0099098330 0.0134270340 0 0
-0.0088149760 0.0117679760 0 0
-0.0076310660 0.0098770290 0 0
-0.0064678510 0.0079218280 0 0
-0.0054421010 0.0060832570 0 0
-0.0046621180 0.0045398570 0 0
-0.0042114700 0.0034474610 0 0
-0.0041356810 0.0029170690 0 0
-0.0044346580 0.0029967760 0 0
-0.0050629680 0.0036630090 0 0
-0.0059382210 0.0048227360 0 0
-0.0069548390 0.0063251970 0 0
-0.0079991010 0.0079805570 0 0
-0.0089626260 0.0095830490 0 0
-0.0097533770 0.0109364880 0 0
-0.0103038980 0.0118790830 0 0
-0.0105762760 0.0123032630 0 0
-0.0105632410 0.0121665870 0 0
-0.0102848580 0.0114924260 0 0
-0.0097816280 0.0103619990 0 0
-0.0091074540 0.0089008400 0 0
-0.0083260030 0.0072625410 0 0
-0.0075098120 0.0056120620 0 0
-0.0067382300 0.0041106830 0 0
-0.0060916290 0.0029034290 0 0
-0.0056423080 0.0021080730 0 0
-0.0054444570 0.0018053420 0 0
-0.0055264770 0.0020321000 0 0
-0.0058874130 0.0027793680 0 0
-0.0064962060 0.0039949640 0 0
-0.0072923860 0.0055888920 0 0
-0.0081897880 0.0074391570 0 0
-0.0090851970 0.0093969620 0 0
-0.0098706720 0.0112933790 0 0
-0.0104462050 0.0129512410 0 0
-0.0107294100 0.0142031640 0 0
-0.0106607620 0.0149120090 0 0
-0.0102065370 0.0149882090 0 0
-0.0093627880 0.0144010400 0 0
-0.0081601520 0.0131836440 0 0
-0.0066657250 0.0114312750 0 0
-0.0049795580 0.0092922150 0 0
-0.0032263000 0.0069528390 0 0
-0.0015433290 0.0046189510 0 0
-0.0000665715 0.0024950100 0 0
0.0010847280 0.0007631190 0 0
0.0018228880 -0.0004357820 0 0
0.0021037610 -0.0010159370 0 0
0.0019320860 -0.0009540580 0 0
0.0013582110 -0.0002893490 0 0
0.0004680490 0.0008831980 0 0
-0.0006296850 0.0024250910 0 0
-0.0018162340 0.0041701830 0 0
-0.0029745260 0.0059420130 0 0
-0.0039989910 0.0075713860 0 0
-0.0048030680 0.0089129590 0 0
-0.0053249610 0.0098593300 0 0
-0.0055320050 0.0103514620 0 0
-0.0054234860 0.0103843630 0 0
-0.0050312790 0.0100065320 0 0
-0.0044169820 0.0093124210 0 0
-0.0036645420 0.0084296260 0 0
-0.0028691470 0.0075038860 0 0
-0.0021249970 0.0066838290 0 0
-0.0015152310 0.0061060990 0 0
-0.0011058350 0.0058814210 0 0
-0.0009424570 0.0060828320 0 0
-0.0010478940 0.0067375510 0 0
-0.0014196920 0.0078236120 0 0
-0.0020294540 0.0092717340 0 0
-0.0028248110 0.0109721860 0 0
-0.0037332090 0.0127854940 0 0
-0.0046666230 0.0145556520 0 0
-0.0055279490 0.0161248660 0 0
-0.0062207030 0.0173492410 0 0
-0.0066618050 0.0181144900 0 0
-0.0067940750 0.0183496370 0 0
-0.0065950550 0.0180356330 0 0
-0.0060812990 0.0172065710 0 0
-0.0053079340 0.0159437380 0 0
-0.0043625680 0.0143652670 0 0
-0.0033538120 0.0126142200 0 0
-0.0023971210 0.0108462560 0 0
-0.0016014990 0.0092170020 0 0
-0.0010583410 0.0078693950 0 0
-0.0008316650 0.0069217440 0 0
-0.0009514910 0.0064576140 0 0
-0.0014139140 0.0065189000 0 0
-0.0021870810 0.0071029630 0 0
-0.0032178570 0.0081635710 0 0
-0.0044362900 0.0096145580 0 0
-0.0057593810 0.0113355090 0 0
-0.0070954810 0.0131798740 0 0
-0.0083486970 0.0149856040 0 0
-0.0094236480 0.0165875170 0 0
-0.0102319000 0.0178313150 0 0
-0.0107000780 0.0185894890 0 0
-0.0107782190 0.0187769500 0 0
-0.0104463040 0.0183621340 0 0
-0.0097175740 0.0173708480 0 0
-0.0086390220 0.0158833430 0 0
-0.0072898910 0.0140261770 0 0
-0.0057775420 0.0119596810 0 0
-0.0042286750 0.0098621450 0 0
-0.0027750920 0.0079129010 0 0
-0.0015365300 0.0062764260 0 0
-0.0006049690 0.0050885310 0 0
-0.0000333988 0.0044446970 0 0
0.0001697440 0.0043901670 0 0
0.0000396912 0.0049123120 0 0
-0.0003525150 0.0059385360 0 0
-0.0009137300 0.0073436120 0 0
-0.0015440670 0.0089659820 0 0
-0.0021483570 0.0106279580 0 0
-0.0026417000 0.0121550690 0 0
-0.0029519650 0.0133926210 0 0
-0.0030224790 0.0142191660 0 0
-0.0028154280 0.0145564350 0 0
-0.0023153730 0.0143753710 0 0
-0.0015323640 0.0136987830 0 0
-0.0005036900 0.0126004380 0 0
0.0007067060 0.0111988220 0 0
0.0020120740 0.0096447150 0 0
0.0033107660 0.0081044320 0 0
0.0044973090 0.0067416310 0 0
0.0054744150 0.0056999120 0 0
0.0061648490 0.0050876350 0 0
0.0065210070 0.0049662260 0 0
0.0065284320 0.0053432800 0 0
0.0062032060 0.0061719690 0 0
0.0055870160 0.0073574470 0 0
0.0047418010 0.0087690680 0 0
0.0037433690 0.0102558780 0 0
0.0026739610 0.0116627820 0 0
0.0016149550 0.0128458220 0 0
0.0006407470 0.0136854760 0 0
-0.0001861910 0.0140965080 0 0
-0.0008193210 0.0140332570 0 0
-0.0012307270 0.0134910420 0 0
-0.0014121520 0.0125055410 0 0
-0.0013748170 0.0111511450 0 0
-0.0011483470 0.0095371960 0 0
-0.0007784090 0.0078002130 0 0
-0.0003228330 0.0060919700 0 0
0.0001535330 0.0045649790 0 0
0.0005851860 0.0033566420 0 0
0.0009132030 0.0025731940 0 0
0.0010922390 0.0022760260 0 0
0.0010957960 0.0024738670 0 0
0.0009186090 0.0031232370 0 0
0.0005760490 0.0041367690 0 0
0.0001017580 0.0053959340 0 0
-0.0004549700 0.0067641800 0 0
-0.0010321510 0.0080985350 0 0
-0.0015598720 0.0092603590 0 0
-0.0019675040 0.0101264850 0 0
-0.0021924380 0.0106005380 0 0
-0.0021888210 0.0106229960 0 0
-0.0019349230 0.0101787970 0 0
-0.0014375210 0.0093015080 0 0
-0.0007315870 0.0080724420 0 0
0.0001250950 0.0066132330 0 0
0.0010602750 0.0050724860 0 0
0.0019952850 0.0036097330 0 0
0.0028506540 0.0023800130 0 0
0.0035497810 0.0015200740 0 0
0.0040231570 0.0011358690 0 0
0.0042152520 0.0012917310 0 0
0.0040937150 0.0020021490 0 0
0.0036577450 0.0032274530 0 0
0.0029417180 0.0048754590 0 0
0.0020121440 0.0068106070 0 0
0.0009585670 0.0088695120 0 0
-0.0001194350 0.0108792260 0 0
-0.0011257070 0.0126747900 0 0
-0.0019775820 0.0141147330 0 0
-0.0026112120 0.0150942780 0 0
-0.0029841760 0.0155552560 0 0
-0.0030784720 0.0154908850 0 0
-0.0029049490 0.0149444020 0 0
-0.0025063550 0.0140018960 0 0
-0.0019543950 0.0127804430 0 0
-0.0013391320 0.0114136420 0 0
-0.0007540760 0.0100376670 0 0
-0.0002832140 0.0087804360 0 0
0.0000059634 0.0077542310 0 0
0.0000651183 0.0070497500 0 0
-0.0001325870 0.0067292740 0 0
-0.0005894400 0.0068193570 0 0
-0.0012811410 0.0073059030 0 0
-0.0021576040 0.0081339610 0 0
-0.0031478400 0.0092126160 0 0
-0.0041685180 0.0104238650 0 0
-0.0051333910 0.0116337250 0 0
-0.0059611670 0.0127045650 0 0
-0.0065820860 0.0135085050 0 0
-0.0069442550 0.0139414180 0 0
-0.0070191760 0.0139360400 0 0
-0.0068051150 0.0134718220 0 0
-0.0063274900 0.0125790670 0 0
-0.0056358910 0.0113362210 0 0
-0.0047977060 0.0098615100 0 0
-0.0038893470 0.0083010370 0 0
-0.0029878300 0.0068146940 0 0
-0.0021651320 0.0055599780 0 0
-0.0014849760 0.0046739060 0 0
-0.0010004750 0.0042552000 0 0
-0.0007521370 0.0043507870 0 0
-0.0007661160 0.0049500430 0 0
-0.0010513500 0.0059875550 0 0
-0.0015947380 0.0073528110 0 0
-0.0023565710 0.0089041810 0 0
-0.0032701960 0.0104843250 0 0
-0.0042481870 0.0119350470 0 0
-0.0051939770 0.0131112340 0 0
-0.0060151860 0.0138939400 0 0
-0.0066345170 0.0142020110 0 0
-0.0069970700 0.0140009610 0 0
-0.0070757770 0.0133076260 0 0
-0.0068757770 0.0121893540 0 0
-0.0064360420 0.0107572010 0 0
-0.0058260480 0.0091534150 0 0
-0.0051369940 0.0075349960 0 0
-0.0044692500 0.0060566420 0 0
-0.0039185860 0.0048558080 0 0
-0.0035630210 0.0040408080 0 0
-0.0034514290 0.0036822550 0 0
-0.0035958010 0.0038082400 0 0
-0.0039702050 0.0044027010 0 0
-0.0045174800 0.0054058230 0 0
-0.0051607060 0.0067170680 0 0
-0.0058158790 0.0082028620 0 0
-0.0064041680 0.0097094030 0 0
-0.0068625150 0.0110786110 0 0
-0.0071507240 0.0121649870 0 0
-0.0072536150 0.0128518250 0 0
-0.0071778290 0.0130647280 0 0
-0.0069445750 0.0127800760 0 0
-0.0065822330 0.0120268360 0 0
-0.0061229600 0.0108815580 0 0
-0.0056039590 0.0094579120 0 0
-0.0050697220 0.0078933250 0 0
-0.0045706270 0.0063349620 0 0
-0.0041571960 0.0049262900 0 0
-0.0038735760 0.0037948960 0 0
-0.0037527140 0.0030422290 0 0
-0.0038122580 0.0027357320 0 0
-0.0040505880 0.0029040180 0 0
-0.0044450080 0.0035354930 0 0
-0.0049538390 0.0045797930 0 0
-0.0055215860 0.0059510120 0 0
-0.0060851680 0.0075329320 0 0
-0.0065800560 0.0091871420 0 0
-0.0069458400 0.0107642670 0 0
-0.0071310010 0.0121175370 0 0
-0.0070967930 0.0131176980 0 0
-0.0068197340 0.0136679900 0 0
-0.0062929770 0.0137166150 0 0
-0.0055283580 0.0132630910 0 0
-0.0045601410 0.0123571330 0 0
-0.0034484020 0.0110923800 0 0
-0.0022784950 0.0095977830 0 0
-0.0011540800 0.0080271430 0 0
-0.0001836660 0.0065459450 0 0
0.0005365270 0.0053153350 0 0
0.0009386280 0.0044744040 0 0
0.0009929140 0.0041235920 0 0
0.0007077990 0.0043128310 0 0
0.0001207120 0.0050371300 0 0
-0.0007141580 0.0062394200 0 0
-0.0017336760 0.0078177180 0 0
-0.0028670990 0.0096337550 0 0
-0.0040352700 0.0115227910 0 0
-0.0051519150 0.0133060770 0 0
-0.0061276600 0.0148066170 0 0
-0.0068762620 0.0158670790 0 0
-0.0073229200 0.0163678250 0 0
-0.0074138120 0.0162430710 0 0
-0.0071248940 0.0154928170 0 0
-0.0064676730 0.0141872370 0 0
-0.0054897250 0.0124609790 0 0
-0.0042697120 0.0104978090 0 0
-0.0029092350 0.0085087990 0 0
-0.0015227790 0.0067076400 0 0
-0.0002254410 0.0052860350 0 0
0.0008798610 0.0043922360 0 0
0.0017125790 0.0041155680 0 0
0.0022207930 0.0044783980 0 0
0.0023831140 0.0054357640 0 0
0.0022056850 0.0068826130 0 0
0.0017155120 0.0086680270 0 0
0.0009540240 0.0106147150 0 0
-0.0000261073 0.0125408360 0 0
-0.0011616540 0.0142804150 0 0
-0.0023797220 0.0156990060 0 0
-0.0036001750 0.0167026260 0 0
-0.0047398250 0.0172395770 0 0
-0.0057193080 0.0172973880 0 0
-0.0064731340 0.0168984370 0 0
-0.0069602150 0.0160964040 0 0
-0.0071698730 0.0149733010 0 0
-0.0071209070 0.0136355090 0 0
-0.0068558500 0.0122078920 0 0
-0.0064335990 0.0108265520 0 0
-0.0059215150 0.0096301430 0 0
-0.0053868230 0.0087479430 0 0
-0.0048879730 0.0082845230 0 0
-0.0044674090 0.0083043980 0 0
-0.0041471990 0.0088207670 0 0
-0.0039291890 0.0097907700 0 0
-0.0038004320 0.0111183040 0 0
-0.0037412380 0.0126644390 0 0
-0.0037315850 0.0142642430 0 0
-0.0037539740 0.0157475150 0 0
-0.0037935510 0.0169596450 0 0
-0.0038366020 0.0177786590 0 0
-0.0038680470 0.0181261990 0 0
-0.0038694740 0.0179720560 0 0
-0.0038197820 0.0173329540 0 0
-0.0036988820 0.0162671660 0 0
-0.0034931170 0.0148674290 0 0
-0.0032006720 0.0132540810 0 0
-0.0028362240 0.0115682820 0 0
-0.0024343710 0.0099638740 0 0
-0.0020498660 0.0085964710 0 0
-0.0017519760 0.0076093300 0 0
-0.0016124740 0.0071169120 0 0
-0.0016901770 0.0071885500 0 0
-0.0020171070 0.0078360330 0 0
-0.0025905850 0.0090088240 0 0
-0.0033722860 0.0105982950 0 0
-0.0042931050 0.0124503070 0 0
-0.0052621940 0.0143843290 0 0
-0.0061781930 0.0162156470 0 0
-0.0069409480 0.0177762480 0 0
-0.0074628030 0.0189311620 0 0
-0.0076784540 0.0195889720 0 0
-0.0075520720 0.0197065190 0 0
-0.0070807700 0.0192884090 0 0
-0.0062935020 0.0183822490 0 0
-0.0052456990 0.0170713170 0 0
-0.0040120720 0.0154668510 0 0
-0.0026797140 0.0137008600 0 0
-0.0013411990 0.0119182760 0 0
-0.0000862491 0.0102672710 0 0
0.0010083690 0.0088882520 0 0
0.0018885030 0.0079025360 0 0
0.0025278320 0.0074006250 0 0
0.0029260640 0.0074302270 0 0
0.0031021670 0.0079862970 0 0
0.0030871220 0.0090072200 0 0
0.0029182830 0.0103797270 0 0
0.0026348270 0.0119518000 0 0
0.0022742200 0.0135513270 0 0
0.0018702030 0.0150080840 0 0
0.0014520960 0.0161756420 0 0
0.0010445980 0.0169492010 0 0
0.0006672330 0.0172765570 0 0
0.0003330740 0.0171609400 0 0
0.0000468745 0.0166557720 0 0
-0.0001973200 0.0158536760 0 0
-0.0004187240 0.0148733770 0 0
-0.0006503010 0.0138462180 0 0
-0.0009342800 0.0129018900 0 0
-0.0013124700 0.0121539440 0 0
-0.0018149990 0.0116877850 0 0
-0.0024526510 0.0115535010 0 0
-0.0032156710 0.0117633190 0 0
-0.0040777450 0.0122924150 0 0
-0.0050014460 0.0130824900 0 0
-0.0059434860 0.0140475630 0 0
-0.0068607700 0.0150810890 0 0
-0.0077162160 0.0160642860 0 0
-0.0084805600 0.0168760040 0 0
-0.0091292500 0.0174036540 0 0
-0.0096378930 0.0175536830 0 0
-0.0099802950 0.0172608170 0 0
-0.0101312020 0.0164963250 0 0
-0.0100730000 0.0152743820 0 0
-0.0098029540 0.0136541830 0 0
-0.0093376290 0.0117361940 0 0
-0.0087132690 0.0096525850 0 0
-0.0079818080 0.0075530350 0 0
-0.0072030300 0.0055887500 0 0
-0.0064365020 0.0038984640 0 0
-0.0057375970 0.0025988600 0 0
-0.0051573880 0.0017791810 0 0
-0.0047416390 0.0014975200 0 0
-0.0045251300 0.0017763520 0 0
-0.0045223420 0.0025973480 0 0
-0.0047193220 0.0038976220 0 0
-0.0050710780 0.0055696950 0 0
-0.0055053250 0.0074669490 0 0
-0.0059309480 0.0094156210 0 0
-0.0062499210 0.0112324930 0 0
-0.0063718060 0.0127452670 0 0
-0.0062289040 0.0138122230 0 0
-0.0057886640 0.0143387490 0 0
-0.0050592340 0.0142889850 0 0
-0.0040858440 0.0136910340 0 0
-0.0029402160 0.0126340870 0 0
-0.0017088870 0.0112569490 0 0
-0.0004849760 0.0097296620 0 0
0.0006367040 0.0082318210 0 0
0.0015637950 0.0069320550 0 0
0.0022124500 0.0059718350 0 0
0.0025170200 0.0054538810 0 0
0.0024412590 0.0054340310 0 0
0.0019855380 0.0059170220 0 0
0.0011869210 0.0068577450 0 0
0.0001135290 0.0081675990 0 0
-0.0011433350 0.0097234190 0 0
-0.0024766810 0.0113777150 0 0
-0.0037710690 0.0129711000 0 0
-0.0049114930 0.0143470890 0 0
-0.0057942780 0.0153676400 0 0
-0.0063378700 0.0159273740 0 0
-0.0064910480 0.0159650880 0 0
-0.0062372030 0.0154717550 0 0
-0.0055943980 0.0144936790 0 0
-0.0046120550 0.0131286680 0 0
-0.0033661490 0.0115147510 0 0
-0.0019542700 0.0098139820 0 0
-0.0004896160 0.0081949090 0 0
0.0009082420 0.0068159640 0 0
0.0021258420 0.0058108760 0 0
0.0030683600 0.0052772410 0 0
0.0036684810 0.0052691780 0 0
0.0038906760 0.0057934270 0 0
0.0037323300 0.0068076110 0 0
0.0032226050 0.0082210240 0 0
0.0024192000 0.0098996760 0 0
0.0014038800 0.0116763740 0 0
0.0002776490 0.0133654320 0 0
-0.0008443430 0.0147813950 0 0
-0.0018393990 0.0157602980 0 0
-0.0025876140 0.0161799360 0 0
-0.0029867540 0.0159750350 0 0
-0.0029691120 0.0151448300 0 0
-0.0025154070 0.0137528890 0 0
-0.0016612580 0.0119199500 0 0
-0.0004942980 0.0098106080 0 0
0.0008572440 0.0076157160 0 0
0.0022416300 0.0055335670 0 0
0.0035025580 0.0037522410 0 0
0.0044972760 0.0024335120 0 0
0.0051122970 0.0016980930 0 0
0.0052749220 0.0016132690 0 0
0.0049589970 0.0021851780 0 0
0.0041847630 0.0033575760 0 0
0.0030137460 0.0050174160 0 0
0.0015401760 0.0070060450 0 0
-0.0001192530 0.0091345900 0 0
-0.0018361520 0.0112027790 0 0
-0.0034818390 0.0130197770 0 0
-0.0049393690 0.0144239130 0 0
-0.0061154090 0.0152982550 0 0
-0.0069504470 0.0155807530 0 0
-0.0074246630 0.0152690390 0 0
-0.0075561930 0.0144194860 0 0
-0.0073918610 0.0131395340 0 0
-0.0069957370 0.0115744290 0 0
-0.0064407190 0.0098919650 0 0
-0.0058032620 0.0082675870 0 0
-0.0051599440 0.0068695440 0 0
-0.0045857630 0.0058434630 0 0
-0.0041523150 0.0052974620 0 0
-0.0039223380 0.0052903900 0 0
-0.0039402630 0.0058256530 0 0
-0.0042224970 0.0068516870 0 0
-0.0047516090 0.0082688220 0 0
-0.0054765050 0.0099410830 0 0
-0.0063191150 0.0117108120 0 0
-0.0071865730 0.0134137010 0 0
-0.0079858590 0.0148921190 0 0
-0.0086371120 0.0160063950 0 0
-0.0090834260 0.0166454670 0 0
-0.0092962630 0.0167377610 0 0
-0.0092760600 0.0162611120 0 0
-0.0090485770 0.0152490530 0 0
-0.0086584010 0.0137906940 0 0
-0.0081614020 0.0120229650 0 0
-0.0076181660 0.0101162160 0 0
-0.0070888580 0.0082556940 0 0
-0.0066279030 0.0066216330 0 0
-0.0062782050 0.0053704030 0 0
-0.0060669520 0.0046192970 0 0
-0.0060041740 0.0044369280 0 0
-0.0060837080 0.0048393580 0 0
-0.0062866500 0.0057905120 0 0
-0.0065866660 0.0072058410 0 0
-0.0069551340 0.0089594250 0 0
-0.0073644220 0.0108946590 0 0
-0.0077885630 0.0128375530 0 0
-0.0082013000 0.0146112920 0 0
-0.0085730540 0.0160511480 0 0
-0.0088695370 0.0170191370 0 0
-0.0090538750 0.0174182710 0 0
-0.0090923190 0.0172051810 0 0
-0.0089621380 0.0163978060 0 0
-0.0086590430 0.0150747710 0 0
-0.0082010500 0.0133661980 0 0
-0.0076275950 0.0114389170 0 0
-0.0069954700 0.0094794220 0 0
-0.0063730110 0.0076759050 0 0
-0.0058318420 0.0061994190 0 0
-0.0054364560 0.0051854170 0 0
-0.0052345140 0.0047188230 0 0
-0.0052498190 0.0048253650 0 0
-0.0054781310 0.0054701810 0 0
-0.0058870870 0.0065637360 0 0
-0.0064221080 0.0079741690 0 0
-0.0070170470 0.0095433330 0 0
-0.0076045120 0.0111029750 0 0
-0.0081214690 0.0124894790 0 0
-0.0085113200 0.0135580140 0 0
-0.0087272020 0.0141965630 0 0
-0.0087383510 0.0143381640 0 0
-0.0085362470 0.0139686980 0 0
-0.0081365620 0.0131286180 0 0
-0.0075764380 0.0119086210 0 0
-0.0069088320 0.0104399630 0 0
-0.0061954810 0.0088806610 0 0
-0.0054999250 0.0073994260 0 0
-0.0048814130 0.0061590000 0 0
-0.0043894800 0.0053002590 0 0
-0.0040596380 0.0049287760 0 0
-0.0039115460 0.0051052320 0 0
-0.0039501130 0.0058402430 0 0
-0.0041682180 0.0070938400 0 0
-0.0045488650 0.0087789710 0 0
-0.0050653260 0.0107675850 0 0
-0.0056793180 0.0128990020 0 0
-0.0063392090 0.0149920990 0 0
-0.0069814530 0.0168624460 0 0
-0.0075370800 0.0183428950 0 0
-0.0079422640 0.0193036640 0 0
-0.0081501500 0.0196677670 0 0
-0.0081398740 0.0194192320 0 0
-0.0079198730 0.0186032580 0 0
-0.0075258270 0.0173191430 0 0
-0.0070148940 0.0157079040 0 0
-0.0064574750 0.0139362010 0 0
-0.0059286080 0.0121779990 0 0
-0.0055009720 0.0105963590 0 0
-0.0052390300 0.0093279840 0 0
-0.0051922860 0.0084717530 0 0
-0.0053869080 0.0080818090 0 0
-0.0058183860 0.0081656800 0 0
-0.0064494510 0.0086866870 0 0
-0.0072146850 0.0095690080 0 0
-0.0080299850 0.0107043690 0 0
-0.0088045830 0.0119606260 0 0
-0.0094528930 0.0131929880 0 0
-0.0099036930 0.0142576250 0 0
-0.0101062510 0.0150255490 0 0
-0.0100338370 0.0153946670 0 0
-0.0096843660 0.0152996010 0 0
-0.0090783500 0.0147193870 0 0
-0.0082555950 0.0136823620 0 0
-0.0072716350 0.0122667580 0 0
-0.0061931200 0.0105950000 0 0
-0.0050920150 0.0088205440 0 0
-0.0040408740 0.0071091810 0 0
-0.0031110410 0.0056195480 0 0
-0.0023723640 0.0044869570 0 0
-0.0018906170 0.0038112770 0 0
-0.0017197970 0.0036476920 0 0
-0.0018907030 0.0040006230 0 0
-0.0024010720 0.0048227350 0 0
-0.0032125590 0.0060201530 0 0
-0.0042558810 0.0074632290 0 0
-0.0054410600 0.0090013110 0 0
-0.0066683070 0.0104793700 0 0
-0.0078375260 0.0117542430 0 0
-0.0088576290 0.0127088410 0 0
-0.0096565380 0.0132635330 0 0
-0.0101895280 0.0133841830 0 0
-0.0104428230 0.0130854930 0 0
-0.0104321270 0.0124281180 0 0
-0.0101980620 0.0115101220 0 0
-0.0098006780 0.0104546720 0 0
-0.0093138390 0.0093949600 0 0
-0.0088175690 0.0084578730 0 0
-0.0083863420 0.0077502320 0 0
-0.0080761710 0.0073509370 0 0
-0.0079170530 0.0073084710 0 0
-0.0079135520 0.0076410820 0 0
-0.0080498880 0.0083379530 0 0
-0.0082950860 0.0093603720 0 0
-0.0086073700 0.0106420210 0 0
-0.0089390370 0.0120894540 0 0
-0.0092417600 0.0135855360 0 0
-0.0094705560 0.0149975350 0 0
-0.0095846890 0.0161893490 0 0
-0.0095465570 0.0170360090 0 0
-0.0093226980 0.0174386310 0 0
-0.0088896040 0.0173383210 0 0
-0.0082414760 0.0167270140 0 0
-0.0073947760 0.0156526770 0 0
-0.0063880630 0.0142171130 0 0
-0.0052790920 0.0125657390 0 0
-0.0041405210 0.0108701180 0 0
-0.0030545150 0.0093063220 0 0
-0.0021065500 0.0080338280 0 0
-0.0013779000 0.0071788730 0 0
-0.0009363660 0.0068234820 0 0
-0.0008273410 0.0069998480 0 0
-0.0010684040 0.0076900660 0 0
-0.0016484840 0.0088308910 0 0
-0.0025304120 0.0103214970 0 0
-0.0036550600 0.0120319530 0 0
-0.0049450010 0.0138123330 0 0
-0.0063070800 0.0155038270 0 0
-0.0076358750 0.0169522830 0 0
-0.0088209270 0.0180236420 0 0
-0.0097587150 0.0186199770 0 0
-0.0103668860 0.0186927730 0 0
-0.0105962230 0.0182485030 0 0
-0.0104372020 0.0173441390 0 0
-0.0099206690 0.0160752450 0 0
-0.0091130880 0.0145617940 0 0
-0.0081069550 0.0129354540 0 0
-0.0070078450 0.0113294370 0 0
-0.0059210390 0.0098701240 0 0
-0.0049409780 0.0086695900 0 0
-0.0041450810 0.0078187900 0 0
-0.0035907130 0.0073810370 0 0
-0.0033129370 0.0073855320 0 0
-0.0033217100 0.0078221870 0 0
-0.0035995980 0.0086403760 0 0
-0.0041023350 0.0097530990 0 0
-0.0047636730 0.0110453810 0 0
-0.0055042600 0.0123849440 0 0
-0.0062431060 0.0136341950 0 0
-0.0069091840 0.0146630580 0 0
-0.0074503360 0.0153618820 0 0
-0.0078369090 0.0156529400 0 0
-0.0080598650 0.0154984030 0 0
-0.0081269100 0.0149035240 0 0
-0.0080610010 0.0139158080 0 0
-0.0079018380 0.0126215260 0 0
-0.0077068880 0.0111394470 0 0
-0.0075477210 0.0096108580 0 0
-0.0074997320 0.0081864220 0 0
-0.0076275280 0.0070115040 0 0
-0.0079717640 0.0062112870 0 0
-0.0085427560 0.0058765840 0 0
-0.0093218390 0.0060517470 0 0
-0.0102676200 0.0067271470 0 0
-0.0113237040 0.0078391100 0 0
-0.0124260720 0.0092779720 0 0
-0.0135096780 0.0109016990 0 0
-0.0145143240 0.0125514980 0 0
-0.0153898120 0.0140670480 0 0
-0.0160996100 0.0153005220 0 0
-0.0166214540 0.0161298620 0 0
-0.0169444140 0.0164711200 0 0
-0.0170644520 0.0162879150 0 0
-0.0169817990 0.0155960890 0 0
-0.0167020290 0.0144633080 0 0
-0.0162393220 0.0130033210 0 0
-0.0156190310 0.0113640480 0 0
-0.0148787180 0.0097105660 0 0
-0.0140680130 0.0082067430 0 0
-0.0132461280 0.0069990700 0 0
-0.0124753160 0.0062040410 0 0
-0.0118111360 0.0058991630 0 0
-0.0112932090 0.0061178330 0 0
-0.0109395720 0.0068481190 0 0
-0.0107442700 0.0080346000 0 0
-0.0106767470 0.0095820910 0 0
-0.0106841230 0.0113618450 0 0
-0.0106980390 0.0132224380 0 0
-0.0106446440 0.0150058870 0 0
-0.0104551850 0.0165662940 0 0
-0.0100760490 0.0177865890 0 0
-0.0094767810 0.0185900010 0 0
-0.0086541040 0.0189454210 0 0
-0.0076316080 0.0188675810 0 0
-0.0064555460 0.0184133230 0 0
-0.0051875860 0.0176742790 0 0
-0.0038969090 0.0167657730 0 0
-0.0026543110 0.0158128030 0 0
-0.0015285770 0.0149356890 0 0
-0.0005832760 0.0142377460 0 0
0.0001269910 0.0137959370 0 0
0.0005610520 0.0136545990 0 0
0.0006965840 0.0138222490 0 0
0.0005351240 0.0142716920 0 0
0.0001041230 0.0149436840 0 0
-0.0005441460 0.0157533850 0 0
-0.0013356420 0.0165983420 0 0
-0.0021806240 0.0173676260 0 0
-0.0029841080 0.0179526050 0 0
-0.0036586060 0.0182589870 0 0
-0.0041358240 0.0182182070 0 0
-0.0043753760 0.0177956420 0 0
-0.0043688630 0.0169946240 0 0
-0.0041383940 0.0158572020 0 0
-0.0037312200 0.0144625530 0 0
-0.0032129450 0.0129225170 0 0
-0.0026603910 0.0113736550 0 0
-0.0021539360 0.0099662140 0 0
-0.0017685950 0.0088506780 0 0
-0.0015639540 0.0081626150 0 0
-0.0015753260 0.0080072220 0 0
-0.0018096950 0.0084453410 0 0
-0.0022480100 0.0094830250 0 0
-0.0028514400 0.0110669910 0 0
-0.0035675470 0.0130872980 0 0
-0.0043348900 0.0153863930 0 0
-0.0050876660 0.0177728650 0 0
-0.0057609360 0.0200390610 0 0
-0.0062947120 0.0219819220 0 0
-0.0066362060 0.0234254210 0 0
-0.0067421330 0.0242413190 0 0
-0.0065827160 0.0243641520 0 0
-0.0061467650 0.0237978120 0 0
-0.0054460540 0.0226132960 0 0
-0.0045174810 0.0209384480 0 0
-0.0034224040 0.0189412560 0 0
-0.0022427950 0.0168094790 0 0
-0.0010729380 0.0147306000 0 0
-0.0000070434 0.0128754480 0 0
0.0008728430 0.0113863900 0 0
0.0015046360 0.0103691380 0 0
0.0018503130 0.0098871950 0 0
0.0018982030 0.0099581570 0 0
0.0016634810 0.0105514720 0 0
0.0011864380 0.0115890310 0 0
0.0005284730 0.0129507500 0 0
-0.0002344180 0.0144852500 0 0
-0.0010203620 0.0160239880 0 0
-0.0017507290 0.0173972330 0 0
-0.0023577870 0.0184507490 0 0
-0.0027905570 0.0190619110 0 0
-0.0030188340 0.0191533230 0 0
-0.0030348400 0.0187016340 0 0
-0.0028526380 0.0177397630 0 0
-0.0025058080 0.0163520240 0 0
-0.0020430810 0.0146638920 0 0
-0.0015223390 0.0128297330 0 0
-0.0010053590 0.0110197020 0 0
-0.0005547110 0.0094046080 0 0
-0.0002303840 0.0081387530 0 0
-0.0000835618 0.0073435120 0 0
-0.0001484270 0.0070949750 0 0
-0.0004351340 0.0074179430 0 0
-0.0009267440 0.0082866850 0 0
-0.0015812570 0.0096308800 0 0
-0.0023377300 0.0113445230 0 0
-0.0031241550 0.0132965750 0 0
-0.0038650340 0.0153431330 0 0
-0.0044879890 0.0173407010 0 0
-0.0049296810 0.0191589660 0 0
-0.0051407550 0.0206903460 0 0
-0.0050898320 0.0218546110 0 0
-0.0047671180 0.0226000510 0 0
-0.0041872010 0.0229046960 0 0
-0.0033896970 0.0227796960 0 0
-0.0024365410 0.0222736490 0 0
-0.0014057150 0.0214740830 0 0
-0.0003827520 0.0205020370 0 0
0.0005480090 0.0194986420 0 0
0.0013113450 0.0186066770 0 0
0.0018481690 0.0179513850 0 0
0.0021214830 0.0176237760 0 0
0.0021201050 0.0176687370 0 0
0.0018586020 0.0180794830 0 0
0.0013737180 0.0187987900 0 0
0.0007198720 0.0197269910 0 0
-0.0000350497 0.0207363430 0 0
-0.0008151610 0.0216895730 0 0
-0.0015440400 0.0224583350 0 0
-0.0021523700 0.0229377750 0 0
-0.0025839970 0.0230558900 0 0
-0.0028005150 0.0227782260 0 0
-0.0027852620 0.0221087320 0 0
-0.0025463910 0.0210875740 0 0
-0.0021172680 0.0197863710 0 0
-0.0015534240 0.0183011490 0 0
-0.0009274400 0.0167441650 0 0
-0.0003230360 0.0152359410 0 0
0.0001724650 0.0138973250 0 0
0.0004783450 0.0128399010 0 0
0.0005314650 0.0121542470 0 0
0.0002939460 0.0118983320 0 0
-0.0002446810 0.0120891560 0 0
-0.0010693650 0.0126987680 0 0
-0.0021425610 0.0136548520 0 0
-0.0034068380 0.0148467880 0 0
-0.0047870790 0.0161375870 0 0
-0.0061931650 0.0173799630 0 0
-0.0075259110 0.0184335170 0 0
-0.0086885990 0.0191805490 0 0
-0.0096009240 0.0195390670 0 0
-0.0102089610 0.0194714230 0 0
-0.0104891590 0.0189869950 0 0
-0.0104487520 0.0181386920 0 0
-0.0101238980 0.0170150710 0 0
-0.0095752450 0.0157307900 0 0
-0.0088816660 0.0144167340 0 0
-0.0081332630 0.0132094020 0 0
-0.0074233190 0.0122393670 0 0
-0.0068386580 0.0116196000 0 0
-0.0064499020 0.0114344810 0 0
-0.0063045380 0.0117305610 0 0
-0.0064238460 0.0125102310 0 0
-0.0068015030 0.0137288990 0 0
-0.0074016640 0.0152963350 0 0
-0.0081585910 0.0170831160 0 0
-0.0089820300 0.0189322630 0 0
-0.0097690690 0.0206749580 0 0
-0.0104190670 0.0221489810 0 0
-0.0108476610 0.0232178800 0 0
-0.0109977780 0.0237874130 0 0
-0.0108472530 0.0238158890 0 0
-0.0104127670 0.0233172650 0 0
-0.0097489820 0.0223575560 0 0
-0.0089417680 0.0210454390 0 0
-0.0080956910 0.0195188520 0 0
-0.0073176860 0.0179299650 0 0
-0.0067005430 0.0164298560 0 0
-0.0063105970 0.0151537350 0 0
-0.0061825160 0.0142081060 0 0
-0.0063210370 0.0136607790 0 0
-0.0067066260 0.0135340630 0 0
-0.0073009390 0.0138021510 0 0
-0.0080495650 0.0143938590 0 0
-0.0088829870 0.0152002740 0 0
-0.0097187260 0.0160862220 0 0
-0.0104671250 0.0169049530 0 0
-0.0110410540 0.0175146600 0 0
-0.0113671570 0.0177944670 0 0
-0.0113954810 0.0176580420 0 0
-0.0111054760 0.0170632700 0 0
-0.0105079120 0.0160167110 0 0
-0.0096427370 0.0145725450 0 0
-0.0085724710 0.0128263660 0 0
-0.0073715780 0.0109046400 0 0
-0.0061152910 0.0089511680 0 0
-0.0048725440 0.0071121300 0 0
-0.0037037300 0.0055217680 0 0
-0.0026601380 0.0042915360 0 0
-0.0017830300 0.0035043030 0 0
-0.0011024940 0.0032121880 0 0
-0.0006362650 0.0034354220 0 0
-0.0003885320 0.0041613830 0 0
-0.0003491330 0.0053443850 0 0
-0.0004934150 0.0069066560 0 0
-0.0007827990 0.0087411290 0 0
-0.0011660300 0.0107170110 0 0
-0.0015819570 0.0126884910 0 0
-0.0019647010 0.0145066720 0 0
-0.0022503050 0.0160340620 0 0
-0.0023831080 0.0171588400 0 0
-0.0023214880 0.0178053010 0 0
-0.0020438020 0.0179399110 0 0
-0.0015541680 0.0175752900 0 0
-0.0008860190 0.0167728620 0 0
-0.0001016860 0.0156412730 0 0
0.0007123460 0.0143272440 0 0
0.0014546460 0.0129990040 0 0
0.0020226940 0.0118257760 0 0
0.0023295110 0.0109574790 0 0
0.0023187330 0.0105079050 0 0
0.0019736710 0.0105438200 0 0
0.0013182490 0.0110802660 0 0
0.0004106240 0.0120804150 0 0
-0.0006677100 0.0134595100 0 0
-0.0018240040 0.0150940460 0 0
-0.0029650600 0.0168357960 0 0
-0.0040063210 0.0185279810 0 0
-0.0048800860 0.0200204550 0 0
-0.0055424120 0.0211816890 0 0
-0.0059761850 0.0219073740 0 0
-0.0061881760 0.0221276640 0 0
-0.0062011710 0.0218147640 0 0
-0.0060452530 0.0209897240 0 0
-0.0057520570 0.0197250050 0 0
-0.0053528370 0.0181393360 0 0
-0.0048787980 0.0163839670 0 0
-0.0043621520 0.0146237410 0 0
-0.0038371870 0.0130186010 0 0
-0.0033406230 0.0117089850 0 0
-0.0029105820 0.0108048540 0 0
-0.0025841940 0.0103769900 0 0
-0.0023932900 0.0104505320 0 0
-0.0023575530 0.0110021310 0 0
-0.0024774160 0.0119621620 0 0
-0.0027308520 0.0132221510 0 0
-0.0030761140 0.0146461950 0 0
-0.0034591880 0.0160848830 0 0
-0.0038231140 0.0173907580 0 0
-0.0041163950 0.0184343360 0 0
-0.0042991780 0.0191187020 0 0
-0.0043465780 0.0193899800 0 0
-0.0042482360 0.0192412470 0 0
-0.0040048770 0.0187089170 0 0
-0.0036252010 0.0178634360 0 0
-0.0031251660 0.0167987610 0 0
-0.0025286330 0.0156242470 0 0
-0.0018678360 0.0144587210 0 0
-0.0011832330 0.0134237070 0 0
-0.0005224110 0.0126335240 0 0
0.0000624830 0.0121827860 0 0
0.0005193480 0.0121341640 0 0
0.0008030770 0.0125099160 0 0
0.0008844630 0.0132894380 0 0
0.0007592700 0.0144124590 0 0
0.0004539720 0.0157853850 0 0
0.0000249612 0.0172885760 0 0
-0.0004486260 0.0187845510 0 0
-0.0008749090 0.0201283490 0 0
-0.0011594790 0.0211801470 0 0
-0.0012163130 0.0218192160 0 0
-0.0009796060 0.0219583690 0 0
-0.0004149390 0.0215576920 0 0
0.0004721740 0.0206350540 0 0
0.0016331120 0.0192695990 0 0
0.0029810770 0.0175947040 0 0
0.0044036580 0.0157802380 0 0
0.0057784820 0.0140082350 0 0
0.0069869790 0.0124477960 0 0
0.0079243410 0.0112343430 0 0
0.0085066640 0.0104568000 0 0
0.0086770840 0.0101536430 0 0
0.0084114610 0.0103158050 0 0
0.0077223930 0.0108932290 0 0
0.0066594350 0.0118025690 0 0
0.0053040670 0.0129352880 0 0
0.0037603020 0.0141665160 0 0
0.0021436790 0.0153643760 0 0
0.0005709800 0.0163987510 0 0
-0.0008485650 0.0171498890 0 0
-0.0020209590 0.0175185070 0 0
-0.0028745680 0.0174374210 0 0
-0.0033663130 0.0168821110 0 0
-0.0034855020 0.0158772070 0 0
-0.0032543200 0.0144969800 0 0
-0.0027255390 0.0128593410 0 0
-0.0019786350 0.0111141710 0 0
-0.0011144070 0.0094275050 0 0
-0.0002471220 0.0079629420 0 0
0.0005061290 0.0068615570 0 0
0.0010378040 0.0062226300 0 0
0.0012627150 0.0060890110 0 0
0.0011297340 0.0064409250 0 0
0.0006300770 0.0071998310 0 0
-0.0002000910 0.0082411580 0 0
-0.0012833700 0.0094128400 0 0
-0.0025104640 0.0105558390 0 0
-0.0037542800 0.0115232960 0 0
-0.0048867600 0.0121956580 0 0
-0.0057945440 0.0124903790 0 0
-0.0063904040 0.0123666060 0 0
-0.0066204500 0.0118260430 0 0
-0.0064681430 0.0109101950 0 0
-0.0059545380 0.0096941110 0 0
-0.0051341270 0.0082777790 0 0
-0.0040878540 0.0067765950 0 0
-0.0029152680 0.0053115130 0 0
-0.0017258660 0.0039990160 0 0
-0.0006290300 0.0029412810 0 0
0.0002766080 0.0022174330 0 0
0.0009123300 0.0018770900 0 0
0.0012256910 0.0019371440 0 0
0.0011938140 0.0023817090 0 0
0.0008234010 0.0031642410 0 0
0.0001484540 0.0042109510 0 0
-0.0007714450 0.0054251990 0 0
-0.0018516930 0.0066931240 0 0
-0.0029860000 0.0078914630 0 0
-0.0040559330 0.0088980980 0 0
-0.0049451950 0.0096043030 0 0
-0.0055543600 0.0099265410 0 0
-0.0058125330 0.0098158270 0 0
-0.0056843290 0.0092633530 0 0
-0.0051726450 0.0083016380 0 0
-0.0043183330 0.0070011600 0 0
-0.0031962420 0.0054632970 0 0
-0.0019061210 0.0038107470 0 0
-0.0005585690 0.0021762980 0 0
0.0007409590 0.0006909310 0 0
0.0019053400 -0.0005274780 0 0
0.0028728670 -0.0013841700 0 0
0.0036085040 -0.0018162290 0 0
0.0041020320 -0.0017995350 0 0
0.0043660190 -0.0013528010 0 0
0.0044341700 -0.0005373950 0 0
0.0043576420 0.0005483890 0 0
0.0041977970 0.0017812770 0 0
0.0040174670 0.0030300330 0 0
0.0038738480 0.0041733830 0 0
0.0038138830 0.0051135230 0 0
0.0038707960 0.0057830610 0 0
0.0040611080 0.0061469740 0 0
0.0043839090 0.0062014580 0 0
0.0048233580 0.0059710300 0 0
0.0053519180 0.0055056620 0 0
0.0059314800 0.0048787660 0 0
0.0065132060 0.0041845460 0 0
0.0070396820 0.0035322140 0 0
0.0074517660 0.0030357520 0 0
0.0076988270 0.0027999630 0 0
0.0077481980 0.0029053260 0 0
0.0075898190 0.0033951760 0 0
0.0072353100 0.0042683010 0 0
0.0067146130 0.0054783670 0 0
0.0060736560 0.0069394790 0 0
0.0053732990 0.0085360190 0 0
0.0046873770 0.0101345910 0 0
0.0040975500 0.0115959460 0 0
0.0036830390 0.0127859530 0 0
0.0035057950 0.0135866610 0 0
0.0035967200 0.0139084080 0 0
0.0039499530 0.0137014240 0 0
0.0045268710 0.0129636920 0 0
0.0052653580 0.0117428170 0 0
0.0060893140 0.0101321660 0 0
0.0069167270 0.0082624560 0 0
0.0076665230 0.0062894720 0 0
0.0082640320 0.0043790710 0 0
0.0086450920 0.0026915480 0 0
0.0087596260 0.0013672190 0 0
0.0085754850 0.0005140090 0 0
0.0080827430 0.0001976590 0 0
0.0072983240 0.0004355700 0 0
0.0062696910 0.0011951170 0 0
0.0050742080 0.0023966910 0 0
0.0038114030 0.0039211540 0 0
0.0025891780 0.0056205830 0 0
0.0015077630 0.0073308170 0 0
0.0006465730 0.0088850810 0 0
0.0000586052 0.0101286800 0 0
-0.0002275970 0.0109342220 0 0
-0.0002033580 0.0112156700 0 0
0.0001228420 0.0109390780 0 0
0.0007256880 0.0101279050 0 0
0.0015630480 0.0088610320 0 0
0.0025778980 0.0072632110 0 0
0.0037021640 0.0054899610 0 0
0.0048599320 0.0037101050 0 0
0.0059686870 0.0020886650 0 0
0.0069412580 0.0007720350 0 0
0.0076920540 -0.0001234250 0 0
0.0081476110 -0.0005193420 0 0
0.0082582600 -0.0003811570 0 0
0.0080078920 0.0002765000 0 0
0.0074199200 0.0013856090 0 0
0.0065576100 0.0028257980 0 0
0.0055177120 0.0044344050 0 0
0.0044184460 0.0060252860 0 0
0.0033844290 0.0074122690 0 0
0.0025307560 0.0084319270 0 0
0.0019476650 0.0089616280 0 0
0.0016877060 0.0089315440 0 0
0.0017584520 0.0083310400 0 0
0.0021236500 0.0072098120 0 0
0.0027135270 0.0056731970 0 0
0.0034408420 0.0038706960 0 0
0.0042166330 0.0019785260 0 0
0.0049614130 0.0001792800 0 0
0.0056113060 -0.0013580970 0 0
0.0061203930 -0.0024960840 0 0
0.0064607390 -0.0031426540 0 0
0.0066216260 -0.0032600370 0 0
0.0066088100 -0.0028666200 0 0
0.0064431560 -0.0020313120 0 0
0.0061576840 -0.0008620160 0 0
0.0057928510 0.0005082490 0 0
0.0053903740 0.0019346300 0 0
0.0049869850 0.0032724250 0 0
0.0046112870 0.0043885200 0 0
0.0042856220 0.0051729780 0 0
0.0040301680 0.0055499430 0 0
0.0038647160 0.0054855890 0 0
0.0038068600 0.0049914450 0 0
0.0038675870 0.0041232960 0 0
0.0040452120 0.0029762580 0 0
0.0043204210 0.0016761040 0 0
0.0046561330 0.0003670470 0 0
0.0050023910 -0.0008034320 0 0
0.0053030810 -0.0017015730 0 0
0.0055024120 -0.0022237850 0 0
0.0055519500 -0.0023089130 0 0
0.0054194110 -0.0019432460 0 0
0.0050973550 -0.0011581410 0 0
0.0046073590 -0.0000233419 0 0
0.0039973660 0.0013604490 0 0
0.0033342130 0.0028682980 0 0
0.0026945240 0.0043583540 0 0
0.0021550810 0.0056822020 0 0
0.0017826170 0.0066991690 0 0
0.0016244460 0.0072925980 0 0
0.0017030400 0.0073844330 0 0
0.0020164740 0.0069448720 0 0
0.0025430820 0.0059955890 0 0
0.0032470950 0.0046069070 0 0
0.0040834360 0.0028898900 0 0
0.0050014010 0.0009846200 0 0
0.0059476030 -0.0009535930 0 0
0.0068688190 -0.0027683340 0 0
0.0077148870 -0.0043154800 0 0
0.0084410530 -0.0054749140 0 0
0.0090090850 -0.0061591610 0 0
0.0093869750 -0.0063183160 0 0
0.0095480360 -0.0059428980 0 0
0.0094715820 -0.0050664730 0 0
0.0091471110 -0.0037665720 0 0
0.0085812480 -0.0021607670 0 0
0.0078041090 -0.0003969110 0 0
0.0068715260 0.0013612630 0 0
0.0058611080 0.0029510640 0 0
0.0048622510 0.0042277490 0 0
0.0039623770 0.0050796830 0 0
0.0032331070 0.0054404760 0 0
0.0027202360 0.0052956000 0 0
0.0024406210 0.0046810530 0 0
0.0023865380 0.0036749090 0 0
0.0025338920 0.0023856220 0 0
0.0028490310 0.0009404480 0 0
0.0032917070 -0.0005247730 0 0
0.0038155860 -0.0018742280 0 0
0.0043692750 -0.0029800190 0 0
0.0048999240 -0.0037312230 0 0
0.0053593620 -0.0040450440 0 0
0.0057107180 -0.0038784320 0 0
0.0059326960 -0.0032368310 0 0
0.0060203190 -0.0021768530 0 0
0.0059837920 -0.0008015580 0 0
0.0058471050 0.0007508960 0 0
0.0056453900 0.0023227510 0 0
0.0054197670 0.0037532910 0 0
0.0052108400 0.0048946370 0 0
0.0050529120 0.0056261790 0 0
0.0049697060 0.0058671610 0 0
0.0049715400 0.0055860340 0 0
0.0050544210 0.0048050020 0 0
0.0052015270 0.0035989120 0 0
0.0053859290 0.0020880900 0 0
0.0055732550 0.0004251760 0 0
0.0057250110 -0.0012224850 0 0
0.0058031540 -0.0026918650 0 0
0.0057741550 -0.0038418690 0 0
0.0056114320 -0.0045677590 0 0
0.0052979980 -0.0048111600 0 0
0.0048308390 -0.0045650410 0 0
0.0042253750 -0.0038733970 0 0
0.0035167330 -0.0028255000 0 0
0.0027567290 -0.0015454440 0 0
0.0020085570 -0.0001787560 0 0
0.0013406610 0.0011221720 0 0
0.0008193560 0.0022126820 0 0
0.0005004180 0.0029696440 0 0
0.0004212290 0.0033033900 0 0
0.0005947420 0.0031666530 0 0
0.0010069580 0.0025595730 0 0
0.0016195770 0.0015300760 0 0
0.0023766360 0.0001695260 0 0
0.0032122240 -0.0013956640 0 0
0.0040576710 -0.0030155970 0 0
0.0048476760 -0.0045305110 0 0
0.0055247450 -0.0057850420 0 0
0.0060415160 -0.0066419870 0 0
0.0063618280 -0.0069948590 0 0
0.0064625180 -0.0067782930 0 0
0.0063368470 -0.0059751160 0 0
0.0059980910 -0.0046191820 0 0
0.0054810350 -0.0027935700 0 0
0.0048411050 -0.0006245510 0 0
0.0041526500 0.0017278780 0 0
0.0035057140 0.0040830750 0 0
0.0029984780 0.0062569330 0 0
0.0027251020 0.0080813060 0 0
0.0027618380 0.0094216080 0 0
0.0031544490 0.0101893670 0 0
0.0039096090 0.0103491500 0 0
0.0049925320 0.0099209650 0 0
0.0063307550 0.0089787300 0 0
0.0078218460 0.0076438450 0 0
0.0093437760 0.0060734100 0 0
0.0107682300 0.0044448740 0 0
0.0119762400 0.0029396740 0 0
0.0128731310 0.0017272670 0 0
0.0133987020 0.0009501170 0 0
0.0135305100 0.0007101200 0 0
0.0132822240 0.0010569710 0 0
0.0127006380 0.0019800650 0 0
0.0118619080 0.0034066020 0 0
0.0108645740 0.0052073130 0 0
0.0098180430 0.0072090400 0 0
0.0088285200 0.0092125720 0 0
0.0079858950 0.0110139540 0 0
0.0073546680 0.0124263600 0 0
0.0069703400 0.0132994460 0 0
0.0068406960 0.0135343880 0 0
0.0069506380 0.0130938530 0 0
0.0072693260 0.0120061680 0 0
0.0077579850 0.0103630420 0 0
0.0083756630 0.0083111180 0 0
0.0090801240 0.0060384550 0 0
0.0098241020 0.0037569070 0 0
0.0105508650 0.0016810220 0 0
0.0111926150 0.0000048732 0 0
0.0116728570 -0.0011198870 0 0
0.0119134440 -0.0016005770 0 0
0.0118461880 -0.0014118110 0 0
0.0114261750 -0.0005948280 0 0
0.0106425110 0.0007510940 0 0
0.0095235180 0.0024824820 0 0
0.0081359710 0.0044277610 0 0
0.0065794560 0.0064037430 0 0
0.0049763730 0.0082322420 0 0
0.0034579240 0.0097571290 0 0
0.0021484680 0.0108601050 0 0
0.0011518340 0.0114708480 0 0
0.0005411530 0.0115691460 0 0
0.0003516680 0.0111816800 0 0
0.0005768230 0.0103769180 0 0
0.0011688410 0.0092582410 0 0
0.0020435600 0.0079542570 0 0
0.0030880230 0.0066069460 0 0
0.0041705990 0.0053591230 0 0
0.0051551300 0.0043418950 0 0
0.0059189460 0.0036623370 0 0
0.0063706590 0.0033923100 0 0
0.0064623660 0.0035598470 0 0
0.0061936160 0.0041446540 0 0
0.0056078780 0.0050791980 0 0
0.0047835910 0.0062559680 0 0
0.0038219120 0.0075398730 0 0
0.0028331260 0.0087836240 0 0
0.0019230820 0.0098434690 0 0
0.0011806850 0.0105927350 0 0
0.0006680250 0.0109316790 0 0
0.0004150500 0.0107944230 0 0
0.0004202130 0.0101547510 0 0
0.0006567520 0.0090309500 0 0
0.0010809890 0.0074877730 0 0
0.0016382210 0.0056332230 0 0
0.0022655900 0.0036093500 0 0
0.0028946920 0.0015782380 0 0
0.0034558710 -0.0002942990 0 0
0.0038843410 -0.0018548580 0 0
0.0041277550 -0.0029770730 0 0
0.0041543650 -0.0035741160 0 0
0.0039598440 -0.0036085210 0 0
0.0035698280 -0.0030979800 0 0
0.0030365320 -0.0021152410 0 0
0.0024311940 -0.0007811010 0 0
0.0018356580 0.0007490780 0 0
0.0013346200 0.0023038320 0 0
0.0010080610 0.0037161370 0 0
0.0009229540 0.0048422680 0 0
0.0011241470 0.0055764080 0 0
0.0016257360 0.0058597450 0 0
0.0024058950 0.0056834560 0 0
0.0034080930 0.0050866150 0 0
0.0045489610 0.0041510220 0 0
0.0057300400 0.0029932280 0 0
0.0068506350 0.0017526360 0 0
0.0078200930 0.0005762210 0 0
0.0085675790 -0.0003971040 0 0
0.0090474450 -0.0010494930 0 0
0.0092401690 -0.0012938830 0 0
0.0091502800 -0.0010813280 0 0
0.0088022980 -0.0004060540 0 0
0.0082352010 0.0006926270 0 0
0.0074962660 0.0021324680 0 0
0.0066358770 0.0037953380 0 0
0.0057050610 0.0055390180 0 0
0.0047556280 0.0072113730 0 0
0.0038402030 0.0086644480 0 0
0.0030098040 0.0097682960 0 0
0.0023093800 0.0104245570 0 0
0.0017728560 0.0105775690 0 0
0.0014184270 0.0102207170 0 0
0.0012455850 0.0093977020 0 0
0.0012358130 0.0081990130 0 0
0.0013568560 0.0067532610 0 0
0.0015692100 0.0052136820 0 0
0.0018330300 0.0037416210 0 0
0.0021127110 0.0024899510 0 0
0.0023776750 0.0015890930 0 0
0.0026014450 0.0011362280 0 0
0.0027616190 0.0011869800 0 0
0.0028408390 0.0017496800 0 0
0.0028289220 0.0027831370 0 0
0.0027279070 0.0041985920 0 0
0.0025590390 0.0058663100 0 0
0.0023658340 0.0076270940 0 0
0.0022073070 0.0093083900 0 0
0.0021425460 0.0107437600 0 0
0.0022156770 0.0117927940 0 0
0.0024493100 0.0123573070 0 0
0.0028463110 0.0123907990 0 0
0.0033943340 0.0119007510 0 0
0.0040689830 0.0109448230 0 0
0.0048350690 0.0096218660 0 0
0.0056471880 0.0080588450 0 0
0.0064511520 0.0063959590 0 0
0.0071879350 0.0047728450 0 0
0.0078005630 0.0033175330 0 0
0.0082419380 0.0021379480 0 0
0.0084804090 0.0013152900 0 0
0.0085014000 0.0008997620 0 0
0.0083064070 0.0009095380 0 0
0.0079120140 0.0013322980 0 0
0.0073502930 0.0021271580 0 0
0.0066696710 0.0032254760 0 0
0.0059340590 0.0045315520 0 0
0.0052184540 0.0059258590 0 0
0.0046009370 0.0072724860 0 0
0.0041528880 0.0084306440 0 0
0.0039300070 0.0092694110 0 0
0.0039652070 0.0096838620 0 0
0.0042632040 0.0096092310 0 0
0.0047984410 0.0090300200 0 0
0.0055183280 0.0079830230 0 0
0.0063507630 0.0065544910 0 0
0.0072133600 0.0048713330 0 0
0.0080226640 0.0030864200 0 0
0.0087022260 0.0013598010 0 0
0.0091885460 -0.0001608270 0 0
0.0094339910 -0.0013568800 0 0
0.0094067110 -0.0021496500 0 0
0.0090894460 -0.0025033890 0 0
0.0084797450 -0.0024223340 0 0
0.0075923540 -0.0019453230 0 0
0.0064621650 -0.0011406690 0 0
0.0051455770 -0.0001018040 0 0
0.0037189020 0.0010575590 0 0
0.0022730500 0.0022106340 0 0
0.0009048720 0.0032280940 0 0
-0.0002933120 0.0039909980 0 0
-0.0012446360 0.0044039700 0 0
-0.0018976020 0.0044068600 0 0
-0.0022331730 0.0039841740 0 0
-0.0022677930 0.0031711770 0 0
-0.0020518570 0.0020543560 0 0
-0.0016625860 0.0007644030 0 0
-0.0011912930 -0.0005383230 0 0
-0.0007286350 -0.0016846310 0 0
-0.0003524230 -0.0025211120 0 0
-0.0001195220 -0.0029337560 0 0
-0.0000614654 -0.0028644950 0 0
-0.0001832670 -0.0023169910 0 0
-0.0004644150 -0.0013523070 0 0
-0.0008610710 -0.0000774052 0 0
-0.0013100370 0.0013703390 0 0
-0.0017358140 0.0028396620 0 0
-0.0020607650 0.0041810160 0 0
-0.0022160450 0.0052605300 0 0
-0.0021501050 0.0059718070 0 0
-0.0018327840 0.0062446510 0 0
-0.0012553570 0.0060501270 0 0
-0.0004291740 0.0054018050 0 0
0.0006142620 0.0043533400 0 0
0.0018221430 0.0029930520 0 0
0.0031212970 0.0014363450 0 0
0.0044231710 -0.0001838750 0 0
0.0056320980 -0.0017280730 0 0
0.0066553610 -0.0030605150 0 0
0.0074138840 -0.0040584550 0 0
0.0078517450 -0.0046209890 0 0
0.0079420370 -0.0046784190 0 0
0.0076877760 -0.0042016400 0 0
0.0071196190 -0.0032097360 0 0
0.0062934860 -0.0017728440 0 0
0.0052879010 -0.0000077417 0 0
0.0041974230 0.0019343670 0 0
0.0031211380 0.0038860810 0 0
0.0021507690 0.0056845570 0 0
0.0013627330 0.0071906650 0 0
0.0008137240 0.0083027420 0 0
0.0005378350 0.0089626000 0 0
0.0005453220 0.0091544990 0 0
0.0008241570 0.0089002960 0 0
0.0013438560 0.0082538160 0 0
0.0020585980 0.0072956090 0 0
0.0029072100 0.0061275120 0 0
0.0038113550 0.0048659810 0 0
0.0046758800 0.0036331950 0 0
0.0053947720 0.0025456570 0 0
0.0058641820 0.0017016650 0 0
0.0060001400 0.0011702620 0 0
0.0057547830 0.0009839260 0 0
0.0051257200 0.0011358030 0 0
0.0041573540 0.0015811250 0 0
0.0029357520 0.0022419600 0 0
0.0015783950 0.0030143490 0 0
0.0002194850 0.0037774530 0 0
-0.0010075350 0.0044051800 0 0
-0.0019869390 0.0047802940 0 0
-0.0026337630 0.0048095660 0 0
-0.0029016170 0.0044371670 0 0
-0.0027856880 0.0036536130 0 0
-0.0023208440 0.0024990640 0 0
-0.0015741390 0.0010607360 0 0
-0.0006333690 -0.0005354860 0 0
0.0004040460 -0.0021383280 0 0
0.0014390650 -0.0035874500 0 0
0.0023769890 -0.0047312000 0 0
0.0031343070 -0.0054444440 0 0
0.0036477020 -0.0056445070 0 0
0.0038822550 -0.0053025090 0 0
0.0038338070 -0.0044475330 0 0
0.0035249260 -0.0031626410 0 0
0.0029991050 -0.0015741310 0 0
0.0023160000 0.0001631880 0 0
0.0015462460 0.0018822240 0 0
0.0007646670 0.0034197740 0 0
0.0000434371 0.0046314950 0 0
-0.0005526830 0.0054047640 0 0
-0.0009693680 0.0056683610 0 0
-0.0011661580 0.0053978800 0 0
-0.0011207780 0.0046169260 0 0
-0.0008328020 0.0033953810 0 0
-0.0003257800 0.0018456460 0 0
0.0003529040 0.0001156480 0 0
0.0011365570 -0.0016237820 0 0
0.0019486440 -0.0031974150 0 0
0.0027141790 -0.0044466510 0 0
0.0033691080 -0.0052482550 0 0
0.0038659420 -0.0055272310 0 0
0.0041763380 -0.0052627510 0 0
0.0042918880 -0.0044882070 0 0
0.0042226940 -0.0032865050 0 0
0.0039930930 -0.0017803680 0 0
0.0036363620 -0.0001178960 0 0
0.0031913010 0.0015437510 0 0
0.0027008080 0.0030530610 0 0
0.0022102300 0.0042756090 0 0
0.0017643290 0.0051026590 0 0
0.0014036580 0.0054582720 0 0
0.0011611360 0.0053056210 0 0
0.0010589500 0.0046513970 0 0
0.0011062060 0.0035463820 0 0
0.0012975670 0.0020810520 0 0
0.0016123020 0.0003766490 0 0
0.0020138330 -0.0014267640 0 0
0.0024513190 -0.0031837540 0 0
0.0028641240 -0.0047571200 0 0
0.0031888320 -0.0060304960 0 0
0.0033688790 -0.0069188390 0 0
0.0033653790 -0.0073756010 0 0
0.0031648520 -0.0073953320 0 0
0.0027811450 -0.0070115020 0 0
0.0022524830 -0.0062906020 0 0
0.0016353610 -0.0053241120 0 0
0.0009961800 -0.0042194830 0 0
0.0004021950 -0.0030906840 0 0
-0.0000857081 -0.0020486860 0 0
-0.0004170280 -0.0011923360 0 0
-0.0005529590 -0.0006001570 0 0
-0.0004660280 -0.0003239820 0 0
-0.0001388850 -0.0003853140 0 0
0.0004356260 -0.0007741470 0 0
0.0012499050 -0.0014489370 0 0
0.0022725860 -0.0023376570 0 0
0.0034409690 -0.0033415650 0 0
0.0046611330 -0.0043430240 0 0
0.0058170930 -0.0052173200 0 0
0.0067865520 -0.0058470470 0 0
0.0074591060 -0.0061364760 0 0
0.0077527770 -0.0060236300 0 0
0.0076267960 -0.0054888760 0 0
0.0070890600 -0.0045592160 0 0
0.0061952330 -0.0033072660 0 0
0.0050385900 -0.0018443080 0 0
0.0037348350 -0.0003081940 0 0
0.0024071720 0.0011517250 0 0
0.0011732840 0.0023905660 0 0
0.0001337020 0.0032833730 0 0
-0.0006377570 0.0037384240 0 0
-0.0010999990 0.0037068010 0 0
-0.0012462030 0.0031876370 0 0
-0.0011013680 0.0022290120 0 0
-0.0007177770 0.0009240900 0 0
-0.0001697740 -0.0005980990 0 0
0.0004530240 -0.0021868960 0 0
0.0010550090 -0.0036868280 0 0
0.0015456230 -0.0049534870 0 0
0.0018505410 -0.0058663520 0 0
0.0019210620 -0.0063385310 0 0
0.0017398790 -0.0063240820 0 0
0.0013220830 -0.0058223530 0 0
0.0007105220 -0.0048776350 0 0
-0.0000337735 -0.0035735360 0 0
-0.0008426570 -0.0020239170 0 0
-0.0016496780 -0.0003626990 0 0
-0.0023952340 0.0012670000 0 0
-0.0030289370 0.0027251920 0 0
-0.0035107280 0.0038882220 0 0
-0.0038117050 0.0046606100 0 0
-0.0039151260 0.0049836800 0 0
-0.0038176800 0.0048402830 0 0
-0.0035302460 0.0042554030 0 0
-0.0030771240 0.0032931640 0 0
-0.0024946140 0.0020515850 0 0
-0.0018303020 0.0006556170 0 0
-0.0011419860 -0.0007526130 0 0
-0.0004943100 -0.0020271140 0 0
0.0000471077 -0.0030335580 0 0
0.0004231290 -0.0036643920 0 0
0.0005887480 -0.0038513060 0 0
0.0005193510 -0.0035735320 0 0
0.0002152610 -0.0028607390 0 0
-0.0002952040 -0.0017894040 0 0
-0.0009559110 -0.0004726600 0 0
-0.0016888780 0.0009540040 0 0
-0.0024054670 0.0023472020 0 0
-0.0030192850 0.0035677150 0 0
-0.0034575620 0.0044907400 0 0
-0.0036695860 0.0050161940 0 0
-0.0036316760 0.0050792430 0 0
-0.0033483210 0.0046593060 0 0
-0.0028492160 0.0037853330 0 0
-0.0021831320 0.0025354250 0 0
-0.0014115010 0.0010300780 0 0
-0.0006045170 -0.0005797660 0 0
0.0001612510 -0.0021278190 0 0
0.0008078530 -0.0034492920 0 0
0.0012659000 -0.0043984780 0 0
0.0014863860 -0.0048652520 0 0
0.0014483840 -0.0047877240 0 0
0.0011592650 -0.0041592530 0 0
0.0006493810 -0.0030296690 0 0
-0.0000344680 -0.0015012070 0 0
-0.0008339990 0.0002807240 0 0
-0.0016830210 0.0021419330 0 0
-0.0025119400 0.0038978770 0 0
-0.0032541360 0.0053733770 0 0
-0.0038512690 0.0064206840 0 0
-0.0042552280 0.0069339820 0 0
-0.0044291810 0.0068593830 0 0
-0.0043511350 0.0062001670 0 0
-0.0040192680 0.0050171510 0 0
-0.0034560120 0.0034235130 0 0
-0.0027097040 0.0015734040 0 0
-0.0018534510 -0.0003547660 0 0
-0.0009794390 -0.0021776430 0 0
-0.0001878260 -0.0037261210 0 0
0.0004274150 -0.0048629540 0 0
0.0007916260 -0.0054975780 0 0
0.0008583600 -0.0055954550 0 0
0.0006133570 -0.0051783790 0 0
0.0000747428 -0.0043148770 0 0
-0.0007101180 -0.0031048170 0 0
-0.0016715070 -0.0016646510 0 0
-0.0027266120 -0.0001168220 0 0
-0.0037880820 0.0014172680 0 0
-0.0047703240 0.0028229110 0 0
-0.0055948090 0.0039982770 0 0
-0.0061956360 0.0048613740 0 0
-0.0065246180 0.0053561070 0 0
-0.0065544530 0.0054559380 0 0
-0.0062793860 0.0051650950 0 0
-0.0057141180 0.0045177270 0 0
-0.0048928180 0.0035752070 0 0
-0.0038687040 0.0024220400 0 0
-0.0027121460 0.0011609740 0 0
-0.0015058080 -0.0000931699 0 0
-0.0003370930 -0.0012221200 0 0
0.0007118280 -0.0021146260 0 0
0.0015751010 -0.0026764020 0 0
0.0022120530 -0.0028386430 0 0
0.0026105420 -0.0025661050 0 0
0.0027835370 -0.0018645590 0 0
0.0027605800 -0.0007850750 0 0
0.0025795370 0.0005781350 0 0
0.0022843900 0.0020972100 0 0
0.0019286790 0.0036251000 0 0
0.0015777220 0.0050122400 0 0
0.0013030550 0.0061235160 0 0
0.0011683330 0.0068534910 0 0
0.0012130670 0.0071379500 0 0
0.0014426130 0.0069605600 0 0
0.0018275680 0.0063543120 0 0
0.0023106170 0.0053982580 0 0
0.0028185450 0.0042098030 0 0
0.0032770560 0.0029323380 0 0
0.0036244330 0.0017192470 0 0
0.0038195910 0.0007170550 0 0
0.0038428840 0.0000504888 0 0
0.0036921490 -0.0001892950 0 0
0.0033778530 0.0000467771 0 0
0.0029196160 0.0007603220 0 0
0.0023450800 0.0019032000 0 0
0.0016908740 0.0033786180 0 0
0.0010034380 0.0050468730 0 0
0.0003371410 0.0067374030 0 0
-0.0002499710 0.0082675300 0 0
-0.0007005890 0.0094654880 0 0
-0.0009626010 0.0101933580 0 0
-0.0009947230 0.0103659450 0 0
-0.0007731560 0.0099634070 0 0
-0.0002984620 0.0090361210 0 0
0.0003985690 0.0077002340 0 0
0.0012549530 0.0061232410 0 0
0.0021803910 0.0045010140 0 0
0.0030692220 0.0030303270 0 0
0.0038165540 0.0018827950 0 0
0.0043340740 0.0011856700 0 0
0.0045611770 0.0010121770 0 0
0.0044690340 0.0013805580 0 0
0.0040583010 0.0022582700 0 0
0.0033544130 0.0035673810 0 0
0.0024051380 0.0051899150 0 0
0.0012810540 0.0069750510 0 0
0.0000749141 0.0087502360 0 0
-0.0011042630 0.0103363610 0 0
-0.0021432430 0.0115653170 0 0
-0.0029401540 0.0122974970 0 0
-0.0034192990 0.0124367840 0 0
-0.0035413510 0.0119411460 0 0
-0.0033068540 0.0108277660 0 0
-0.0027538430 0.0091721250 0 0
-0.0019522400 0.0071008100 0 0
-0.0009964040 0.0047787040 0 0
0.0000045053 0.0023926180 0 0
0.0009376770 0.0001342150 0 0
0.0016974520 -0.0018159050 0 0
0.0021952310 -0.0033027560 0 0
0.0023686500 -0.0042097360 0 0
0.0021887570 -0.0044679440 0 0
0.0016634470 -0.0040606550 0 0
0.0008367160 -0.0030232810 0 0
-0.0002160270 -0.0014400590 0 0
-0.0013962580 0.0005620590 0 0
-0.0025923490 0.0028230530 0 0
-0.0036889420 0.0051637960 0 0
-0.0045759830 0.0074032080 0 0
-0.0051590230 0.0093753630 0 0
-0.0053700290 0.0109433680 0 0
-0.0051761550 0.0120091680 0 0
-0.0045847020 0.0125198280 0 0
-0.0036431700 0.0124702180 0 0
-0.0024329640 0.0119020070 0 0
-0.0010568520 0.0108999050 0 0
0.0003759050 0.0095858280 0 0
0.0017617880 0.0081102470 0 0
0.0030111040 0.0066393800 0 0
0.0040528660 0.0053383850 0 0
0.0048370280 0.0043531060 0 0
0.0053345930 0.0037937140 0 0
0.0055365200 0.0037225030 0 0
0.0054514950 0.0041468460 0 0
0.0051025530 0.0050179390 0 0
0.0045244080 0.0062361790 0 0
0.0037631790 0.0076638000 0 0
0.0028769740 0.0091434630 0 0
0.0019341400 0.0105192980 0 0
0.0010082750 0.0116561210 0 0
0.0001715900 0.0124536320 0 0
-0.0005121290 0.0128541330 0 0
-0.0009945910 0.0128438460 0 0
-0.0012491250 0.0124498620 0 0
-0.0012747190 0.0117353860 0 0
-0.0010974980 0.0107941510 0 0
-0.0007693260 0.0097428400 0 0
-0.0003631170 0.0087107490 0 0
0.0000347728 0.0078272730 0 0
0.0003343900 0.0072083750 0 0
0.0004549250 0.0069433150 0 0
0.0003401690 0.0070832620 0 0
-0.0000282775 0.0076336900 0 0
-0.0006267270 0.0085521230 0 0
-0.0013955550 0.0097518000 0 0
-0.0022513970 0.0111107580 0 0
-0.0030999200 0.0124846580 0 0
-0.0038463890 0.0137210990 0 0
-0.0044044340 0.0146738090 0 0
-0.0047040450 0.0152162090 0 0
-0.0046979900 0.0152541130 0 0
-0.0043655370 0.0147363050 0 0
-0.0037140960 0.0136612750 0 0
-0.0027798940 0.0120792220 0 0
-0.0016270120 0.0100893240 0 0
-0.0003428840 0.0078322670 0 0
0.0009705990 0.0054781230 0 0
0.0022094480 0.0032103290 0 0
0.0032806960 0.0012073340 0 0
0.0041127670 -0.0003754970 0 0
0.0046609020 -0.0014206750 0 0
0.0049078660 -0.0018579540 0 0
0.0048617990 -0.0016681820 0 0
0.0045538290 -0.0008829940 0 0
0.0040372310 0.0004181170 0 0
0.0033868100 0.0021128980 0 0
0.0026945770 0.0040441500 0 0
0.0020595870 0.0060313110 0 0
0.0015741650 0.0078868390 0 0
0.0013108710 0.0094367330 0 0
0.0013133500 0.0105418840 0 0
0.0015922210 0.0111158190 0 0
0.0021264850 0.0111351060 0 0
0.0028697640 0.0106405830 0 0
0.0037586920 0.0097297420 0 0
0.0047210950 0.0085422450 0 0
0.0056836170 0.0072418560 0 0
0.0065786870 0.0059979830 0 0
0.0073495540 0.0049683470 0 0
0.0079522560 0.0042832780 0 0
0.0083549810 0.0040324060 0 0
0.0085367400 0.0042548300 0 0
0.0084870770 0.0049340860 0 0
0.0082068360 0.0059997790 0 0
0.0077086450 0.0073367460 0 0
0.0070159740 0.0088000590 0 0
0.0061615890 0.0102324770 0 0
0.0051872460 0.0114810870 0 0
0.0041441290 0.0124109070 0 0
0.0030914730 0.0129154410 0 0
0.0020925130 0.0129258550 0 0
0.0012093620 0.0124183640 0 0
0.0004981720 0.0114172000 0 0
0.0000043447 0.0099920110 0 0
-0.0002427200 0.0082508920 0 0
-0.0002345090 0.0063300990 0 0
0.0000136230 0.0043809930 0 0
0.0004620330 0.0025558320 0 0
0.0010489110 0.0009946560 0 0
0.0016954060 -0.0001855030 0 0
0.0023147960 -0.0008993160 0 0
0.0028256920 -0.0011004180 0 0
0.0031667770 -0.0007868300 0 0
0.0033079230 -0.0000024748 0 0
0.0032530490 0.0011674280 0 0
0.0030343750 0.0026065930 0 0
0.0027019690 0.0041801910 0 0
0.0023133910 0.0057467310 0 0
0.0019258870 0.0071689850 0 0
0.0015909540 0.0083255610 0 0
0.0013503960 0.0091239050 0 0
0.0012334890 0.0095128850 0 0
0.0012548770 0.0094909440 0 0
0.0014125930 0.0091062890 0 0
0.0016863210 0.0084483760 0 0
0.0020373380 0.0076332690 0 0
0.0024120550 0.0067873760 0 0
0.0027496570 0.0060332040 0 0
0.0029919170 0.0054778400 0 0
0.0030923460 0.0052029790 0 0
0.0030228460 0.0052565660 0 0
0.0027771150 0.0056481800 0 0
0.0023712420 0.0063493620 0 0
0.0018428640 0.0072974250 0 0
0.0012492560 0.0084011400 0 0
0.0006627190 0.0095488280 0 0
0.0001621280 0.0106194060 0 0
-0.0001771680 0.0114946940 0 0
-0.0002911430 0.0120702300 0 0
-0.0001318530 0.0122637500 0 0
0.0003279610 0.0120222620 0 0
0.0010889580 0.0113281140 0 0
0.0021208900 0.0102027150 0 0
0.0033637810 0.0087062340 0 0
0.0047349190 0.0069328050 0 0
0.0061385330 0.0050023280 0 0
0.0074753430 0.0030506970 0 0
0.0086508210 0.0012198220 0 0
0.0095812880 -0.0003525900 0 0
0.0101979650 -0.0015440570 0 0
0.0104508460 -0.0022586910 0 0
0.0103130970 -0.0024370000 0 0
0.0097849390 -0.0020620030 0 0
0.0088962120 -0.0011609040 0 0
0.0077068530 0.0001968930 0 0
0.0063038340 0.0019044250 0 0
0.0047941310 0.0038244120 0 0
0.0032955210 0.0057992790 0 0
0.0019273280 0.0076631270 0 0
0.0008015180 0.0092545590 0 0
0.0000137330 0.0104305170 0 0
-0.0003648920 0.0110813090 0 0
-0.0002929920 0.0111446460 0 0
0.0002397500 0.0106148310 0 0
0.0012135860 0.0095448310 0 0
0.0025792800 0.0080417740 0 0
0.0042574900 0.0062572380 0 0
0.0061390410 0.0043731770 0 0
0.0080897770 0.0025840830 0 0
0.0099620930 0.0010766070 0 0
0.0116113820 0.0000091497 0 0
0.0129133490 -0.0005056650 0 0
0.0137784010 -0.0004136720 0 0
0.0141607090 0.0002742560 0 0
0.0140612720 0.0014833140 0 0
0.0135252450 0.0030846300 0 0
0.0126342070 0.0049128900 0 0
0.0114947580 0.0067883570 0 0
0.0102255320 0.0085386560 0 0
0.0089449090 0.0100159480 0 0
0.0077610250 0.0111075000 0 0
0.0067640430 0.0117407240 0 0
0.0060198240 0.0118847720 0 0
0.0055650740 0.0115500590 0 0
0.0054054450 0.0107864360 0 0
0.0055182200 0.0096795270 0 0
0.0058591110 0.0083438240 0 0
0.0063696020 0.0069127090 0 0
0.0069815690 0.0055268640 0 0
0.0076203440 0.0043218270 0 0
0.0082096940 0.0034149700 0 0
0.0086792870 0.0028929740 0 0
0.0089723460 0.0028011910 0 0
0.0090519270 0.0031361510 0 0
0.0089058930 0.0038427060 0 0
0.0085503230 0.0048171300 0 0
0.0080294950 0.0059165870 0 0
0.0074102970 0.0069744970 0 0
0.0067712910 0.0078206060 0 0
0.0061897360 0.0083032450 0 0
0.0057305390 0.0083102060 0 0
0.0054398650 0.0077844420 0 0
0.0053447010 0.0067320770 0 0
0.0054569000 0.0052222760 0 0
0.0057761770 0.0033797710 0 0
0.0062860750 0.0013711080 0 0
0.0069445270 -0.0006141240 0 0
0.0076786160 -0.0023846690 0 0
0.0083899990 -0.0037682050 0 0
0.0089684130 -0.0046285540 0 0
0.0093079230 -0.0048784060 0 0
0.0093227710 -0.0044867320 0 0
0.0089599650 -0.0034799350 0 0
0.0082058920 -0.0019366760 0 0
0.0070871100 0.0000217236 0 0
0.0056676080 0.0022425170 0 0
0.0040430850 0.0045529620 0 0
0.0023309190 0.0067723590 0 0
0.0006562810 0.0087254620 0 0
-0.0008622350 0.0102574640 0 0
-0.0021250160 0.0112498230 0 0
-0.0030622730 0.0116349850 0 0
-0.0036424740 0.0114065100 0 0
-0.0038746080 0.0106204800 0 0
-0.0038024930 0.0093863120 0 0
-0.0034935320 0.0078497690 0 0
-0.0030257600 0.0061732690 0 0
-0.0024765360 0.0045171920 0 0
-0.0019147090 0.0030243100 0 0
-0.0013958670 0.0018087750 0 0
-0.0009594380 0.0009498070 0 0
-0.0006270770 0.0004893300 0 0
-0.0004026190 0.0004325870 0 0
-0.0002739680 0.0007505900 0 0
-0.0002169480 0.0013834690 0 0
-0.0002006220 0.0022447080 0 0
-0.0001926160 0.0032273290 0 0
-0.0001618410 0.0042130330 0 0
-0.0000775311 0.0050841590 0 0
0.0000930530 0.0057367990 0 0
0.0003843400 0.0060925350 0 0
0.0008284270 0.0061064440 0 0
0.0014494430 0.0057704620 0 0
0.0022574010 0.0051125680 0 0
0.0032411080 0.0041928520 0 0
0.0043626720 0.0030973800 0 0
0.0055578610 0.0019303510 0 0
0.0067430950 0.0008046570 0 0
0.0078262650 -0.0001687010 0 0
0.0087181680 -0.0008911340 0 0
0.0093430390 -0.0012855850 0 0
0.0096482580 -0.0013037080 0 0
0.0096121030 -0.0009310240 0 0
0.0092467800 -0.0001900560 0 0
0.0085953440 0.0008591870 0 0
0.0077234850 0.0021224820 0 0
0.0067089420 0.0034787080 0 0
0.0056322650 0.0047908270 0 0
0.0045704940 0.0059205640 0 0
0.0035921070 0.0067453210 0 0
0.0027517600 0.0071733050 0 0
0.0020856940 0.0071534300 0 0
0.0016096010 0.0066803130 0 0
0.0013196030 0.0057955810 0 0
0.0011952820 0.0045841500 0 0
0.0012034930 0.0031636920 0 0
0.0013029940 0.0016689010 0 0
0.0014498130 0.0002350140 0 0
0.0016022540 -0.0010154130 0 0
0.0017251340 -0.0019805250 0 0
0.0017937360 -0.0025825360 0 0
0.0017970050 -0.0027694760 0 0
0.0017383440 -0.0025184340 0 0
0.0016330130 -0.0018405200 0 0
0.0015034910 -0.0007843940 0 0
0.0013755010 0.0005655920 0 0
0.0012752380 0.0020980070 0 0
0.0012257530 0.0036873170 0 0
0.0012422380 0.0052074800 0 0
0.0013293320 0.0065444690 0 0
0.0014827580 0.0076078900 0 0
0.0016938830 0.0083405200 0 0
0.0019541250 0.0087230640 0 0
0.0022571460 0.0087726660 0 0
0.0025982160 0.0085360200 0 0
0.0029714350 0.0080797760 0 0
0.0033668410 0.0074817620 0 0
0.0037693690 0.0068246050 0 0
0.0041591540 0.0061900740 0 0
0.0045110980 0.0056522140 0 0
0.0047942780 0.0052700170 0 0
0.0049745070 0.0050815920 0 0
0.0050205880 0.0051004690 0 0
0.0049110940 0.0053137570 0 0
0.0046397100 0.0056824030 0 0
0.0042193200 0.0061440030 0 0
0.0036841210 0.0066184670 0 0
0.0030880620 0.0070170420 0 0
0.0024989930 0.0072544080 0 0
0.0019886430 0.0072612090 0 0
0.0016195890 0.0069936240 0 0
0.0014335930 0.0064383380 0 0
0.0014461360 0.0056128600 0 0
0.0016469160 0.0045617130 0 0
0.0020026610 0.0033499960 0 0
0.0024608940 0.0020568020 0 0
0.0029562690 0.0007705130 0 0
0.0034201590 -0.0004144450 0 0
0.0037910720 -0.0014019750 0 0
0.0040230900 -0.0021016690 0 0
0.0040918480 -0.0024387450 0 0
0.0039974270 -0.0023649870 0 0
0.0037619200 -0.0018683640 0 0
0.0034222340 -0.0009784530 0 0
0.0030228870 0.0002342530 0 0
0.0026119800 0.0016653690 0 0
0.0022389640 0.0031886730 0 0
0.0019514030 0.0046702660 0 0
0.0017897210 0.0059816560 0 0
0.0017812730 0.0070107430 0 0
0.0019364330 0.0076714560 0 0
0.0022486630 0.0079115360 0 0
0.0026978040 0.0077166470 0 0
0.0032535050 0.0071106620 0 0
0.0038770030 0.0061538260 0 0
0.0045225370 0.0049391380 0 0
0.0051402600 0.0035855350 0 0
0.0056808290 0.0022270580 0 0
0.0061005100 0.0009991680 0 0
0.0063654880 0.0000248161 0 0
0.0064547160 -0.0005972780 0 0
0.0063614930 -0.0008012720 0 0
0.0060942190 -0.0005597210 0 0
0.0056762350 0.0001145650 0 0
0.0051441120 0.0011701830 0 0
0.0045443470 0.0025211170 0 0
0.0039296060 0.0040524950 0 0
0.0033551780 0.0056290520 0 0
0.0028747650 0.0071069990 0 0
0.0025352320 0.0083484510 0 0
0.0023717180 0.0092366380 0 0
0.0024044540 0.0096901660 0 0
0.0026376960 0.0096744530 0 0
0.0030608410 0.0092075850 0 0
0.0036509550 0.0083584010 0 0
0.0043746860 0.0072375990 0 0
0.0051884390 0.0059851130 0 0
0.0060378230 0.0047561410 0 0
0.0068571170 0.0037060240 0 0
0.0075695900 0.0029738680 0 0
0.0080924140 0.0026666350 0 0
0.0083493690 0.0028465580 0 0
0.0082877340 0.0035238430 0 0
0.0078913320 0.0046548470 0 0
0.0071851300 0.0061454140 0 0
0.0062320740 0.0078595820 0 0
0.0051245960 0.0096339490 0 0
0.0039725110 0.0112967570 0 0
0.0028885480 0.0126888560 0 0
0.0019736940 0.0136823560 0 0
0.0013056760 0.0141935770 0 0
0.0009327260 0.0141885220 0 0
0.0008723150 0.0136807870 0 0
0.0011126270 0.0127242880 0 0
0.0016144540 0.0114045610 0 0
0.0023132970 0.0098306500 0 0
0.0031233660 0.0081273750 0 0
0.0039451760 0.0064274190 0 0
0.0046772040 0.0048630890 0 0
0.0052300500 0.0035574490 0 0
0.0055394160 0.0026144750 0 0
0.0055743200 0.0021087680 0 0
0.0053396640 0.0020766110 0 0
0.0048746860 0.0025106570 0 0
0.0042481260 0.0033599550 0 0
0.0035488450 0.0045353390 0 0
0.0028716450 0.0059186660 0 0
0.0023022230 0.0073745660 0 0
0.0019067700 0.0087641540 0 0
0.0017280190 0.0099598680 0 0
0.0017852940 0.0108592580 0 0
0.0020758320 0.0113951200 0 0
0.0025766860 0.0115405650 0 0
0.0032480220 0.0113094600 0 0
0.0040383430 0.0107533660 0 0
0.0048908010 0.0099555410 0 0
0.0057488560 0.0090223520 0 0
0.0065598740 0.0080726460 0 0
0.0072765870 0.0072256280 0 0
0.0078580500 0.0065888560 0 0
0.0082719940 0.0062489730 0 0
0.0084982550 0.0062659940 0 0
0.0085313440 0.0066690150 0 0
0.0083818970 0.0074515530 0 0
0.0080783700 0.0085679780 0 0
0.0076677680 0.0099342580 0 0
0.0072112350 0.0114349430 0 0
0.0067736030 0.0129356450 0 0
0.0064120870 0.0142982460 0 0
0.0061694000 0.0153953890 0 0
0.0060714540 0.0161222630 0 0
0.0061268050 0.0164063460 0 0
0.0063264250 0.0162160840 0 0
0.0066448480 0.0155666190 0 0
0.0070433510 0.0145194210 0 0
0.0074735550 0.0131751180 0 0
0.0078805280 0.0116617830 0 0
0.0082074680 0.0101217210 0 0
0.0084028820 0.0086984220 0 0
0.0084275010 0.0075237760 0 0
0.0082584130 0.0067056400 0 0
0.0078904080 0.0063171320 0 0
0.0073351150 0.0063898910 0 0
0.0066184740 0.0069125110 0 0
0.0057770330 0.0078329560 0 0
0.0048529980 0.0090629770 0 0
0.0038888110 0.0104841420 0 0
0.0029243560 0.0119568920 0 0
0.0019995460 0.0133336830 0 0
0.0011604150 0.0144749180 0 0
0.0004624000 0.0152646620 0 0
-0.0000342026 0.0156237120 0 0
-0.0002757180 0.0155187760 0 0
-0.0002288330 0.0149668390 0 0
0.0001079690 0.0140339520 0 0
0.0006989360 0.0128282080 0 0
0.0014734220 0.0114873920 0 0
0.0023349780 0.0101628280 0 0
0.0031746450 0.0090018790 0 0
0.0038864100 0.0081318290 0 0
0.0043824830 0.0076471860 0 0
0.0046048920 0.0076014450 0 0
0.0045311740 0.0080030280 0 0
0.0041750560 0.0088142880 0 0
0.0035835660 0.0099537770 0 0
0.0028303460 0.0113036940 0 0
0.0020052790 0.0127231820 0 0
0.0012022160 0.0140656400 0 0
0.0005067210 0.0151972740 0 0
-0.0000149386 0.0160135600 0 0
-0.0003233290 0.0164494590 0 0
-0.0004064900 0.0164810920 0 0
-0.0002738410 0.0161211090 0 0
0.0000506882 0.0154125290 0 0
0.0005307070 0.0144243760 0 0
0.0011155550 0.0132491040 0 0
0.0017403480 0.0119985220 0 0
0.0023323500 0.0107949780 0 0
0.0028227120 0.0097583660 0 0
0.0031578220 0.0089923070 0 0
0.0033048670 0.0085723050 0 0
0.0032508600 0.0085377560 0 0
0.0029986640 0.0088883660 0 0
0.0025643230 0.0095837700 0 0
0.0019774180 0.0105456190 0 0
0.0012827310 0.0116637660 0 0
0.0005406820 0.0128078820 0 0
-0.0001750430 0.0138426070 0 0
-0.0007839910 0.0146424650 0 0
-0.0012099410 0.0151035440 0 0
-0.0013937360 0.0151512040 0 0
-0.0013036630 0.0147448070 0 0
-0.0009409530 0.0138802070 0 0
-0.0003403590 0.0125900200 0 0
0.0004335710 0.0109416850 0 0
0.0012934440 0.0090325840 0 0
0.0021375080 0.0069810120 0 0
0.0028576170 0.0049135800 0 0
0.0033451550 0.0029514660 0 0
0.0034953820 0.0011975470 0 0
0.0032126100 -0.0002744140 0 0
0.0024175900 -0.0014270820 0 0
0.0010557820 -0.0022620800 0 0
-0.0008954360 -0.0028182680 0 0
-0.0034221070 -0.0031672810 0 0
-0.0064736450 -0.0034068590 0 0
-0.0099687220 -0.0036517760 0 0
-0.0138051070 -0.0040226500 0 0
-0.0178698050 -0.0046339680 0 0
-0.0220481100 -0.0055833360 0 0
-0.0262326900 -0.0069427950 0 0
-0.0303336490 -0.0087511540 -1 0
-0.0342879260 -0.0110071490 -1 0
-0.0380642670 -0.0136661250 -1 0
-0.0416620690 -0.0166434840 -1 0
-0.0451061270 -0.0198250960 -1 0
-0.0484396290 -0.0230815160 -1 0
-0.0517164650 -0.0262825500 -1 0
-0.0549941380 -0.0293106610 -1 0
-0.0583281470 -0.0320727320 -1 -1
-0.0617668830 -0.0345090790 -1 -1
-0.0653461590 -0.0365987900 -1 -1
-0.0690839830 -0.0383614280 -1 -1
-0.0729765940 -0.0398553200 -1 -1
-0.0769959930 -0.0411721620 -1 -1
-0.0810894530 -0.0424281910 -1 -1
-0.0851820400 -0.0437529620 -1 -1
-0.0891831770 -0.0452767210 -1 -1
-0.0929978080 -0.0471166920 -1 -1
-0.0965410190 -0.0493629760 -1 -1
-0.0997523080 -0.0520658100 -1 -1
-0.1026046980 -0.0552261920 -1 -1
-0.1051062680 -0.0587917780 -1 -1
-0.1072953750 -0.0626599080 -1 -1
-0.1092325610 -0.0666879320 -1 -1
-0.1109913840 -0.0707085310 -1 -1
-0.1126495240 -0.0745472590 -1 -1
-0.1142808810 -0.0780403100 -1 -1
-0.1159488720 -0.0810501380 -1 -1
-0.1177010620 -0.0834759600 -1 -1
-0.1195656670 -0.0852578990 -1 -1
-0.1215506590 -0.0863766030 -1 -1
-0.1236456650 -0.0868511750 -1 -1
-0.1258251910 -0.0867364250 -1 -1
-0.1280515670 -0.0861182720 -1 -1
-0.1302776360 -0.0851062050 -1 -1
-0.1324494250 -0.0838237060 -1 -1
-0.1345076490 -0.0823986480 -1 -1
-0.1363880320 -0.0809553090 -1 -1
-0.1380231510 -0.0796085850 -1 -1
-0.1393480520 -0.0784592020 -1 -1
-0.1403091130 -0.0775881280 -1 -1
-0.1408739320 -0.0770506100 -1 -1
-0.1410396340 -0.0768719650 -1 -1
-0.1408368730 -0.0770454300 -1 -1
-0.1403284230 -0.0775303330 -1 -1
-0.1396038930 -0.0782500950 -1 -1
-0.1387723440 -0.0790925450 -1 -1
-0.1379520260 -0.0799163300 -1 -1
-0.1372563920 -0.0805653570 -1 -1
-0.1367788440 -0.0808894890 -1 -1
-0.1365801310 -0.0807670870 -1 -1
-0.1366804780 -0.0801247340 -1 -1
-0.1370574980 -0.0789505410 -1 -1
-0.1376511990 -0.0772983700 -1 -1
-0.1383756100 -0.0752818480 -1 -1
-0.1391332900 -0.0730598550 -1 -1
-0.1398283790 -0.0708169500 -1 -1
-0.1403768630 -0.0687418930 -1 -1
-0.1407145790 -0.0670070460 -1 -1
-0.1408021590 -0.0657511380 -1 -1
-0.1406256480 -0.0650664310 -1 -1
-0.1401938280 -0.0649903790 -1 -1
-0.1395347260 -0.0655024560 -1 -1
-0.1386927450 -0.0665270420 -1 -1
-0.1377262480 -0.0679417550 -1 -1
-0.1367049560 -0.0695895010 -1 -1
-0.1357071040 -0.0712927060 -1 -1
-0.1348158460 -0.0728688440 -1 -1
-0.1341125220 -0.0741469410 -1 -1
-0.1336656670 -0.0749850210 -1 -1
-0.1335187810 -0.0752870650 -1 -1
-0.1336823570 -0.0750157610 -1 -1
-0.1341335250 -0.0741973280 -1 -1
-0.1348220120 -0.0729175120 -1 -1
-0.1356784620 -0.0713101080 -1 -1
-0.1366224580 -0.0695402530 -1 -1
-0.1375694550 -0.0677854140 -1 -1
-0.1384363110 -0.0662166290 -1 -1
-0.1391454520 -0.0649816160 -1 -1
-0.1396282740 -0.0641914350 -1 -1
-0.1398287540 -0.0639120350 -1 -1
-0.1397083010 -0.0641605750 -1 -1
-0.1392518710 -0.0649058410 -1 -1
-0.1384736030 -0.0660725930 -1 -1
-0.1374197450 -0.0675497680 -1 -1
-0.1361671720 -0.0692016200 -1 -1
-0.1348164190 -0.0708800080 -1 -1
-0.1334799230 -0.0724360310 -1 -1
-0.1322687730 -0.0737304090 -1 -1
-0.1312810970 -0.0746434880 -1 -1
-0.1305919960 -0.0750860190 -1 -1
-0.1302441530 -0.0750102190 -1 -1
-0.1302417080 -0.0744182450 -1 -1
-0.1305509930 -0.0733644900 -1 -1
-0.1311076710 -0.0719498110 -1 -1
-0.1318265190 -0.0703087410 -1 -1
-0.1326112290 -0.0685930420 -1 -1
-0.1333640950 -0.0669550460 -1 -1
-0.1339961180 -0.0655326860 -1 -1
-0.1344372010 -0.0644368890 -1 -1
-0.1346444760 -0.0637416060 -1 -1
-0.1346056360 -0.0634767980 -1 -1
-0.1343366640 -0.0636251530 -1 -1
-0.1338768290 -0.0641238250 -1 -1
-0.1332829510 -0.0648718530 -1 -1
-0.1326224070 -0.0657422640 -1 -1
-0.1319655570 -0.0665968420 -1 -1
-0.1313794170 -0.0673020270 -1 -1
-0.1309221160 -0.0677446970 -1 -1
-0.1306372410 -0.0678456960 -1 -1
-0.1305502770 -0.0675684670 -1 -1
-0.1306688390 -0.0669214140 -1 -1
-0.1309841490 -0.0659546090 -1 -1
-0.1314709090 -0.0647523410 -1 -1
-0.1320869180 -0.0634228840 -1 -1
-0.1327756240 -0.0620868400 -1 -1
-0.1334720240 -0.0608653600 -1 -1
-0.1341097400 -0.0598688980 -1 -1
-0.1346276440 -0.0591867260 -1 -1
-0.1349760270 -0.0588780370 -1 -1
-0.1351226000 -0.0589658360 -1 -1
-0.1350578890 -0.0594343940 -1 -1
-0.1347983030 -0.0602309400 -1 -1
-0.1343847950 -0.0612721060 -1 -1
-0.1338765330 -0.0624544500 -1 -1
-0.1333411710 -0.0636667790 -1 -1
-0.1328450580 -0.0648014640 -1 -1
-0.1324460430 -0.0657631070 -1 -1
-0.1321889060 -0.0664743430 -1 -1
-0.1321025920 -0.0668792380 -1 -1
-0.1321996250 -0.0669452000 -1 -1
-0.1324774670 -0.0666650260 -1 -1
-0.1329197820 -0.0660599850 -1 -1
-0.1334966040 -0.0651824280 -1 -1
-0.1341645280 -0.0641151770 -1 -1
-0.1348681060 -0.0629661180 -1 -1
-0.1355428970 -0.0618579520 -1 -1
-0.1361204750 -0.0609137100 -1 -1
-0.1365354400 -0.0602399610 -1 -1
-0.1367338280 -0.0599114560 -1 -1
-0.1366818740 -0.0599612150 -1 -1
-0.1363736380 -0.0603777970 -1 -1
-0.1358351080 -0.0611088460 -1 -1
-0.1351223560 -0.0620689940 -1 -1
-0.1343140240 -0.0631502830 -1 -1
-0.1335016260 -0.0642336820 -1 -1
-0.1327810410 -0.0652005230 -1 -1
-0.1322446140 -0.0659427560 -1 -1
-0.1319711100 -0.0663709760 -1 -1
-0.1320146910 -0.0664201710 -1 -1
-0.1323982560 -0.0660542050 -1 -1
-0.1331136370 -0.0652697690 -1 -1
-0.1341249100 -0.0640994790 -1 -1
-0.1353701420 -0.0626134430 -1 -1
-0.1367620540 -0.0609177890 -1 -1
-0.1381915110 -0.0591480390 -1 -1
-0.1395361480 -0.0574567540 -1 -1
-0.1406739990 -0.0559976820 -1 -1
-0.1415003720 -0.0549095010 -1 -1
-0.1419438600 -0.0543012360 -1 -1
-0.1419760340 -0.0542407770 -1 -1
-0.1416118140 -0.0547478350 -1 -1
-0.1409022810 -0.0557920160 -1 -1
-0.1399241330 -0.0572956630 -1 -1
-0.1387685650 -0.0591408170 -1 -1
-0.1375304150 -0.0611798620 -1 -1
-0.1362983710 -0.0632491770 -1 -1
-0.1351474450 -0.0651844560 -1 -1
-0.1341345560 -0.0668357060 -1 -1
-0.1332970310 -0.0680797810 -1 -1
-0.1326534860 -0.0688293910 -1 -1
-0.1322075060 -0.0690390900 -1 -1
-0.1319536810 -0.0687087540 -1 -1
-0.1318826110 -0.0678840700 -1 -1
-0.1319817850 -0.0666531410 -1 -1
-0.1322330740 -0.0651384300 -1 -1
-0.1326093800 -0.0634835840 -1 -1
-0.1330730250 -0.0618362150 -1 -1
-0.1335777830 -0.0603302000 -1 -1
-0.1340741130 -0.0590718870 -1 -1
-0.1345153020 -0.0581321380 -1 -1
-0.1348624050 -0.0575432720 -1 -1
-0.1350873410 -0.0572997330 -1 -1
-0.1351747990 -0.0573624590 -1 -1
-0.1351237600 -0.0576663580 -1 -1
-0.1349483290 -0.0581291450 -1 -1
-0.1346762880 -0.0586598440 -1 -1
-0.1343448130 -0.0591663900 -1 -1
-0.1339959670 -0.0595626710 -1 -1
-0.1336747450 -0.0597753650 -1 -1
-0.1334286940 -0.0597505520 -1 -1
-0.1333053290 -0.0594596020 -1 -1
-0.1333447880 -0.0589033450 -1 -1
-0.1335693090 -0.0581139530 -1 -1
-0.1339739270 -0.0571543900 -1 -1
-0.1345220430 -0.0561147800 -1 -1
-0.1351476970 -0.0551047750 -1 -1
-0.1357644600 -0.0542422720 -1 -1
-0.1362785940 -0.0536401140 -1 -1
-0.1366031190 -0.0533928790 -1 -1
-0.1366705140 -0.0535656780 -1 -1
-0.1364432220 -0.0541860790 -1 -1
-0.1359210980 -0.0552389000 -1 -1
-0.1351438760 -0.0566634210 -1 -1
-0.1341865350 -0.0583540260 -1 -1
-0.1331478720 -0.0601663230 -1 -1
-0.1321364470 -0.0619298940 -1 -1
-0.1312587660 -0.0634668470 -1 -1
-0.1306108740 -0.0646132950 -1 -1
-0.1302715230 -0.0652391540 -1 -1
-0.1302955540 -0.0652620580 -1 -1
-0.1307076510 -0.0646540440 -1 -1
-0.1314977270 -0.0634422260 -1 -1
-0.1326200200 -0.0617053700 -1 -1
-0.1339976210 -0.0595671790 -1 -1
-0.1355320960 -0.0571857740 -1 -1
-0.1371154320 -0.0547392090 -1 -1
-0.1386408580 -0.0524089200 -1 -1
-0.1400107410 -0.0503640270 -1 -1
-0.1411425520 -0.0487482890 -1 -1
-0.1419760230 -0.0476696390 -1 -1
-0.1424829760 -0.0471916950 -1 -1
-0.1426755930 -0.0473274910 -1 -1
-0.1426064350 -0.0480367970 -1 -1
-0.1423589460 -0.0492288880 -1 -1
-0.1420332310 -0.0507718450 -1 -1
-0.1417316700 -0.0525072390 -1 -1
-0.1415461850 -0.0542672090 -1 -1
-0.1415479340 -0.0558909520 -1 -1
-0.1417798220 -0.0572388510 -1 -1
-0.1422528700 -0.0582036610 -1 -1
-0.1429488640 -0.0587184290 -1 -1
-0.1438291870 -0.0587607500 -1 -1
-0.1448447450 -0.0583533340 -1 -1
-0.1459423740 -0.0575610460 -1 -1
-0.1470685200 -0.0564845250 -1 -1
-0.1481721700 -0.0552511360 -1 -1
-0.1492060040 -0.0540045590 -1 -1
-0.1501250380 -0.0528933300 -1 -1
-0.1508856490 -0.0520576740 -1 -1
-0.1514479470 -0.0516148650 -1 -1
-0.1517803080 -0.0516447560 -1 -1
-0.1518629260 -0.0521778570 -1 -1
-0.1516899410 -0.0531887340 -1 -1
-0.1512718250 -0.0545969240 -1 -1
-0.1506381640 -0.0562756560 -1 -1
-0.1498385810 -0.0580663570 -1 -1
-0.1489404250 -0.0597957250 -1 -1
-0.1480240240 -0.0612928260 -1 -1
-0.1471762870 -0.0624055750 -1 -1
-0.1464820730 -0.0630170380 -1 -1
-0.1460131270 -0.0630607590 -1 -1
-0.1458169810 -0.0625316050 -1 -1
-0.1459095620 -0.0614879200 -1 -1
-0.1462731160 -0.0600432990 -1 -1
-0.1468590840 -0.0583493450 -1 -1
-0.1475956080 -0.0565727460 -1 -1
-0.1483981760 -0.0548718680 -1 -1
-0.1491802820 -0.0533792610 -1 -1
-0.1498619810 -0.0521945320 -1 -1
-0.1503765430 -0.0513862350 -1 -1
-0.1506757140 -0.0509965840 -1 -1
-0.1507331260 -0.0510434770 -1 -1
-0.1505450200 -0.0515190390 -1 -1
-0.1501279600 -0.0523869760 -1 -1
-0.1495146110 -0.0535804220 -1 -1
-0.1487494040 -0.0550012080 -1 -1
-0.1478852800 -0.0565224190 -1 -1
-0.1469810940 -0.0579966000 -1 -1
-0.1460982640 -0.0592701590 -1 -1
-0.1452958360 -0.0602025750 -1 -1
-0.1446246280 -0.0606874980 -1 -1
-0.1441222450 -0.0606708730 -1 -1
-0.1438103330 -0.0601609640 -1 -1
-0.1436937340 -0.0592281660 -1 -1
-0.1437603840 -0.0579957470 -1 -1
-0.1439820930 -0.0566235590 -1 -1
-0.1443175600 -0.0552867210 -1 -1
-0.1447173700 -0.0541520660 -1 -1
-0.1451287110 -0.0533564230 -1 -1
-0.1454986050 -0.0529907270 -1 -1
-0.1457773140 -0.0530918810 -1 -1
-0.1459239780 -0.0536418380 -1 -1
-0.1459140390 -0.0545723460 -1 -1
-0.1457455840 -0.0557741880 -1 -1
-0.1454407860 -0.0571100410 -1 -1
-0.1450410400 -0.0584293820 -1 -1
-0.1445990960 -0.0595830490 -1 -1
-0.1441728730 -0.0604365650 -1 -1
-0.1438211500 -0.0608835080 -1 -1
-0.1435974740 -0.0608586360 -1 -1
-0.1435404800 -0.0603467540 -1 -1
-0.1436636900 -0.0593835230 -1 -1
-0.1439496760 -0.0580485140 -1 -1
-0.1443510160 -0.0564538720 -1 -1
-0.1447973580 -0.0547317160 -1 -1
-0.1452065330 -0.0530218050 -1 -1
-0.1454972430 -0.0514599850 -1 -1
-0.1456002460 -0.0501678330 -1 -1
-0.1454651120 -0.0492440640 -1 -1
-0.1450628960 -0.0487580600 -1 -1
-0.1443878300 -0.0487452260 -1 -1
-0.1434594450 -0.0492033800 -1 -1
-0.1423239070 -0.0500903960 -1 -1
-0.1410525960 -0.0513248540 -1 -1
-0.1397367940 -0.0527919900 -1 -1
-0.1384794990 -0.0543556190 -1 -1
-0.1373866250 -0.0558734770 -1 -1
-0.1365584370 -0.0572118830 -1 -1
-0.1360805210 -0.0582578430 -1 -1
-0.1360139680 -0.0589291500 -1 -1
-0.1363864350 -0.0591825070 -1 -1
-0.1371865490 -0.0590183620 -1 -1
-0.1383622830 -0.0584814910 -1 -1
-0.1398226590 -0.0576572620 -1 -1
-0.1414434770 -0.0566635820 -1 -1
-0.1430788220 -0.0556389370 -1 -1
-0.1445775090 -0.0547274530 -1 -1
-0.1458005430 -0.0540623990 -1 -1
-0.1466358850 -0.0537502350 -1 -1
-0.1470089240 -0.0538578280 -1 -1
-0.1468888360 -0.0544050170 -1 -1
-0.1462919480 -0.0553637640 -1 -1
-0.1452820270 -0.0566634830 -1 -1
-0.1439653360 -0.0582003100 -1 -1
-0.1424784940 -0.0598478050 -1 -1
-0.1409700090 -0.0614679380 -1 -1
-0.1395799590 -0.0629221890 -1 -1
-0.1384236740 -0.0640824720 -1 -1
-0.1375828800 -0.0648407520 -1 -1
-0.1371037410 -0.0651162130 -1 -1
-0.1369989100 -0.0648606440 -1 -1
-0.1372506410 -0.0640640680 -1 -1
-0.1378132620 -0.0627608610 -1 -1
-0.1386155440 -0.0610337880 -1 -1
-0.1395646160 -0.0590124340 -1 -1
-0.1405521870 -0.0568640140 -1 -1
-0.1414636300 -0.0547770520 -1 -1
-0.1421908540 -0.0529403590 -1 -1
-0.1426470540 -0.0515205680 -1 -1
-0.1427781150 -0.0506419050 -1 -1
-0.1425677000 -0.0503717010 -1 -1
-0.1420375260 -0.0507137230 -1 -1
-0.1412440690 -0.0516094650 -1 -1
-0.1402703510 -0.0529461140 -1 -1
-0.1392129960 -0.0545694380 -1 -1
-0.1381679930 -0.0563002090 -1 -1
-0.1372182630 -0.0579527460 -1 -1
-0.1364242950 -0.0593534030 -1 -1
-0.1358195550 -0.0603567950 -1 -1
-0.1354122600 -0.0608583290 -1 -1
-0.1351919570 -0.0608020140 -1 -1
-0.1351366150 -0.0601830350 -1 -1
-0.1352170430 -0.0590451930 -1 -1
-0.1353987270 -0.0574737520 -1 -1
-0.1356427950 -0.0555851970 -1 -1
-0.1359070470 -0.0535163540 -1 -1
-0.1361468640 -0.0514145490 -1 -1
-0.1363162170 -0.0494287770 -1 -1
-0.1363700620 -0.0477006010 -1 -1
-0.1362690220 -0.0463538410 -1 -1
-0.1359853440 -0.0454833490 -1 -1
-0.1355083870 -0.0451442860 -1 -1
-0.1348490340 -0.0453435580 -1 -1
-0.1340424640 -0.0460348510 -1 -1
-0.1331469720 -0.0471188530 -1 -1
-0.1322371820 -0.0484504910 -1 -1
-0.1313934160 -0.0498540780 -1 -1
-0.1306913340 -0.0511453800 -1 -1
-0.1301950850 -0.0521569740 -1 -1
-0.1299534730 -0.0527613810 -1 -1
-0.1299958870 -0.0528871930 -1 -1
-0.1303270040 -0.0525254940 -1 -1
-0.1309234720 -0.0517259610 -1 -1
-0.1317357660 -0.0505847930 -1 -1
-0.1326945350 -0.0492289350 -1 -1
-0.1337180420 -0.0478010740 -1 -1
-0.1347185780 -0.0464469470 -1 -1
-0.1356081090 -0.0453030350 -1 -1
-0.1363039900 -0.0444829730 -1 -1
-0.1367349930 -0.0440648420 -1 -1
-0.1368478020 -0.0440831700 -1 -1
-0.1366142800 -0.0445267170 -1 -1
-0.1360392770 -0.0453403980 -1 -1
-0.1351666970 -0.0464301250 -1 -1
-0.1340796190 -0.0476706180 -1 -1
-0.1328921050 -0.0489161290 -1 -1
-0.1317350290 -0.0500135170 -1 -1
-0.1307400200 -0.0508166070 -1 -1
-0.1300235480 -0.0512005240 -1 -1
-0.1296719740 -0.0510751530 -1 -1
-0.1297293820 -0.0503968590 -1 -1
-0.1301911690 -0.0491765580 -1 -1
-0.1310054700 -0.0474821560 -1 -1
-0.1320819060 -0.0454347840 -1 -1
-0.1333051490 -0.0431992220 -1 -1
-0.1345506370 -0.0409689100 -1 -1
-0.1356998440 -0.0389464570 -1 -1
-0.1366523870 -0.0373216440 -1 -1
-0.1373339340 -0.0362498290 -1 -1
-0.1377012360 -0.0358341500 -1 -1
-0.1377449850 -0.0361142840 -1 -1
-0.1374891460 -0.0370629300 -1 -1
-0.1369859430 -0.0385900710 -1 -1
-0.1363074250 -0.0405543670 -1 -1
-0.1355355750 -0.0427797790 -1 -1
-0.1347533010 -0.0450740720 -1 -1
-0.1340381620 -0.0472464620 -1 -1
-0.1334589560 -0.0491239220 -1 -1
-0.1330730330 -0.0505661480 -1 -1
-0.1329216060 -0.0514779470 -1 -1
-0.1330225460 -0.0518173140 -1 -1
-0.1333633910 -0.0515981820 -1 -1
-0.1338991190 -0.0508877030 -1 -1
-0.1345572280 -0.0497981610 -1 -1
-0.1352485540 -0.0484741870 -1 -1
-0.1358802260 -0.0470770890 -1 -1
-0.1363680260 -0.0457684740 -1 -1
-0.1366463370 -0.0446949180 -1 -1
-0.1366744450 -0.0439750170 -1 -1
-0.1364387910 -0.0436892740 -1 -1
-0.1359506550 -0.0438728630 -1 -1
-0.1352390450 -0.0445120130 -1 -1
-0.1343417290 -0.0455451530 -1 -1
-0.1332995190 -0.0468689630 -1 -1
-0.1321566070 -0.0483483560 -1 -1
-0.1309656560 -0.0498293940 -1 -1
-0.1297932880 -0.0511545770 -1 -1
-0.1287203200 -0.0521796320 -1 -1
-0.1278339440 -0.0527894880 -1 -1
-0.1272141770 -0.0529105040 -1 -1
-0.1269195680 -0.0525178280 -1 -1
-0.1269762540 -0.0516389550 -1 -1
-0.1273723230 -0.0503533040 -1 -1
-0.1280578220 -0.0487851860 -1 -1
-0.1289503670 -0.0470888400 -1 -1
-0.1299460170 -0.0454287220 -1 -1
-0.1309337120 -0.0439602710 -1 -1
-0.1318101580 -0.0428143590 -1 -1
-0.1324920760 -0.0420863250 -1 -1
-0.1329240560 -0.0418298310 -1 -1
-0.1330821240 -0.0420550630 -1 -1
-0.1329744820 -0.0427298400 -1 -1
-0.1326400340 -0.0437823130 -1 -1
-0.1321435820 -0.0451055960 -1 -1
-0.1315669380 -0.0465659850 -1 -1
-0.1309971580 -0.0480156680 -1 -1
-0.1305142500 -0.0493085990 -1 -1
-0.1301814510 -0.0503165590 -1 -1
-0.1300410700 -0.0509428820 -1 -1
-0.1301155670 -0.0511324980 -1 -1
-0.1304091420 -0.0508771330 -1 -1
-0.1309062020 -0.0502152020 -1 -1
-0.1315686440 -0.0492270760 -1 -1
-0.1323360690 -0.0480260030 -1 -1
-0.1331311820 -0.0467453200 -1 -1
-0.1338696340 -0.0455246170 -1 -1
-0.1344709490 -0.0444976370 -1 -1
-0.1348677690 -0.0437823030 -1 -1
-0.1350131470 -0.0434717960 -1 -1
-0.1348855200 -0.0436265350 -1 -1
-0.1344902140 -0.0442681510 -1 -1
-0.1338578070 -0.0453758960 -1 -1
-0.1330406160 -0.0468850640 -1 -1
-0.1321077050 -0.0486882580 -1 -1
-0.1311387110 -0.0506418910 -1 -1
-0.1302173010 -0.0525794040 -1 -1
-0.1294249840 -0.0543296000 -1 -1
-0.1288354020 -0.0557360710 -1 -1
-0.1285089850 -0.0566739220 -1 -1
-0.1284877230 -0.0570621010 -1 -1
-0.1287898820 -0.0568709710 -1 -1
-0.1294054860 -0.0561248620 -1 -1
-0.1302934110 -0.0548995470 -1 -1
-0.1313806600 -0.0533150250 -1 -1
-0.1325657370 -0.0515242290 -1 -1
-0.1337284490 -0.0496980320 -1 -1
-0.1347450850 -0.0480076600 -1 -1
-0.1355045650 -0.0466072220 -1 -1
-0.1359220700 -0.0456191050 -1 -1
-0.1359489400 -0.0451235950 -1 -1
-0.1355775830 -0.0451533160 -1 -1
-0.1348402720 -0.0456922970 -1 -1
-0.1338027650 -0.0466783530 -1 -1
-0.1325544370 -0.0480084400 -1 -1
-0.1311959390 -0.0495483930 -1 -1
-0.1298264460 -0.0511468780 -1 -1
-0.1285338470 -0.0526504680 -1 -1
-0.1273894000 -0.0539170330 -1 -1
-0.1264452930 -0.0548268230 -1 -1
-0.1257334000 -0.0552920200 -1 -1
-0.1252656740 -0.0552656370 -1 -1
-0.1250368670 -0.0547489020 -1 -1
-0.1250282870 -0.0537942060 -1 -1
-0.1252102820 -0.0525009210 -1 -1
-0.1255430260 -0.0510042570 -1 -1
-0.1259775850 -0.0494599430 -1 -1
-0.1264585450 -0.0480279810 -1 -1
-0.1269271270 -0.0468574800 -1 -1
-0.1273244470 -0.0460731620 -1 -1
-0.1275968290 -0.0457635230 -1 -1
-0.1277039210 -0.0459708570 -1 -1
-0.1276266470 -0.0466840400 -1 -1
-0.1273715460 -0.0478360010 -1 -1
-0.1269708500 -0.0493080190 -1 -1
-0.1264788670 -0.0509415630 -1 -1
-0.1259641730 -0.0525562950 -1 -1
-0.1254976840 -0.0539710950 -1 -1
-0.1251398990 -0.0550247360 -1 -1
-0.1249326630 -0.0555935380 -1 -1
-0.1248982430 -0.0556039240 -1 -1
-0.1250429260 -0.0550389360 -1 -1
-0.1253597860 -0.0539389370 -1 -1
-0.1258283320 -0.0523964960 -1 -1
-0.1264127290 -0.0505454450 -1 -1
-0.1270608970 -0.0485457750 -1 -1
-0.1277057810 -0.0465669690 -1 -1
-0.1282693180 -0.0447716760 -1 -1
-0.1286694110 -0.0433015330 -1 -1
-0.1288300430 -0.0422668580 -1 -1
-0.1286934450 -0.0417401430 -1 -1
-0.1282315610 -0.0417514820 -1 -1
-0.1274537870 -0.0422854540 -1 -1
-0.1264093630 -0.0432810400 -1 -1
-0.1251840200 -0.0446355840 -1 -1
-0.1238905770 -0.0462128190 -1 -1
-0.1226538980 -0.0478548750 -1 -1
-0.1215931830 -0.0493969740 -1 -1
-0.1208068510 -0.0506825690 -1 -1
-0.1203636770 -0.0515775350 -1 -1
-0.1202994650 -0.0519827330 -1 -1
-0.1206160730 -0.0518437560 -1 -1
-0.1212817210 -0.0511567420 -1 -1
-0.1222345600 -0.0499697710 -1 -1
-0.1233904060 -0.0483789410 -1 -1
-0.1246514720 -0.0465180640 -1 -1
-0.1259123720 -0.0445433570 -1 -1
-0.1270643200 -0.0426169920 -1 -1
-0.1280015420 -0.0408925740 -1 -1
-0.1286310490 -0.0395028140 -1 -1
-0.1288830860 -0.0385484410 -1 -1
-0.1287199180 -0.0380885090 -1 -1
-0.1281425410 -0.0381338720 -1 -1
-0.1271941280 -0.0386456440 -1 -1
-0.1259571930 -0.0395395140 -1 -1
-0.1245432200 -0.0406954490 -1 -1
-0.1230775010 -0.0419707740 -1 -1
-0.1216831960 -0.0432142450 -1 -1
-0.1204680160 -0.0442800070 -1 -1
-0.1195161860 -0.0450411680 -1 -1
-0.1188858470 -0.0454022880 -1 -1
-0.1186095770 -0.0453096160 -1 -1
-0.1186955880 -0.0447578770 -1 -1
-0.1191276130 -0.0437926110 -1 -1
-0.1198639330 -0.0425073950 -1 -1
-0.1208393240 -0.0410354420 -1 -1
-0.1219712900 -0.0395357610 -1 -1
-0.1231670420 -0.0381755550 -1 -1
-0.1243293470 -0.0371114340 -1 -1
-0.1253638630 -0.0364719200 -1 -1
-0.1261897600 -0.0363430650 -1 -1
-0.1267510280 -0.0367589820 -1 -1
-0.1270238570 -0.0376993110 -1 -1
-0.1270178780 -0.0390936770 -1 -1
-0.1267721450 -0.0408307300 -1 -1
-0.1263472850 -0.0427696790 -1 -1
-0.1258149910 -0.0447536890 -1 -1
-0.1252471080 -0.0466245440 -1 -1
-0.1247073740 -0.0482374940 -1 -1
-0.1242471980 -0.0494751220 -1 -1
-0.1239048360 -0.0502586780 -1 -1
-0.1237069850 -0.0505551740 -1 -1
-0.1236716010 -0.0503793130 -1 -1
-0.1238095430 -0.0497904110 -1 -1
-0.1241224370 -0.0488851470 -1 -1
-0.1245965360 -0.0477872350 -1 -1
-0.1251959950 -0.0466350010 -1 -1
-0.1258604830 -0.0455680390 -1 -1
-0.1265098490 -0.0447140380 -1 -1
-0.1270546740 -0.0441763390 -1 -1
-0.1274092750 -0.0440231150 -1 -1
-0.1275038770 -0.0442801290 -1 -1
-0.1272935280 -0.0449289890 -1 -1
-0.1267635010 -0.0459109050 -1 -1
-0.1259328720 -0.0471341550 -1 -1
-0.1248558600 -0.0484839620 -1 -1
-0.1236183010 -0.0498341260 -1 -1
-0.1223290560 -0.0510592050 -1 -1
-0.1211090060 -0.0520461590 -1 -1
-0.1200785200 -0.0527050800 -1 -1
-0.1193425280 -0.0529778170 -1 -1
-0.1189757000 -0.0528425340 -1 -1
-0.1190130110 -0.0523138320 -1 -1
-0.1194478100 -0.0514403050 -1 -1
-0.1202357920 -0.0503011400 -1 -1
-0.1213030870 -0.0490014150 -1 -1
-0.1225563120 -0.0476645390 -1 -1
-0.1238909650 -0.0464211360 -1 -1
-0.1251967450 -0.0453958880 -1 -1
-0.1263632540 -0.0446946350 -1 -1
-0.1272901440 -0.0443932810 -1 -1
-0.1279009370 -0.0445298740 -1 -1
-0.1281554890 -0.0451009920 -1 -1
-0.1280565240 -0.0460622400 -1 -1
-0.1276487820 -0.0473319450 -1 -1
-0.1270117340 -0.0487977780 -1 -1
-0.1262472240 -0.0503268060 -1 -1
-0.1254638930 -0.0517789350 -1 -1
-0.1247614520 -0.0530220050 -1 -1
-0.1242180220 -0.0539455620 -1 -1
-0.1238822160 -0.0544709720 -1 -1
-0.1237700690 -0.0545575270 -1 -1
-0.1238663830 -0.0542056140 -1 -1
-0.1241290060 -0.0534577420 -1 -1
-0.1244936580 -0.0523970120 -1 -1
-0.1248793070 -0.0511411630 -1 -1
-0.1251973170 -0.0498301220 -1 -1
-0.1253654250 -0.0486079190 -1 -1
-0.1253220680 -0.0476039720 -1 -1
-0.1250349670 -0.0469191020 -1 -1
-0.1245012890 -0.0466181250 -1 -1
-0.1237408750 -0.0467281560 -1 -1
-0.1227872360 -0.0472409010 -1 -1
-0.1216822070 -0.0481164630 -1 -1
-0.1204769530 -0.0492863170 -1 -1
-0.1192355580 -0.0506556880 -1 -1
-0.1180345510 -0.0521086040 -1 -1
-0.1169555860 -0.0535184860 -1 -1
-0.1160739530 -0.0547631750 -1 -1
-0.1154473030 -0.0557397390 -1 -1
-0.1151078630 -0.0563748830 -1 -1
-0.1150594500 -0.0566301210 -1 -1
-0.1152790480 -0.0565039410 -1 -1
-0.1157219590 -0.0560328700 -1 -1
-0.1163289960 -0.0552902460 -1 -1
-0.1170331410 -0.0543798840 -1 -1
-0.1177634990 -0.0534240460 -1 -1
-0.1184473780 -0.0525483470 -1 -1
-0.1190134720 -0.0518668570 -1 -1
-0.1193974120 -0.0514690660 -1 -1
-0.1195484360 -0.0514095460 -1 -1
-0.1194358910 -0.0517016360 -1 -1
-0.1190550450 -0.0523160280 -1 -1
-0.1184311550 -0.0531843300 -1 -1
-0.1176200260 -0.0542070900 -1 -1
-0.1167032020 -0.0552649030 -1 -1
-0.1157767400 -0.0562305910 -1 -1
-0.1149357750 -0.0569808630 -1 -1
-0.1142596370 -0.0574069360 -1 -1
-0.1138006590 -0.0574246260 -1 -1
-0.1135784790 -0.0569841140 -1 -1
-0.1135817280 -0.0560778840 -1 -1
-0.1137764290 -0.0547444870 -1 -1
-0.1141169180 -0.0530668120 -1 -1
-0.1145545450 -0.0511650310 -1 -1
-0.1150411720 -0.0491854840 -1 -1
-0.1155273070 -0.0472871400 -1 -1
-0.1159583620 -0.0456265430 -1 -1
-0.1162742360 -0.0443419910 -1 -1
-0.1164154540 -0.0435389610 -1 -1
-0.1163354250 -0.0432796120 -1 -1
-0.1160147170 -0.0435777870 -1 -1
-0.1154704820 -0.0443989600 -1 -1
-0.1147560660 -0.0456638170 -1 -1
-0.1139514470 -0.0472545610 -1 -1
-0.1131488110 -0.0490241950 -1 -1
-0.1124380290 -0.0508097150 -1 -1
-0.1118957540 -0.0524489230 -1 -1
-0.1115794570 -0.0537981270 -1 -1
-0.1115251920 -0.0547469030 -1 -1
-0.1117470010 -0.0552271700 -1 -1
-0.1122370230 -0.0552162120 -1 -1
-0.1129667670 -0.0547353950 -1 -1
-0.1138897820 -0.0538461810 -1 -1
-0.1149453100 -0.0526440630 -1 -1
-0.1160629760 -0.0512508280 -1 -1
-0.1171678740 -0.0498053370 -1 -1
-0.1181838160 -0.0484525670 -1 -1
-0.1190344210 -0.0473310190 -1 -1
-0.1196461590 -0.0465593160 -1 -1
-0.1199574310 -0.0462235510 -1 -1
-0.1199316390 -0.0463678070 -1 -1
-0.1195672500 -0.0469898310 -1 -1
-0.1188999380 -0.0480417910 -1 -1
-0.1179974980 -0.0494344010 -1 -1
-0.1169501030 -0.0510432460 -1 -1
-0.1158579210 -0.0527180710 -1 -1
-0.1148188800 -0.0542961990 -1 -1
-0.1139192920 -0.0556192760 -1 -1
-0.1132276160 -0.0565505570 -1 -1
-0.1127902530 -0.0569897020 -1 -1
-0.1126286050 -0.0568829640 -1 -1
-0.1127383060 -0.0562279900 -1 -1
-0.1130927530 -0.0550732710 -1 -1
-0.1136504530 -0.0535122670 -1 -1
-0.1143623180 -0.0516730650 -1 -1
-0.1151764690 -0.0497056860 -1 -1
-0.1160407770 -0.0477684630 -1 -1
-0.1169038740 -0.0460137100 -1 -1
-0.1177159960 -0.0445735890 -1 -1
-0.1184314160 -0.0435482880 -1 -1
-0.1190119300 -0.0429984870 -1 -1
-0.1194292520 -0.0429428940 -1 -1
-0.1196663690 -0.0433599680 -1 -1
-0.1197197630 -0.0441917310 -1 -1
-0.1196023200 -0.0453480880 -1 -1
-0.1193443150 -0.0467119530 -1 -1
-0.1189911380 -0.0481469920 -1 -1
-0.1185989530 -0.0495090390 -1 -1
-0.1182292760 -0.0506601020 -1 -1
-0.1179421090 -0.0514828220 -1 -1
-0.1177872770 -0.0518936700 -1 -1
-0.1177956340 -0.0518533010 -1 -1
-0.1179734530 -0.0513722990 -1 -1
-0.1183017470 -0.0505109540 -1 -1
-0.1187392740 -0.0493726630 -1 -1
-0.1192272340 -0.0480914750 -1 -1
-0.1196950320 -0.0468154110 -1 -1
-0.1200676150 -0.0456886570 -1 -1
-0.1202748300 -0.0448357840 -1 -1
-0.1202619370 -0.0443487460 -1 -1
-0.1199986260 -0.0442757920 -1 -1
-0.1194834040 -0.0446134680 -1 -1
-0.1187429230 -0.0453050350 -1 -1
-0.1178293130 -0.0462473740 -1 -1
-0.1168171180 -0.0473047690 -1 -1
-0.1157973240 -0.0483258040 -1 -1
-0.1148662580 -0.0491605060 -1 -1
-0.1141112960 -0.0496767570 -1 -1
-0.1135975430 -0.0497754260 -1 -1
-0.1133595480 -0.0494026790 -1 -1
-0.1134002610 -0.0485572290 -1 -1
-0.1136957670 -0.0472911240 -1 -1
-0.1142016280 -0.0457044990 -1 -1
-0.1148577370 -0.0439357050 -1 -1
-0.1155917880 -0.0421476260 -1 -1
-0.1163231520 -0.0405105270 -1 -1
-0.1169682530 -0.0391833160 -1 -1
-0.1174473270 -0.0382968690 -1 -1
-0.1176919160 -0.0379424270 -1 -1
-0.1176524810 -0.0381654670 -1 -1
-0.1173051450 -0.0389635130 -1 -1
-0.1166553480 -0.0402867350 -1 -1
-0.1157364050 -0.0420418460 -1 -1
-0.1146044260 -0.0441000920 -1 -1
-0.1133332830 -0.0463079950 -1 -1
-0.1120107730 -0.0484985300 -1 -1
-0.1107334870 -0.0505025170 -1 -1
-0.1095987390 -0.0521615670 -1 -1
-0.1086952940 -0.0533422630 -1 -1
-0.1080949580 -0.0539494360 -1 -1
-0.1078452110 -0.0539368700 -1 -1
-0.1079636530 -0.0533139690 -1 -1
-0.1084358770 -0.0521460940 -1 -1
-0.1092164870 -0.0505471430 -1 -1
-0.1102319360 -0.0486664190 -1 -1
-0.1113860180 -0.0466737380 -1 -1
-0.1125692510 -0.0447447650 -1 -1
-0.1136700380 -0.0430462220 -1 -1
-0.1145843510 -0.0417207360 -1 -1
-0.1152244680 -0.0408726040 -1 -1
-0.1155292210 -0.0405567200 -1 -1
-0.1154741820 -0.0407728560 -1 -1
-0.1150768190 -0.0414662600 -1 -1
-0.1143933990 -0.0425339460 -1 -1
-0.1135083310 -0.0438355190 -1 -1
-0.1125205130 -0.0452078070 -1 -1
-0.1115325680 -0.0464824880 -1 -1
-0.1106446120 -0.0475052300 -1 -1
-0.1099493100 -0.0481534340 -1 -1
-0.1095251760 -0.0483487770 -1 -1
-0.1094280580 -0.0480625220 -1 -1
-0.1096826300 -0.0473148300 -1 -1
-0.1102762470 -0.0461705890 -1 -1
-0.1111569320 -0.0447331080 -1 -1
-0.1122365680 -0.0431355150 -1 -1
-0.1134006170 -0.0415290300 -1 -1
-0.1145246060 -0.0400680760 -1 -1
-0.1154937850 -0.0388938090 -1 -1
-0.1162194940 -0.0381186690 -1 -1
-0.1166473210 -0.0378141860 -1 -1
-0.1167567990 -0.0380033280 -1 -1
-0.1165568280 -0.0386582840 -1 -1
-0.1160815680 -0.0397040110 -1 -1
-0.1153877170 -0.0410265370 -1 -1
-0.1145507050 -0.0424838550 -1 -1
-0.1136575270 -0.0439180360 -1 -1
-0.1127965460 -0.0451690120 -1 -1
-0.1120467900 -0.0460906330 -1 -1
-0.1114690320 -0.0465681100 -1 -1
-0.1111001330 -0.0465340970 -1 -1
-0.1109514150 -0.0459790320 -1 -1
-0.1110102110 -0.0449522680 -1 -1
-0.1112430710 -0.0435543160 -1 -1
-0.1116002690 -0.0419234120 -1 -1
-0.1120214800 -0.0402197970 -1 -1
-0.1124409580 -0.0386097870 -1 -1
-0.1127905470 -0.0372502680 -1 -1
-0.1130023460 -0.0362741080 -1 -1
-0.1130153100 -0.0357779770 -1 -1
-0.1127862240 -0.0358142030 -1 -1
