-0.0076959580 -0.0344943090 0 -1
-0.0077900500 -0.0350605390 0 -1
-0.0077310770 -0.0358419250 0 -1
-0.0075302480 -0.0367458890 0 -1
-0.0072103130 -0.0376717280 0 -1
-0.0068061740 -0.0385232440 0 -1
-0.0063641120 -0.0392213290 0 -1
-0.0059387780 -0.0397127280 0 -1
-0.0055871490 -0.0399723270 0 -1
-0.0053592080 -0.0399998040 0 -1
-0.0052877290 -0.0398144770 0 -1
-0.0053811700 -0.0394513520 0 -1
-0.0056220950 -0.0389584540 0 -1
-0.0059712570 -0.0383943470 0 -1
-0.0063762820 -0.0378246030 0 -1
-0.0067823720 -0.0373156280 0 -1
-0.0071417020 -0.0369258970 0 -1
-0.0074196550 -0.0366975200 0 -1
-0.0075974420 -0.0366509540 0 -1
-0.0076711210 -0.0367835160 0 -1
-0.0076483260 -0.0370712850 0 -1
-0.0075452740 -0.0374740540 0 -1
-0.0073860000 -0.0379423120 0 -1
-0.0072031850 -0.0384243340 0 -1
-0.0070372730 -0.0388714750 0 -1
-0.0069313700 -0.0392411520 0 -1
-0.0069234870 -0.0394985920 0 -1
-0.0070398610 -0.0396182550 0 -1
-0.0072919570 -0.0395844310 0 -1
-0.0076778700 -0.0393906920 0 -1
-0.0081866520 -0.0390401120 0 -1
-0.0088022740 -0.0385479190 0 -1
-0.0095052350 -0.0379445140 0 -1
-0.0102723540 -0.0372750190 0 -1
-0.0110757400 -0.0365941310 0 -1
-0.0118816120 -0.0359587580 0 -1
-0.0126508010 -0.0354220630 0 -1
-0.0133432160 -0.0350298750 0 -1
-0.0139254100 -0.0348172170 0 -1
-0.0143768480 -0.0348031620 0 -1
-0.0146915570 -0.0349852420 0 -1
-0.0148766760 -0.0353365190 0 -1
-0.0149510530 -0.0358077650 0 -1
-0.0149438960 -0.0363348350 0 -1
-0.0148911910 -0.0368488840 0 -1
-0.0148293000 -0.0372864340 0 -1
-0.0147882370 -0.0375974710 0 -1
-0.0147876890 -0.0377509200 0 -1
-0.0148362160 -0.0377368330 0 -1
-0.0149324410 -0.0375647210 0 -1
-0.0150677550 -0.0372589830 0 -1
-0.0152303210 -0.0368538780 0 -1
-0.0154086930 -0.0363898460 0 -1
-0.0155926410 -0.0359110570 0 -1
-0.0157705430 -0.0354636690 0 -1
-0.0159257690 -0.0350945280 0 -1
-0.0160357140 -0.0348492140 0 -1
-0.0160748980 -0.0347681310 0 -1
-0.0160201540 -0.0348808390 0 -1
-0.0158549280 -0.0352000960 0 -1
-0.0155714750 -0.0357170610 0 -1
-0.0151717630 -0.0363987050 0 -1
-0.0146684960 -0.0371880540 0 -1
-0.0140863240 -0.0380079400 0 -1
-0.0134613220 -0.0387690150 0 -1
-0.0128373280 -0.0393814850 0 -1
-0.0122603220 -0.0397679220 0 -1
-0.0117730360 -0.0398738630 0 -1
-0.0114110060 -0.0396743630 0 -1
-0.0112003440 -0.0391764350 0 -1
-0.0111567240 -0.0384178840 0 -1
-0.0112839940 -0.0374628110 0 -1
-0.0115711780 -0.0363942560 0 -1
-0.0119892470 -0.0353053560 0 -1
-0.0124912960 -0.0342905640 0 -1
-0.0130184010 -0.0334375200 0 -1
-0.0135090440 -0.0328194720 0 -1
-0.0139080360 -0.0324886820 0 -1
-0.0141733730 -0.0324718680 0 -1
-0.0142813820 -0.0327684730 0 -1
-0.0142291940 -0.0333514980 0 -1
-0.0140338600 -0.0341698690 0 -1
-0.0137295090 -0.0351516340 0 -1
-0.0133637790 -0.0362079650 0 -1
-0.0129931300 -0.0372385380 0 -1
-0.0126759380 -0.0381390550 0 -1
-0.0124630860 -0.0388112470 0 -1
-0.0123886660 -0.0391741300 0 -1
-0.0124652980 -0.0391737750 0 -1
-0.0126856580 -0.0387893960 0 -1
-0.0130276380 -0.0380357950 0 -1
-0.0134597250 -0.0369637160 0 -1
-0.0139451930 -0.0356586520 0 -1
-0.0144457980 -0.0342358530 0 -1
-0.0149256580 -0.0328284150 0 -1
-0.0153545810 -0.0315687470 0 -1
-0.0157094280 -0.0305686780 0 -1
-0.0159729100 -0.0299049280 0 0
-0.0161314450 -0.0296135770 0 0
-0.0161751580 -0.0296930420 0 0
-0.0161012890 -0.0301120940 0 -1
-0.0159187820 -0.0308182200 0 -1
-0.0156506810 -0.0317432230 0 -1
-0.0153330200 -0.0328065880 0 -1
-0.0150109180 -0.0339191090 0 -1
-0.0147325140 -0.0349882220 0 -1
-0.0145417110 -0.0359250520 0 -1
-0.0144724810 -0.0366526420 0 -1
-0.0145472410 -0.0371145070 0 -1
-0.0147776210 -0.0372819030 0 -1
-0.0151634480 -0.0371576340 0 -1
-0.0156895710 -0.0367753270 0 -1
-0.0163245990 -0.0361948400 0 -1
-0.0170240490 -0.0354949170 0 -1
-0.0177366710 -0.0347642600 0 -1
-0.0184119000 -0.0340926540 0 -1
-0.0190067320 -0.0335635540 0 -1
-0.0194900360 -0.0332483950 0 -1
-0.0198430980 -0.0332012920 0 -1
-0.0200573040 -0.0334528910 0 -1
-0.0201309240 -0.0340044800 0 -1
-0.0200668940 -0.0348249940 0 -1
-0.0198730070 -0.0358523020 0 -1
-0.0195642920 -0.0369983830 0 -1
-0.0191650570 -0.0381573880 0 -1
-0.0187073780 -0.0392159330 0 -1
-0.0182258490 -0.0400655340 0 -1
-0.0177522070 -0.0406159970 0 -1
-0.0173128910 -0.0408065860 0 -1
-0.0169288700 -0.0406119410 0 -1
-0.0166150160 -0.0400420540 0 -1
-0.0163775410 -0.0391381900 0 -1
-0.0162107950 -0.0379675270 0 -1
-0.0160960750 -0.0366180670 0 -1
-0.0160035750 -0.0351930710 0 -1
-0.0158960830 -0.0338031380 0 -1
-0.0157333320 -0.0325550660 0 -1
-0.0154783650 -0.0315391520 0 -1
-0.0151066020 -0.0308183650 0 -1
-0.0146139710 -0.0304222940 0 -1
-0.0140189430 -0.0303467150 0 -1
-0.0133574770 -0.0305577150 0 -1
-0.0126749840 -0.0309983940 0 -1
-0.0120199750 -0.0315961930 0 -1
-0.0114409920 -0.0322700660 0 -1
-0.0109856800 -0.0329377470 0 -1
-0.0106997320 -0.0335230350 0 -1
-0.0106236940 -0.0339624160 0 -1
-0.0107874270 -0.0342101110 0 -1
-0.0112043560 -0.0342410440 0 -1
-0.0118675800 -0.0340520980 0 -1
-0.0127486930 -0.0336624170 0 -1
-0.0138000610 -0.0331127920 0 -1
-0.0149609800 -0.0324629850 0 -1
-0.0161653480 -0.0317860380 0 -1
-0.0173467900 -0.0311604440 0 -1
-0.0184406790 -0.0306616860 0 -1
-0.0193862740 -0.0303530540 0 -1
-0.0201305210 -0.0302754120 0 -1
-0.0206320380 -0.0304384730 0 -1
-0.0208644320 -0.0308178780 0 -1
-0.0208198240 -0.0313597680 0 -1
-0.0205131520 -0.0319905990 0 -1
-0.0199852460 -0.0326285080 0 -1
-0.0193004440 -0.0331934100 0 -1
-0.0185369450 -0.0336146960 0 -1
-0.0177733190 -0.0338368670 0 -1
-0.0170764710 -0.0338239260 0 -1
-0.0164945500 -0.0335630080 0 -1
-0.0160556650 -0.0330667990 0 -1
-0.0157707300 -0.0323739930 0 -1
-0.0156378440 -0.0315472000 0 -1
-0.0156459440 -0.0306678570 0 -1
-0.0157759850 -0.0298283170 0 0
-0.0159995200 -0.0291221480 0 0
-0.0162773280 -0.0286337300 0 0
-0.0165614030 -0.0284285200 0 0
-0.0168009550 -0.0285455300 0 0
-0.0169504100 -0.0289928250 0 0
-0.0169772160 -0.0297465030 0 0
-0.0168680560 -0.0307535540 0 -1
-0.0166325700 -0.0319378270 0 -1
-0.0163034410 -0.0332077510 0 -1
-0.0159314240 -0.0344651900 0 -1
-0.0155754730 -0.0356150840 0 -1
-0.0152908530 -0.0365743740 0 -1
-0.0151189890 -0.0372779830 0 -1
-0.0150816200 -0.0376812340 0 -1
-0.0151803670 -0.0377606070 0 -1
-0.0154009420 -0.0375146250 0 -1
-0.0157194550 -0.0369643840 0 -1
-0.0161081000 -0.0361526690 0 -1
-0.0165386270 -0.0351416930 0 -1
-0.0169831250 -0.0340096770 0 -1
-0.0174128910 -0.0328459940 0 -1
-0.0177971970 -0.0317446750 0 -1
-0.0181036140 -0.0307961210 0 -1
-0.0183001830 -0.0300774820 0 -1
-0.0183589510 -0.0296436770 0 0
-0.0182604060 -0.0295218810 0 0
-0.0179984280 -0.0297106760 0 0
-0.0175844990 -0.0301822450 0 -1
-0.0170483360 -0.0308852870 0 -1
-0.0164330930 -0.0317483650 0 -1
-0.0157873980 -0.0326853300 0 -1
-0.0151585900 -0.0336041160 0 -1
-0.0145889970 -0.0344183940 0 -1
-0.0141142290 -0.0350597660 0 -1
-0.0137620690 -0.0354871440 0 -1
-0.0135518000 -0.0356905340 0 -1
-0.0134944920 -0.0356885500 0 -1
-0.0135940490 -0.0355213980 0 -1
-0.0138478590 -0.0352423380 0 -1
-0.0142456310 -0.0349098960 0 -1
-0.0147655100 -0.0345815890 0 -1
-0.0153693350 -0.0343091020 0 -1
-0.0160019290 -0.0341345520 0 -1
-0.0165972190 -0.0340871800 0 -1
-0.0170887770 -0.0341800020 0 -1
-0.0174205420 -0.0344067510 0 -1
-0.0175550410 -0.0347403980 0 -1
-0.0174776890 -0.0351347150 0 -1
-0.0171964250 -0.0355293850 0 -1
-0.0167377120 -0.0358580930 0 -1
-0.0161414410 -0.0360579800 0 -1
-0.0154567790 -0.0360780380 0 -1
-0.0147386070 -0.0358847310 0 -1
-0.0140428560 -0.0354647360 0 -1
-0.0134206340 -0.0348253460 0 -1
-0.0129136120 -0.0339928140 0 -1
-0.0125524340 -0.0330091800 0 -1
-0.0123565300 -0.0319289920 0 -1
-0.0123327480 -0.0308172870 0 -1
-0.0124734960 -0.0297480680 0 0
-0.0127572250 -0.0288004900 0 0
-0.0131512950 -0.0280512740 0 0
-0.0136143110 -0.0275649880 0 0
-0.0140970730 -0.0273857040 0 0
-0.0145447350 -0.0275326030 0 0
-0.0149023720 -0.0279993900 0 0
-0.0151232610 -0.0287556480 0 0
-0.0151774010 -0.0297490130 0 0
-0.0150573420 -0.0309083970 0 -1
-0.0147791570 -0.0321486790 0 -1
-0.0143790820 -0.0333769110 0 -1
-0.0139081560 -0.0345002320 0 -1
-0.0134261520 -0.0354351160 0 -1
-0.0129948080 -0.0361161950 0 -1
-0.0126707040 -0.0365030170 0 -1
-0.0124980210 -0.0365840570 0 -1
-0.0125012550 -0.0363771450 0 -1
-0.0126795430 -0.0359257670 0 -1
-0.0130057520 -0.0352921740 0 -1
-0.0134319080 -0.0345491610 0 -1
-0.0138987640 -0.0337721990 0 -1
-0.0143453590 -0.0330326480 0 -1
-0.0147162280 -0.0323918090 0 -1
-0.0149663170 -0.0318958850 0 -1
-0.0150639690 -0.0315727640 0 -1
-0.0149923850 -0.0314313210 0 -1
-0.0147505990 -0.0314630280 0 -1
-0.0143541830 -0.0316450260 0 -1
-0.0138337490 -0.0319436370 0 -1
-0.0132295270 -0.0323173050 0 -1
-0.0125840170 -0.0327182330 0 -1
-0.0119365820 -0.0330936070 0 -1
-0.0113213080 -0.0333886240 0 -1
-0.0107664760 -0.0335522880 0 -1
-0.0102936760 -0.0335442770 0 -1
-0.0099170990 -0.0333403810 0 -1
-0.0096449730 -0.0329354080 0 -1
-0.0094828110 -0.0323442830 0 -1
-0.0094349050 -0.0316023760 0 -1
-0.0095013700 -0.0307648800 0 -1
-0.0096725000 -0.0299036010 0 0
-0.0099250730 -0.0290993980 0 0
-0.0102234720 -0.0284303060 0 0
-0.0105250130 -0.0279578760 0 0
-0.0107873420 -0.0277158640 0 0
-0.0109758890 -0.0277051030 0 0
-0.0110693520 -0.0278953640 0 0
-0.0110618320 -0.0282315690 0 0
-0.0109621720 -0.0286417700 0 0
-0.0107920260 -0.0290464270 0 0
-0.0105835340 -0.0293687920 0 0
-0.0103766250 -0.0295447190 0 0
-0.0102157130 -0.0295296980 0 0
-0.0101459680 -0.0293015170 0 0
-0.0102092730 -0.0288584660 0 0
-0.0104384340 -0.0282153350 0 0
-0.0108485280 -0.0274005340 0 0
-0.0114287550 -0.0264557400 0 0
-0.0121406030 -0.0254365440 0 0
-0.0129239690 -0.0244112530 0 0
-0.0137079290 -0.0234560050 0 0
-0.0144223410 -0.0226467030 0 0
-0.0150075980 -0.0220499070 0 0
-0.0154205450 -0.0217146040 0 0
-0.0156363440 -0.0216661260 0 0
-0.0156476150 -0.0219030590 0 0
-0.0154622370 -0.0223969000 0 0
-0.0151007350 -0.0230938400 0 0
-0.0145939880 -0.0239194300 0 0
-0.0139819590 -0.0247867730 0 0
-0.0133131030 -0.0256062780 0 0
-0.0126423190 -0.0262941110 0 0
-0.0120258080 -0.0267785280 0 0
-0.0115143150 -0.0270049600 0 0
-0.0111473500 -0.0269407020 0 0
-0.0109488690 -0.0265795850 0 0
-0.0109243880 -0.0259460610 0 0
-0.0110614010 -0.0250964810 0 0
-0.0113342670 -0.0241150630 0 0
-0.0117111040 -0.0231041330 0 0
-0.0121583180 -0.0221710180 0 0
-0.0126408470 -0.0214153280 0 0
-0.0131207910 -0.0209191420 0 0
-0.0135583940 -0.0207398620 0 0
-0.0139159670 -0.0209045240 0 0
-0.0141617880 -0.0214058910 0 0
-0.0142716520 -0.0222016490 0 0
-0.0142288730 -0.0232173280 0 0
-0.0140254550 -0.0243532190 0 0
-0.0136660170 -0.0254954030 0 0
-0.0131724320 -0.0265296870 0 0
-0.0125849150 -0.0273554770 0 0
-0.0119564970 -0.0278967480 0 0
-0.0113420160 -0.0281088840 0 0
-0.0107874010 -0.0279812180 0 0
-0.0103248290 -0.0275353560 0 0
-0.0099739680 -0.0268198930 0 0
-0.0097460410 -0.0259024860 0 0
-0.0096478150 -0.0248603380 0 0
-0.0096831080 -0.0237710590 0 0
-0.0098502590 -0.0227063370 0 0
-0.0101374440 -0.0217293490 0 0
-0.0105203130 -0.0208950130 0 0
-0.0109643240 -0.0202515990 0 0
-0.0114300800 -0.0198417910 0 0
-0.0118792590 -0.0197009440 0 0
-0.0122806220 -0.0198518170 0 0
-0.0126153420 -0.0202975700 0 0
-0.0128794470 -0.0210159390 0 0
-0.0130823290 -0.0219568890 0 0
-0.0132431190 -0.0230449820 0 0
-0.0133869640 -0.0241868120 0 0
-0.0135412290 -0.0252824570 0 0
-0.0137309310 -0.0262383610 0 0
-0.0139737810 -0.0269786860 0 0
-0.0142759610 -0.0274532940 0 0
-0.0146297040 -0.0276419290 0 0
-0.0150132080 -0.0275551010 0 0
-0.0153924510 -0.0272322740 0 0
-0.0157246730 -0.0267375900 0 0
-0.0159638260 -0.0261527530 0 0
-0.0160674280 -0.0255668260 0 0
-0.0160032070 -0.0250637140 0 0
-0.0157543310 -0.0247096240 0 0
-0.0153226400 -0.0245435560 0 0
-0.0147297280 -0.0245731200 0 0
-0.0140160830 -0.0247760360 0 0
-0.0132383990 -0.0251059260 0 0
-0.0124645190 -0.0255002210 0 0
-0.0117660850 -0.0258886610 0 0
-0.0112104140 -0.0262016830 0 0
-0.0108529510 -0.0263781100 0 0
-0.0107310920 -0.0263714120 0 0
-0.0108609790 -0.0261542460 0 0
-0.0112381960 -0.0257211750 0 0
-0.0118401660 -0.0250890770 0 0
-0.0126275420 -0.0242947140 0 0
-0.0135454420 -0.0233898560 0 0
-0.0145272650 -0.0224353830 0 0
-0.0155013890 -0.0214955820 0 0
-0.0163983490 -0.0206329190 0 0
-0.0171572770 -0.0199035390 0 0
-0.0177322260 -0.0193537330 0 0
-0.0180969470 -0.0190173160 0 0
-0.0182446080 -0.0189138970 0 0
-0.0181828710 -0.0190476180 0 0
-0.0179298610 -0.0194048580 0 0
-0.0175143380 -0.0199506450 0 0
-0.0169768370 -0.0206269750 0 0
-0.0163671150 -0.0213568420 0 0
-0.0157371830 -0.0220545760 0 0
-0.0151328770 -0.0226394430 0 0
-0.0145881030 -0.0230479350 0 0
-0.0141238390 -0.0232413690 0 0
-0.0137503180 -0.0232081370 0 0
-0.0134695900 -0.0229620950 0 0
-0.0132772280 -0.0225388930 0 0
-0.0131637530 -0.0219910780 0 0
-0.0131165630 -0.0213823240 0 0
-0.0131217530 -0.0207814200 0 0
-0.0131650270 -0.0202562300 0 0
-0.0132322830 -0.0198671490 0 0
-0.0133104500 -0.0196608780 0 0
-0.0133872870 -0.0196667670 0 0
-0.0134491070 -0.0198962220 0 0
-0.0134789820 -0.0203431380 0 0
-0.0134588720 -0.0209838090 0 0
-0.0133750200 -0.0217767790 0 0
-0.0132231990 -0.0226637910 0 0
-0.0130120530 -0.0235725260 0 0
-0.0127642070 -0.0244210190 0 0
-0.0125138390 -0.0251230510 0 0
-0.0122994400 -0.0255944270 0 0
-0.0121534690 -0.0257610650 0 0
-0.0120932390 -0.0255691210 0 0
-0.0121169520 -0.0249954160 0 0
-0.0122056810 -0.0240551520 0 0
-0.0123288190 -0.0228039790 0 0
-0.0124505660 -0.0213330160 0 0
-0.0125371020 -0.0197577370 0 0
-0.0125635960 -0.0182036670 0 0
-0.0125180940 -0.0167922780 0 0
-0.0124006800 -0.0156288390 0 0
-0.0122194630 -0.0147924670 0 0
-0.0119858200 -0.0143288890 0 0
-0.0117105410 -0.0142471150 0 0
-0.0114013730 -0.0145207690 0 0
-0.0110620760 -0.0150932820 0 0
-0.0106930960 -0.0158847450 0 0
-0.0102934150 -0.0167986850 0 0
-0.0098628300 -0.0177292760 0 0
-0.0094045510 -0.0185699390 0 0
-0.0089277360 -0.0192226020 0 0
-0.0084489070 -0.0196064750 0 0
-0.0079920410 -0.0196659890 0 0
-0.0075878690 -0.0193770630 0 0
-0.0072720270 -0.0187506500 0 0
-0.0070813950 -0.0178332030 0 0
-0.0070486740 -0.0167036230 0 0
-0.0071960420 -0.0154662840 0 0
-0.0075290850 -0.0142407160 0 0
-0.0080319460 -0.0131490960 0 0
-0.0086656040 -0.0123031800 0 0
-0.0093719130 -0.0117928240 0 0
-0.0100832650 -0.0116774530 0 0
-0.0107342550 -0.0119803730 0 0
-0.0112714400 -0.0126858010 0 0
-0.0116594730 -0.0137393530 0 0
-0.0118838680 -0.0150526870 0 0
-0.0119513510 -0.0165120080 0 0
-0.0118879510 -0.0179895050 0 0
-0.0117343650 -0.0193568470 0 0
-0.0115394820 -0.0204999560 0 0
-0.0113541450 -0.0213331920 0 0
-0.0112258390 -0.0218097730 0 0
-0.0111932100 -0.0219256940 0 0
-0.0112805720 -0.0217161660 0 0
-0.0114944350 -0.0212460280 0 0
-0.0118234810 -0.0205975060 0 0
-0.0122411610 -0.0198588080 0 0
-0.0127091600 -0.0191156620 0 0
-0.0131814900 -0.0184462130 0 0
-0.0136102620 -0.0179177420 0 0
-0.0139524960 -0.0175827620 0 0
-0.0141755690 -0.0174735220 0 0
-0.0142598090 -0.0175964740 0 0
-0.0141986820 -0.0179297490 0 0
-0.0139977920 -0.0184260910 0 0
-0.0136742090 -0.0190206620 0 0
-0.0132568100 -0.0196403820 0 0
-0.0127863270 -0.0202120400 0 0
-0.0123126920 -0.0206688470 0 0
-0.0118887960 -0.0209558360 0 0
-0.0115624130 -0.0210338890 0 0
-0.0113693340 -0.0208820130 0 0
-0.0113304150 -0.0204978830 0 0
-0.0114532330 -0.0198972290 0 0
-0.0117356520 -0.0191126250 0 0
-0.0121664170 -0.0181916850 0 0
-0.0127203780 -0.0171945260 0 0
-0.0133520270 -0.0161906050 0 0
-0.0139943070 -0.0152545520 0 0
-0.0145665330 -0.0144602970 0 0
-0.0149887290 -0.0138734820 0 0
-0.0151961170 -0.0135431620 0 0
-0.0151496640 -0.0134948910 0 0
-0.0148421680 -0.0137279850 0 0
-0.0142999220 -0.0142180110 0 0
-0.0135789880 -0.0149223970 0 0
-0.0127557490 -0.0157859500 0 0
-0.0119141670 -0.0167444270 0 0
-0.0111338420 -0.0177264130 0 0
-0.0104814800 -0.0186556310 0 0
-0.0100052660 -0.0194566000 0 0
-0.0097304500 -0.0200643880 0 0
-0.0096564220 -0.0204354640 0 0
-0.0097574990 -0.0205550940 0 0
-0.0099884820 -0.0204388790 0 0
-0.0102932550 -0.0201293360 0 0
-0.0106137620 -0.0196901310 0 0
-0.0108974320 -0.0191995320 0 0
-0.0111021010 -0.0187426380 0 0
-0.0111980920 -0.0184015680 0 0
-0.0111677020 -0.0182444570 0 0
-0.0110032920 -0.0183158370 0 0
-0.0107055010 -0.0186305820 0 0
-0.0102816560 -0.0191715440 0 0
-0.0097442040 -0.0198906000 0 0
-0.0091105140 -0.0207136530 0 0
-0.0084051090 -0.0215495120 0 0
-0.0076627400 -0.0223011740 0 0
-0.0069293340 -0.0228774270 0 0
-0.0062596910 -0.0232022410 0 0
-0.0057124820 -0.0232201610 0 0
-0.0053432720 -0.0228984300 0 0
-0.0051967510 -0.0222281620 0 0
-0.0052999370 -0.0212263370 0 0
-0.0056571590 -0.0199386650 0 0
-0.0062469070 -0.0184412280 0 0
-0.0070215910 -0.0168374140 0 0
-0.0079120240 -0.0152483600 0 0
-0.0088371440 -0.0137988390 0 0
-0.0097167600 -0.0126029140 0 0
-0.0104835360 -0.0117527050 0 0
-0.0110909340 -0.0113108110 0 0
-0.0115154840 -0.0113056440 0 0
-0.0117544950 -0.0117291190 0 0
-0.0118222240 -0.0125365090 0 0
-0.0117460660 -0.0136487400 0 0
-0.0115625180 -0.0149579560 0 0
-0.0113133910 -0.0163368470 0 0
-0.0110430800 -0.0176513260 0 0
-0.0107957610 -0.0187751230 0 0
-0.0106111570 -0.0196037650 0 0
-0.0105201680 -0.0200653640 0 0
-0.0105419380 -0.0201272620 0 0
-0.0106820770 -0.0197991470 0 0
-0.0109319150 -0.0191330120 0 0
-0.0112695940 -0.0182186620 0 0
-0.0116629830 -0.0171734050 0 0
-0.0120736250 -0.0161268030 0 0
-0.0124607830 -0.0152037710 0 0
-0.0127837540 -0.0145098460 0 0
-0.0130012970 -0.0141208280 0 0
-0.0130701600 -0.0140773060 0 0
-0.0129463350 -0.0143840490 0 0
-0.0125912050 -0.0150136050 0 0
-0.0119812530 -0.0159124950 0 0
-0.0111167430 -0.0170080140 0 0
-0.0100254980 -0.0182145460 0 0
-0.0087614220 -0.0194395750 0 0
-0.0073993110 -0.0205898690 0 0
-0.0060270880 -0.0215776290 0 0
-0.0047364750 -0.0223262930 0 0
-0.0036136060 -0.0227763830 0 0
-0.0027310490 -0.0228915000 0 0
-0.0021421240 -0.0226634110 0 0
-0.0018780160 -0.0221146440 0 0
-0.0019471200 -0.0212973990 0 0
-0.0023349600 -0.0202883760 0 0
-0.0030036870 -0.0191801530 0 0
-0.0038924980 -0.0180710220 0 0
-0.0049212320 -0.0170558190 0 0
-0.0059974360 -0.0162190910 0 0
-0.0070259830 -0.0156299160 0 0
-0.0079206330 -0.0153366050 0 0
-0.0086153670 -0.0153611230 0 0
-0.0090717450 -0.0156957290 0 0
-0.0092804070 -0.0163041480 0 0
-0.0092575120 -0.0171264130 0 0
-0.0090380830 -0.0180852140 0 0
-0.0086687270 -0.0190929910 0 0
-0.0082016630 -0.0200599180 0 0
-0.0076907770 -0.0209022910 0 0
-0.0071891080 -0.0215502630 0 0
-0.0067455500 -0.0219539410 0 0
-0.0063996840 -0.0220870420 0 0
-0.0061775720 -0.0219482850 0 0
-0.0060907640 -0.0215613330 0 0
-0.0061366410 -0.0209733610 0 0
-0.0062983480 -0.0202517980 0 0
-0.0065461640 -0.0194787970 0 0
-0.0068418300 -0.0187427560 0 0
-0.0071439890 -0.0181271910 0 0
-0.0074125040 -0.0176995630 0 0
-0.0076118510 -0.0175032820 0 0
-0.0077145990 -0.0175543600 0 0
-0.0077042720 -0.0178419450 0 0
-0.0075758210 -0.0183310100 0 0
-0.0073335900 -0.0189667530 0 0
-0.0069893780 -0.0196812460 0 0
-0.0065628930 -0.0204014820 0 0
-0.0060839230 -0.0210560540 0 0
-0.0055929680 -0.0215790240 0 0
-0.0051374290 -0.0219128620 0 0
-0.0047643070 -0.0220133440 0 0
-0.0045134010 -0.0218560920 0 0
-0.0044129940 -0.0214415600 0 0
-0.0044772970 -0.0207963190 0 0
-0.0047046920 -0.0199705690 0 0
-0.0050765150 -0.0190324890 0 0
-0.0055570110 -0.0180604970 0 0
-0.0060960790 -0.0171350730 0 0
-0.0066353930 -0.0163310460 0 0
-0.0071161340 -0.0157108670 0 0
-0.0074858350 -0.0153196120 0 0
-0.0077033090 -0.0151821910 0 0
-0.0077426230 -0.0153025380 0 0
-0.0075973250 -0.0156637670 0 0
-0.0072841250 -0.0162283210 0 0
-0.0068433890 -0.0169389380 0 0
-0.0063340650 -0.0177224040 0 0
-0.0058233730 -0.0184965660 0 0
-0.0053754270 -0.0191791280 0 0
-0.0050431470 -0.0196965170 0 0
-0.0048642360 -0.0199920370 0 0
-0.0048594860 -0.0200332960 0 0
-0.0050315250 -0.0198181290 0 0
-0.0053635940 -0.0193772090 0 0
-0.0058203340 -0.0187718170 0 0
-0.0063521470 -0.0180863600 0 0
-0.0069015260 -0.0174165820 0 0
-0.0074089690 -0.0168559550 0 0
-0.0078182520 -0.0164832670 0 0
-0.0080825410 -0.0163531300 0 0
-0.0081720570 -0.0164893550 0 0
-0.0080808640 -0.0168812340 0 0
-0.0078287810 -0.0174842790 0 0
-0.0074574840 -0.0182267650 0 0
-0.0070226130 -0.0190213300 0 0
-0.0065831520 -0.0197790460 0 0
-0.0061901630 -0.0204227750 0 0
-0.0058796890 -0.0208971190 0 0
-0.0056728510 -0.0211735230 0 0
-0.0055796540 -0.0212503010 0 0
-0.0056010750 -0.0211487250 0 0
-0.0057290160 -0.0209075780 0 0
-0.0059472420 -0.0205780470 0 0
-0.0062341450 -0.0202186490 0 0
-0.0065657820 -0.0198891250 0 0
-0.0069184060 -0.0196435760 0 0
-0.0072704010 -0.0195245640 0 0
-0.0076029130 -0.0195598280 0 0
-0.0078989340 -0.0197615060 0 0
-0.0081420130 -0.0201263680 0 0
-0.0083160870 -0.0206363500 0 0
-0.0084064100 -0.0212594300 0 0
-0.0084001630 -0.0219509510 0 0
-0.0082872820 -0.0226565540 0 0
-0.0080641760 -0.0233183850 0 0
-0.0077399320 -0.0238834450 0 0
-0.0073402700 -0.0243103050 0 0
-0.0069057960 -0.0245717830 0 0
-0.0064852830 -0.0246542190 0 0
-0.0061268140 -0.0245550460 0 0
-0.0058699520 -0.0242802120 0 0
-0.0057414370 -0.0238430390 0 0
-0.0057546320 -0.0232653940 0 0
-0.0059103420 -0.0225803370 0 0
-0.0061967170 -0.0218337920 0 0
-0.0065890730 -0.0210825770 0 0
-0.0070520460 -0.0203879940 0 0
-0.0075441950 -0.0198069790 0 0
-0.0080231290 -0.0193837680 0 0
-0.0084501560 -0.0191438410 0 0
-0.0087940280 -0.0190909960 0 0
-0.0090331010 -0.0192080920 0 0
-0.0091559700 -0.0194611580 0 0
-0.0091616950 -0.0198054030 0 0
-0.0090603220 -0.0201913340 0 0
-0.0088729300 -0.0205699360 0 0
-0.0086297210 -0.0208965690 0 0
-0.0083660450 -0.0211338090 0 0
-0.0081177050 -0.0212539170 0 0
-0.0079167910 -0.0212412490 0 0
-0.0077882100 -0.0210941580 0 0
-0.0077466190 -0.0208256820 0 0
-0.0077949470 -0.0204623410 0 0
-0.0079259380 -0.0200413690 0 0
-0.0081254560 -0.0196075660 0 0
-0.0083752310 -0.0192098840 0 0
-0.0086544040 -0.0188963820 0 0
-0.0089400970 -0.0187071540 0 0
-0.0092076540 -0.0186672760 0 0
-0.0094319160 -0.0187826690 0 0
-0.0095902220 -0.0190403730 0 0
-0.0096666320 -0.0194127410 0 0
-0.0096565880 -0.0198635170 0 0
-0.0095707010 -0.0203528160 0 0
-0.0094355750 -0.0208393150 0 0
-0.0092907550 -0.0212811000 0 0
-0.0091832050 -0.0216375670 0 0
-0.0091613690 -0.0218727300 0 0
-0.0092693930 -0.0219583720 0 0
-0.0095410930 -0.0218758820 0 0
-0.0099939000 -0.0216174000 0 0
-0.0106242730 -0.0211881200 0 0
-0.0114060440 -0.0206102160 0 0
-0.0122921520 -0.0199263860 0 0
-0.0132199620 -0.0191997920 0 0
-0.0141203180 -0.0185086630 0 0
-0.0149288120 -0.0179366450 0 0
-0.0155961150 -0.0175616110 0 0
-0.0160949620 -0.0174454710 0 0
-0.0164229090 -0.0176265910 0 0
-0.0166003640 -0.0181154970 0 0
-0.0166640250 -0.0188936490 0 0
-0.0166577180 -0.0199147120 0 0
-0.0166231620 -0.0211081770 0 0
-0.0165922860 -0.0223856200 0 0
-0.0165827550 -0.0236490920 0 0
-0.0165979080 -0.0247999600 0 0
-0.0166299480 -0.0257471240 0 0
-0.0166639350 -0.0264149830 0 0
-0.0166815820 -0.0267509490 0 0
-0.0166646250 -0.0267310820 0 0
-0.0165963330 -0.0263626150 0 0
-0.0164600660 -0.0256826500 0 0
-0.0162363840 -0.0247528770 0 0
-0.0159013960 -0.0236514610 0 0
-0.0154279860 -0.0224642270 0 0
-0.0147902730 -0.0212770500 0 0
-0.0139696170 -0.0201704380 0 0
-0.0129586630 -0.0192159740 0 0
-0.0117622150 -0.0184738770 0 0
-0.0103986070 -0.0179916000 0 0
-0.0089042240 -0.0178029040 0 0
-0.0073375200 -0.0179257980 0 0
-0.0057771480 -0.0183588240 0 0
-0.0043132260 -0.0190774820 0 0
-0.0030341170 -0.0200333580 0 0
-0.0020124800 -0.0211574880 0 0
-0.0012955720 -0.0223679120 0 0
-0.0009026290 -0.0235800150 0 0
-0.0008272580 -0.0247176770 0 0
-0.0010406060 -0.0257230290 0 0
-0.0014938900 -0.0265625830 0 0
-0.0021221480 -0.0272286740 0 0
-0.0028511260 -0.0277373170 0 0
-0.0036066970 -0.0281238930 0 0
-0.0043237980 -0.0284372480 0 0
-0.0049515080 -0.0287326220 0 0
-0.0054532900 -0.0290641970 0 0
-0.0058044450 -0.0294778980 0 0
-0.0059897170 -0.0300047210 0 -1
-0.0060023340 -0.0306554310 0 -1
-0.0058444070 -0.0314187110 0 -1
-0.0055285710 -0.0322639020 0 -1
-0.0050807100 -0.0331462580 0 -1
-0.0045422630 -0.0340114510 0 -1
-0.0039699760 -0.0347984730 0 -1
-0.0034321250 -0.0354429370 0 -1
-0.0030014510 -0.0358825800 0 -1
-0.0027452030 -0.0360643040 0 -1
-0.0027131770 -0.0359508330 0 -1
-0.0029268300 -0.0355265500 0 -1
-0.0033737280 -0.0348030140 0 -1
-0.0040091100 -0.0338228680 0 -1
-0.0047633100 -0.0326593880 0 -1
-0.0055525550 -0.0314097320 0 -1
-0.0062901630 -0.0301824670 0 -1
-0.0068962540 -0.0290825610 0 0
-0.0073065640 -0.0281978280 0 0
-0.0074810040 -0.0275896240 0 0
-0.0074103110 -0.0272887760 0 0
-0.0071188100 -0.0272961220 0 0
-0.0066623070 -0.0275861180 0 0
-0.0061195120 -0.0281122420 0 0
-0.0055765340 -0.0288131410 0 0
-0.0051087970 -0.0296183020 0 0
-0.0047674190 -0.0304525880 0 -1
-0.0045741940 -0.0312402120 0 -1
-0.0045246590 -0.0319092060 0 -1
-0.0045961940 -0.0323966600 0 -1
-0.0047578010 -0.0326539450 0 -1
-0.0049781260 -0.0326512770 0 -1
-0.0052288510 -0.0323813890 0 -1
-0.0054837240 -0.0318615840 0 -1
-0.0057165210 -0.0311331440 0 -1
-0.0059008600 -0.0302577270 0 -1
-0.0060123720 -0.0293107570 0 0
-0.0060320230 -0.0283721570 0 0
-0.0059491260 -0.0275159410 0 0
-0.0057629420 -0.0268014660 0 0
-0.0054826320 -0.0262687670 0 0
-0.0051260490 -0.0259382800 0 0
-0.0047180450 -0.0258130090 0 0
-0.0042890710 -0.0258808250 0 0
-0.0038746710 -0.0261158690 0 0
-0.0035149120 -0.0264796030 0 0
-0.0032512550 -0.0269227990 0 0
-0.0031198670 -0.0273890880 0 0
-0.0031435310 -0.0278193600 0 0
-0.0033257290 -0.0281563950 0 0
-0.0036494500 -0.0283501170 0 0
-0.0040807400 -0.0283637960 0 0
-0.0045751060 -0.0281802130 0 0
-0.0050849120 -0.0278059010 0 0
-0.0055666670 -0.0272720390 0 0
-0.0059871290 -0.0266317650 0 0
-0.0063266480 -0.0259545030 0 0
-0.0065787190 -0.0253177910 0 0
-0.0067464440 -0.0247970930 0 0
-0.0068378200 -0.0244550790 0 0
-0.0068616680 -0.0243326920 0 0
-0.0068252040 -0.0244435310 0 0
-0.0067333080 -0.0247714760 0 0
-0.0065889350 -0.0252710530 0 0
-0.0063941490 -0.0258716140 0 0
-0.0061518690 -0.0264863690 0 0
-0.0058684730 -0.0270246250 0 0
-0.0055564920 -0.0274034680 0 0
-0.0052362640 -0.0275562010 0 0
-0.0049352020 -0.0274374880 0 0
-0.0046834870 -0.0270266950 0 0
-0.0045076390 -0.0263304550 0 0
-0.0044260640 -0.0253841770 0 0
-0.0044481660 -0.0242514540 0 0
-0.0045740580 -0.0230203790 0 0
-0.0047930580 -0.0217960110 0 0
-0.0050831570 -0.0206889970 0 0
-0.0054129520 -0.0198020400 0 0
-0.0057445590 -0.0192171840 0 0
-0.0060369140 -0.0189864920 0 0
-0.0062507290 -0.0191274420 0 0
-0.0063546420 -0.0196234300 0 0
-0.0063292200 -0.0204288760 0 0
-0.0061668320 -0.0214769990 0 0
-0.0058693610 -0.0226876610 0 0
-0.0054466900 -0.0239736130 0 0
-0.0049168180 -0.0252445730 0 0
-0.0043071930 -0.0264094560 0 0
-0.0036562080 -0.0273783630 0 0
-0.0030123110 -0.0280664830 0 0
-0.0024282690 -0.0284010930 0 0
-0.0019514920 -0.0283313970 0 0
-0.0016146700 -0.0278396670 0 0
-0.0014304150 -0.0269507100 0 0
-0.0013904500 -0.0257358520 0 0
-0.0014684810 -0.0243086110 0 0
-0.0016268830 -0.0228118400 0 0
-0.0018268930 -0.0213987220 0 0
-0.0020386890 -0.0202113400 0 0
-0.0022465450 -0.0193612440 0 0
-0.0024477040 -0.0189160550 0 0
-0.0026473660 -0.0188939360 0 0
-0.0028529380 -0.0192653740 0 0
-0.0030695730 -0.0199607840 0 0
-0.0032979630 -0.0208818930 0 0
-0.0035345810 -0.0219143600 0 0
-0.0037732190 -0.0229399960 0 0
-0.0040056260 -0.0238483240 0 0
-0.0042203890 -0.0245470010 0 0
-0.0044017520 -0.0249698330 0 0
-0.0045302210 -0.0250814220 0 0
-0.0045854660 -0.0248783960 0 0
-0.0045511420 -0.0243875930 0 0
-0.0044199750 -0.0236612340 0 0
-0.0041967060 -0.0227689010 0 0
-0.0038982070 -0.0217871480 0 0
-0.0035520520 -0.0207887950 0 0
-0.0031936510 -0.0198343320 0 0
-0.0028608700 -0.0189680400 0 0
-0.0025870600 -0.0182204450 0 0
-0.0023948890 -0.0176149240 0 0
-0.0022922810 -0.0171730120 0 0
-0.0022712540 -0.0169145630 0 0
-0.0023110350 -0.0168534270 0 0
-0.0023853260 -0.0169918300 0 0
-0.0024712500 -0.0173162820 0 0
-0.0025568950 -0.0177966980 0 0
-0.0026441640 -0.0183891670 0 0
-0.0027447290 -0.0190409330 0 0
-0.0028713250 -0.0196954320 0 0
-0.0030301690 -0.0202973120 0 0
-0.0032184450 -0.0207990290 0 0
-0.0034263290 -0.0211686040 0 0
-0.0036407610 -0.0213952450 0 0
-0.0038482110 -0.0214901660 0 0
-0.0040350800 -0.0214827740 0 0
-0.0041869310 -0.0214141650 0 0
-0.0042886130 -0.0213301150 0 0
-0.0043249590 -0.0212747500 0 0
-0.0042808070 -0.0212847290 0 0
-0.0041414520 -0.0213839330 0 0
-0.0038958590 -0.0215800720 0 0
-0.0035426870 -0.0218643330 0 0
-0.0030957990 -0.0222132440 0 0
-0.0025855050 -0.0225911390 0 0
-0.0020548150 -0.0229529070 0 0
-0.0015530740 -0.0232480530 0 0
-0.0011295500 -0.0234265420 0 0
-0.0008280610 -0.0234451610 0 0
-0.0006829830 -0.0232726300 0 0
-0.0007164640 -0.0228929180 0 0
-0.0009358830 -0.0223070310 0 0
-0.0013313680 -0.0215333550 0 0
-0.0018749560 -0.0206062340 0 0
-0.0025231070 -0.0195728920 0 0
-0.0032223900 -0.0184897110 0 0
-0.0039168120 -0.0174191230 0 0
-0.0045552980 -0.0164270400 0 0
-0.0050976970 -0.0155795480 0 0
-0.0055180260 -0.0149379460 0 0
-0.0058046650 -0.0145521860 0 0
-0.0059578430 -0.0144537660 0 0
-0.0059855580 -0.0146498070 0 0
-0.0059002530 -0.0151201380 0 0
-0.0057178060 -0.0158186010 0 0
-0.0054579280 -0.0166781640 0 0
-0.0051443900 -0.0176182810 0 0
-0.0048043270 -0.0185531990 0 0
-0.0044663520 -0.0194005280 0 0
-0.0041582170 -0.0200893230 0 0
-0.0039053660 -0.0205666330 0 0
-0.0037300290 -0.0208014370 0 0
-0.0036491270 -0.0207857120 0 0
-0.0036706140 -0.0205337810 0 0
-0.0037897720 -0.0200816100 0 0
-0.0039871410 -0.0194864390 0 0
-0.0042294220 -0.0188251500 0 0
-0.0044735620 -0.0181891910 0 0
-0.0046727590 -0.0176751930 0 0
-0.0047835610 -0.0173722720 0 0
-0.0047739850 -0.0173482710 0 0
-0.0046306610 -0.0176378970 0 0
-0.0043619350 -0.0182355830 0 0
-0.0039963030 -0.0190947230 0 0
-0.0035774780 -0.0201332630 0 0
-0.0031565430 -0.0212443780 0 0
-0.0027815080 -0.0223101750 0 0
-0.0024877000 -0.0232157060 0 0
-0.0022940150 -0.0238612160 0 0
-0.0022063170 -0.0241721490 0 0
-0.0022239450 -0.0241067820 0 0
-0.0023437610 -0.0236602870 0 0
-0.0025595670 -0.0228638240 0 0
-0.0028593110 -0.0217788020 0 0
-0.0032233370 -0.0204879760 0 0
-0.0036245930 -0.0190856550 0 0
-0.0040301450 -0.0176691820 0 0
-0.0044038120 -0.0163326410 0 0
-0.0047101940 -0.0151618100 0 0
-0.0049195590 -0.0142285890 0 0
-0.0050121910 -0.0135843670 0 0
-0.0049811830 -0.0132533710 0 0
-0.0048329510 -0.0132282880 0 0
-0.0045848220 -0.0134711800 0 0
-0.0042601190 -0.0139210670 0 0
-0.0038825780 -0.0145052900 0 0
-0.0034725070 -0.0151497230 0 0
-0.0030461820 -0.0157854000 0 0
-0.0026177060 -0.0163526560 0 0
-0.0022015510 -0.0168044660 0 0
-0.0018147540 -0.0171091770 0 0
-0.0014776700 -0.0172517040 0 0
-0.0012120090 -0.0172325930 0 0
-0.0010364930 -0.0170656170 0 0
-0.0009622540 -0.0167753320 0 0
-0.0009900660 -0.0163959490 0 0
-0.0011103800 -0.0159716590 0 0
-0.0013060050 -0.0155566190 0 0
-0.0015554130 -0.0152121270 0 0
-0.0018342320 -0.0150001070 0 0
-0.0021155480 -0.0149742880 0 0
-0.0023721970 -0.0151718460 0 0
-0.0025824130 -0.0156073610 0 0
-0.0027370580 -0.0162689680 0 0
-0.0028452970 -0.0171164120 0 0
-0.0029354800 -0.0180818440 0 0
-0.0030493860 -0.0190744360 0 0
-0.0032315530 -0.0199890480 0 0
-0.0035184100 -0.0207181920 0 0
-0.0039315690 -0.0211656380 0 0
-0.0044763550 -0.0212597470 0 0
-0.0051437840 -0.0209648390 0 0
-0.0059138990 -0.0202889980 0 0
-0.0067590230 -0.0192865750 0 0
-0.0076455320 -0.0180537590 0 0
-0.0085338220 -0.0167172060 0 0
-0.0093780890 -0.0154179580 0 0
-0.0101277060 -0.0142937380 0 0
-0.0107309320 -0.0134625780 0 0
-0.0111411620 -0.0130104830 0 0
-0.0113248530 -0.0129845310 0 0
-0.0112681630 -0.0133908160 0 0
-0.0109794180 -0.0141961040 0 0
-0.0104873730 -0.0153324670 0 0
-0.0098371440 -0.0167044340 0 0
-0.0090847640 -0.0181981110 0 0
-0.0082899380 -0.0196914360 0 0
-0.0075080520 -0.0210645490 0 0
-0.0067847490 -0.0222091920 0 0
-0.0061551000 -0.0230359150 0 0
-0.0056457700 -0.0234786290 0 0
-0.0052765580 -0.0234976840 0 0
-0.0050589980 -0.0230824740 0 0
-0.0049929560 -0.0222527320 0 0
-0.0050641210 -0.0210572960 0 0
-0.0052448640 -0.0195705220 0 0
-0.0054983200 -0.0178874330 0 0
-0.0057832410 -0.0161179040 0 0
-0.0060583520 -0.0143793430 0 0
-0.0062878470 -0.0127879380 0 0
-0.0064484080 -0.0114497200 0 0
-0.0065342920 -0.0104528090 0 0
-0.0065571430 -0.0098609170 0 0
-0.0065409850 -0.0097070390 0 0
-0.0065149900 -0.0099874370 0 0
-0.0065067450 -0.0106581470 0 0
-0.0065378880 -0.0116369110 0 0
-0.0066221290 -0.0128121950 0 0
-0.0067646230 -0.0140582750 0 0
-0.0069629610 -0.0152526200 0 0
-0.0072108260 -0.0162910490 0 0
-0.0075037060 -0.0170977120 0 0
-0.0078435360 -0.0176292850 0 0
-0.0082386170 -0.0178743290 0 0
-0.0086983840 -0.0178490350 0 0
-0.0092267030 -0.0175904170 0 0
-0.0098170690 -0.0171483360 0 0
-0.0104498990 -0.0165785090 0 0
-0.0110913580 -0.0159384140 0 0
-0.0116947140 -0.0152860390 0 0
-0.0122056830 -0.0146791580 0 0
-0.0125707160 -0.0141722640 0 0
-0.0127451530 -0.0138097570 0 0
-0.0127005200 -0.0136171040 0 0
-0.0124323020 -0.0135940470 0 0
-0.0119657880 -0.0137132660 0 0
-0.0113544730 -0.0139250910 0 0
-0.0106696020 -0.0141663980 0 0
-0.0099858600 -0.0143706840 0 0
-0.0093693960 -0.0144770720 0 0
-0.0088711790 -0.0144375090 0 0
-0.0085254700 -0.0142219270 0 0
-0.0083515550 -0.0138208370 0 0
-0.0083567740 -0.0132456770 0 0
-0.0085393490 -0.0125280320 0 0
-0.0088896140 -0.0117180420 0 0
-0.0093890290 -0.0108814420 0 0
-0.0100083360 -0.0100950460 0 0
-0.0107067880 -0.0094405200 0 0
-0.0114323450 -0.0089964470 0 0
-0.0121225600 -0.0088291900 0 0
-0.0127085230 -0.0089836560 0 0
-0.0131241620 -0.0094752540 0 0
-0.0133187020 -0.0102843540 0 0
-0.0132667860 -0.0113543880 0 0
-0.0129730720 -0.0125948590 0 0
-0.0124719080 -0.0138900400 0 0
-0.0118227270 -0.0151123750 0 0
-0.0111006170 -0.0161380620 0 0
-0.0103832670 -0.0168622570 0 0
-0.0097380870 -0.0172117810 0 0
-0.0092138030 -0.0171535340 0 0
-0.0088387630 -0.0166973280 0 0
-0.0086238490 -0.0158923450 0 0
-0.0085649270 -0.0148178040 0 0
-0.0086426100 -0.0135706150 0 0
-0.0088219340 -0.0122534450 0 0
-0.0090547240 -0.0109651700 0 0
-0.0092851290 -0.0097943050 0 0
-0.0094576340 -0.0088149260 0 0
-0.0095253530 -0.0080836000 0 0
-0.0094555450 -0.0076360950 0 0
-0.0092308870 -0.0074841570 0 0
-0.0088471570 -0.0076134180 0 0
-0.0083094570 -0.0079840580 0 0
-0.0076298940 -0.0085358720 0 0
-0.0068275900 -0.0091974620 0 0
-0.0059294080 -0.0098968880 0 0
-0.0049703980 -0.0105708460 0 0
-0.0039936520 -0.0111707950 0 0
-0.0030482290 -0.0116654380 0 0
-0.0021841240 -0.0120393730 0 0
-0.0014455530 -0.0122892020 0 0
-0.0008655640 -0.0124198570 0 0
-0.0004639310 -0.0124426870 0 0
-0.0002471960 -0.0123747790 0 0
-0.0002083080 -0.0122389820 0 0
-0.0003258450 -0.0120643890 0 0
-0.0005654000 -0.0118860400 0 0
-0.0008844990 -0.0117423790 0 0
-0.0012397630 -0.0116699250 0 0
-0.0015936150 -0.0116957510 0 0
-0.0019184050 -0.0118297800 0 0
-0.0021977610 -0.0120596390 0 0
-0.0024260810 -0.0123500050 0 0
-0.0026065310 -0.0126465900 0 0
-0.0027476590 -0.0128840300 0 0
-0.0028595990 -0.0129969510 0 0
-0.0029512250 -0.0129324760 0 0
-0.0030293420 -0.0126608160 0 0
-0.0030995730 -0.0121807030 0 0
-0.0031668960 -0.0115188250 0 0
-0.0032345580 -0.0107248250 0 0
-0.0033025660 -0.0098639760 0 0
-0.0033670260 -0.0090086970 0 0
-0.0034195720 -0.0082299940 0 0
-0.0034463320 -0.0075907230 0 0
-0.0034277700 -0.0071420490 0 0
-0.0033408840 -0.0069221090 0 0
-0.0031639800 -0.0069541380 0 0
-0.0028834490 -0.0072425340 0 0
-0.0025009330 -0.0077683190 0 0
-0.0020375220 -0.0084870390 0 0
-0.0015320870 -0.0093312740 0 0
-0.0010346310 -0.0102180290 0 0
-0.0005981600 -0.0110593590 0 0
-0.0002709740 -0.0117736340 0 0
-0.0000899321 -0.0122951150 0 0
-0.0000764302 -0.0125805860 0 0
-0.0002362530 -0.0126125370 0 0
-0.0005613940 -0.0123990910 0 0
-0.0010311660 -0.0119717740 0 0
-0.0016124630 -0.0113823270 0 0
-0.0022609750 -0.0106985510 0 0
-0.0029247970 -0.0099986260 0 0
-0.0035502450 -0.0093637090 0 0
-0.0040883520 -0.0088689520 0 0
-0.0045001830 -0.0085739970 0 0
-0.0047599990 -0.0085160240 0 0
-0.0048562930 -0.0087082510 0 0
-0.0047915210 -0.0091430600 0 0
-0.0045813040 -0.0097954390 0 0
-0.0042528660 -0.0106238040 0 0
-0.0038420430 -0.0115700710 0 0
-0.0033890950 -0.0125623770 0 0
-0.0029337860 -0.0135207120 0 0
-0.0025104200 -0.0143634900 0 0
-0.0021446410 -0.0150143660 0 0
-0.0018537380 -0.0154094170 0 0
-0.0016499030 -0.0155037970 0 0
-0.0015437980 -0.0152765050 0 0
-0.0015451190 -0.0147322480 0 0
-0.0016590030 -0.0139002180 0 0
-0.0018814540 -0.0128306830 0 0
-0.0021984290 -0.0115908930 0 0
-0.0025894360 -0.0102609220 0 0
-0.0030320390 -0.0089284800 0 0
-0.0035033170 -0.0076820810 0 0
-0.0039781260 -0.0066037240 0 0
-0.0044273210 -0.0057627200 0 0
-0.0048185680 -0.0052110050 0 0
-0.0051193700 -0.0049792050 0 0
-0.0053007180 -0.0050728080 0 0
-0.0053414060 -0.0054686970 0 0
-0.0052333240 -0.0061141330 0 0
-0.0049859030 -0.0069307460 0 0
-0.0046271460 -0.0078234790 0 0
-0.0042004660 -0.0086917610 0 0
-0.0037586980 -0.0094404650 0 0
-0.0033575040 -0.0099898600 0 0
-0.0030490170 -0.0102837470 0 0
-0.0028750530 -0.0102941720 0 0
-0.0028610070 -0.0100221380 0 0
-0.0030130400 -0.0094959670 0 0
-0.0033182430 -0.0087692640 0 0
-0.0037452010 -0.0079180190 0 0
-0.0042452040 -0.0070345460 0 0
-0.0047567130 -0.0062174930 0 0
-0.0052137270 -0.0055600610 0 0
-0.0055553900 -0.0051395390 0 0
-0.0057333200 -0.0050099490 0 0
-0.0057153130 -0.0051977690 0 0
-0.0054871380 -0.0056999820 0 0
-0.0050547310 -0.0064841900 0 0
-0.0044459070 -0.0074912120 0 0
-0.0037083090 -0.0086405180 0 0
-0.0029031270 -0.0098382880 0 0
-0.0020978400 -0.0109875370 0 0
-0.0013598470 -0.0119990320 0 0
-0.0007497000 -0.0128005520 0 0
-0.0003135800 -0.0133420570 0 0
-0.0000770513 -0.0135965660 0 0
-0.0000414236 -0.0135589560 0 0
-0.0001830380 -0.0132446850 0 0
-0.0004562640 -0.0126883480 0 0
-0.0008002100 -0.0119411210 0 0
-0.0011480260 -0.0110668490 0 0
-0.0014377060 -0.0101367820 0 0
-0.0016215240 -0.0092229960 0 0
-0.0016700620 -0.0083920060 0 0
-0.0015703140 -0.0077007670 0 0
-0.0013213880 -0.0071950570 0 0
-0.0009309950 -0.0069074980 0 0
-0.0004140890 -0.0068531530 0 0
0.0002058450 -0.0070243770 0 0
0.0008939200 -0.0073889360 0 0
0.0016024380 -0.0078937220 0 0
0.0022732040 -0.0084722760 0 0
0.0028436440 -0.0090522820 0 0
0.0032553430 -0.0095617190 0 0
0.0034623520 -0.0099355130 0 0
0.0034367860 -0.0101235510 0 0
0.0031719490 -0.0100983270 0 0
0.0026842110 -0.0098598330 0 0
0.0020122790 -0.0094360720 0 0
0.0012116790 -0.0088788590 0 0
0.0003464350 -0.0082561930 0 0
-0.0005174950 -0.0076429010 0 0
-0.0013159530 -0.0071109460 0 0
-0.0019905490 -0.0067212770 0 0
-0.0024949620 -0.0065186760 0 0
-0.0028011670 -0.0065288740 0 0
-0.0029016470 -0.0067564360 0 0
-0.0028066480 -0.0071836640 0 0
-0.0025387850 -0.0077715050 0 0
-0.0021277870 -0.0084624180 0 0
-0.0016071110 -0.0091846210 0 0
-0.0010128700 -0.0098577570 0 0
-0.0003838510 -0.0104002000 0 0
0.0002397810 -0.0107380000 0 0
0.0008204180 -0.0108148890 0 0
0.0013280430 -0.0106012850 0 0
0.0017438800 -0.0100995030 0 0
0.0020613970 -0.0093439010 0 0
0.0022844150 -0.0083969600 0 0
0.0024233160 -0.0073430320 0 0
0.0024916440 -0.0062805220 0 0
0.0025048510 -0.0053127510 0 0
0.0024805660 -0.0045381130 0 0
0.0024383610 -0.0040403260 0 0
0.0023982040 -0.0038792230 0 0
0.0023788500 -0.0040826210 0 0
0.0023969130 -0.0046410380 0 0
0.0024656970 -0.0055077290 0 0
0.0025931380 -0.0066044970 0 0
0.0027797220 -0.0078310430 0 0
0.0030176280 -0.0090754660 0 0
0.0032917540 -0.0102252270 0 0
0.0035818930 -0.0111781710 0 0
0.0038642360 -0.0118519590 0 0
0.0041116480 -0.0121904200 0 0
0.0042948030 -0.0121671850 0 0
0.0043858040 -0.0117873030 0 0
0.0043634500 -0.0110862980 0 0
0.0042180580 -0.0101262900 0 0
0.0039540490 -0.0089896860 0 0
0.0035894770 -0.0077705410 0 0
0.0031535410 -0.0065645810 0 0
0.0026835660 -0.0054606860 0 0
0.0022215310 -0.0045356590 0 0
0.0018091600 -0.0038513760 0 0
0.0014811940 -0.0034520420 0 0
0.0012588610 -0.0033601470 0 0
0.0011471630 -0.0035721200 0 0
0.0011370340 -0.0040566230 0 0
0.0012099610 -0.0047572810 0 0
0.0013429430 -0.0055987430 0 0
0.0015127170 -0.0064946060 0 0
0.0016981900 -0.0073568310 0 0
0.0018807300 -0.0081059040 0 0
0.0020433440 -0.0086802390 0 0
0.0021701410 -0.0090436140 0 0
0.0022464210 -0.0091894690 0 0
0.0022587230 -0.0091403400 0 0
0.0021955120 -0.0089418540 0 0
0.0020505790 -0.0086533800 0 0
0.0018282960 -0.0083387700 0 0
0.0015466720 -0.0080592590 0 0
0.0012361040 -0.0078686800 0 0
0.0009349640 -0.0078103890 0 0
0.0006832590 -0.0079147530 0 0
0.0005157820 -0.0081957480 0 0
0.0004574280 -0.0086469240 0 0
0.0005215610 -0.0092392800 0 0
0.0007088530 -0.0099233730 0 0
0.0010050050 -0.0106351970 0 0
0.0013803370 -0.0113033700 0 0
0.0017949400 -0.0118560900 0 0
0.0022082000 -0.0122279260 0 0
0.0025875300 -0.0123663020 0 0
0.0029124850 -0.0122368120 0 0
0.0031742750 -0.0118271350 0 0
0.0033730930 -0.0111500210 0 0
0.0035155570 -0.0102448940 0 0
0.0036131480 -0.0091762680 0 0
0.0036814640 -0.0080274620 0 0
0.0037394530 -0.0068901170 0 0
0.0038070660 -0.0058519790 0 0
0.0039003460 -0.0049860280 0 0
0.0040259950 -0.0043434010 0 0
0.0041794290 -0.0039511110 0 0
0.0043480940 -0.0038140650 0 0
0.0045177840 -0.0039194040 0 0
0.0046777420 -0.0042405400 0 0
0.0048215950 -0.0047398900 0 0
0.0049442040 -0.0053716180 0 0
0.0050369530 -0.0060855000 0 0
0.0050845460 -0.0068312130 0 0
0.0050654300 -0.0075618820 0 0
0.0049556730 -0.0082365960 0 0
0.0047345130 -0.0088222960 0 0
0.0043902040 -0.0092953980 0 0
0.0039250960 -0.0096432260 0 0
0.0033584500 -0.0098649840 0 0
0.0027255200 -0.0099719760 0 0
0.0020724660 -0.0099863720 0 0
0.0014484940 -0.0099378510 0 0
0.0008978260 -0.0098591700 0 0
0.0004540350 -0.0097828500 0 0
0.0001382120 -0.0097391990 0 0
-0.0000390100 -0.0097538100 0 0
-0.0000729359 -0.0098439310 0 0
0.0000395588 -0.0100157260 0 0
0.0003004380 -0.0102643890 0 0
0.0007055320 -0.0105763950 0 0
0.0012380850 -0.0109317180 0 0
0.0018655200 -0.0113053670 0 0
0.0025398680 -0.0116692590 0 0
0.0032006900 -0.0119946650 0 0
0.0037809490 -0.0122543380 0 0
0.0042156150 -0.0124241570 0 0
0.0044509340 -0.0124849760 0 0
0.0044521290 -0.0124247750 0 0
0.0042081340 -0.0122408750 0 0
0.0037325660 -0.0119419360 0 0
0.0030604690 -0.0115493590 0 0
0.0022415540 -0.0110973890 0 0
0.0013322050 -0.0106311550 0 0
0.0003885310 -0.0102025390 0 0
-0.0005385760 -0.0098644170 0 0
-0.0014066480 -0.0096634650 0 0
-0.0021835870 -0.0096316660 0 0
-0.0028482880 -0.0097781940 0 0
-0.0033897440 -0.0100847390 0 0
-0.0038052460 -0.0105063250 0 0
-0.0040987840 -0.0109770130 0 0
-0.0042799840 -0.0114188470 0 0
-0.0043631890 -0.0117528320 0 0
-0.0043667940 -0.0119103960 0 0
-0.0043129710 -0.0118433860 0 0
-0.0042260990 -0.0115311630 0 0
-0.0041278270 -0.0109837360 0 0
-0.0040303210 -0.0102403030 0 0
-0.0039322420 -0.0093634810 0 0
-0.0038202450 -0.0084303610 0 0
-0.0036752720 -0.0075221660 0 0
-0.0034801260 -0.0067152330 0 0
-0.0032234840 -0.0060758120 0 0
-0.0028985430 -0.0056584920 0 0
-0.0025001590 -0.0055056110 0 0
-0.0020255030 -0.0056456530 0 0
-0.0014784190 -0.0060903480 0 0
-0.0008730990 -0.0068309140 0 0
-0.0002335620 -0.0078346760 0 0
0.0004102800 -0.0090435930 0 0
0.0010269050 -0.0103760260 0 0
0.0015859410 -0.0117329480 0 0
0.0020593620 -0.0130082390 0 0
0.0024215630 -0.0141001170 0 0
0.0026483900 -0.0149210420 0 0
0.0027159340 -0.0154055310 0 0
0.0026014440 -0.0155158640 0 0
0.0022886420 -0.0152453980 0 0
0.0017760230 -0.0146198580 0 0
0.0010832560 -0.0136963440 0 0
0.0002523780 -0.0125577870 0 0
-0.0006564580 -0.0113013010 0 0
-0.0015740470 -0.0100228420 0 0
-0.0024336580 -0.0088036820 0 0
-0.0031804370 -0.0077034650 0 0
-0.0037754460 -0.0067606950 0 0
-0.0041949190 -0.0059974480 0 0
-0.0044272170 -0.0054239510 0 0
-0.0044698570 -0.0050407280 0 0
-0.0043280500 -0.0048392020 0 0
-0.0040152560 -0.0048026150 0 0
-0.0035553310 -0.0049073490 0 0
-0.0029847410 -0.0051231360 0 0
-0.0023525850 -0.0054121180 0 0
-0.0017172230 -0.0057293190 0 0
-0.0011401880 -0.0060266630 0 0
-0.0006787470 -0.0062600960 0 0
-0.0003779980 -0.0063977440 0 0
-0.0002640390 -0.0064265580 0 0
-0.0003404020 -0.0063547830 0 0
-0.0005884630 -0.0062092000 0 0
-0.0009701990 -0.0060292820 0 0
-0.0014319600 -0.0058616200 0 0
-0.0019097400 -0.0057556200 0 0
-0.0023367210 -0.0057589300 0 0
-0.0026524200 -0.0059111190 0 0
-0.0028117190 -0.0062363950 0 0
-0.0027917010 -0.0067383230 0 0
-0.0025940380 -0.0073991230 0 0
-0.0022423530 -0.0081828810 0 0
-0.0017768220 -0.0090394560 0 0
-0.0012492850 -0.0099073110 0 0
-0.0007199120 -0.0107168580 0 0
-0.0002535930 -0.0113969360 0 0
0.0000859640 -0.0118844520 0 0
0.0002439060 -0.0121336090 0 0
0.0001815120 -0.0121207720 0 0
-0.0001182140 -0.0118444280 0 0
-0.0006467290 -0.0113228060 0 0
-0.0013685480 -0.0105912150 0 0
-0.0022235490 -0.0096993540 0 0
-0.0031330110 -0.0087083030 0 0
-0.0040079920 -0.0076867240 0 0
-0.0047598670 -0.0067057740 0 0
-0.0053133860 -0.0058331430 0 0
-0.0056193860 -0.0051274010 0 0
-0.0056623690 -0.0046334380 0 0
-0.0054605810 -0.0043789140 0 0
-0.0050594840 -0.0043711950 0 0
-0.0045212050 -0.0045950630 0 0
-0.0039127190 -0.0050126130 0 0
-0.0032951880 -0.0055661640 0 0
-0.0027167150 -0.0061836170 0 0
-0.0022098460 -0.0067856700 0 0
-0.0017931210 -0.0072946770 0 0
-0.0014743840 -0.0076439940 0 0
-0.0012540560 -0.0077855580 0 0
-0.0011283160 -0.0076943000 0 0
-0.0010929680 -0.0073699510 0 0
-0.0011472750 -0.0068374440 0 0
-0.0012940240 -0.0061459600 0 0
-0.0015326940 -0.0053654220 0 0
-0.0018492960 -0.0045797640 0 0
-0.0022108550 -0.0038775350 0 0
-0.0025685110 -0.0033410350 0 0
-0.0028669530 -0.0030356420 0 0
-0.0030558080 -0.0030011080 0 0
-0.0030989030 -0.0032461620 0 0
-0.0029792980 -0.0037470400 0 0
-0.0027007370 -0.0044499320 0 0
-0.0022865950 -0.0052767980 0 0
-0.0017759310 -0.0061338750 0 0
-0.0012173330 -0.0069223630 0 0
-0.0006631670 -0.0075503580 0 0
-0.0001658900 -0.0079442580 0 0
0.0002246170 -0.0080577770 0 0
0.0004650550 -0.0078771750 0 0
0.0005254200 -0.0074217220 0 0
0.0003961610 -0.0067393430 0 0
0.0000915166 -0.0058986350 0 0
-0.0003522840 -0.0049793350 0 0
-0.0008820100 -0.0040636570 0 0
-0.0014344130 -0.0032300830 0 0
-0.0019455120 -0.0025498630 0 0
-0.0023610500 -0.0020849170 0 0
-0.0026445560 -0.0018851080 0 0
-0.0027793320 -0.0019837400 0 0
-0.0027640350 -0.0023917450 0 0
-0.0026063790 -0.0030922390 0 0
-0.0023203280 -0.0040375250 0 0
-0.0019276060 -0.0051500390 0 0
-0.0014596970 -0.0063278590 0 0
-0.0009567870 -0.0074551240 0 0
-0.0004635010 -0.0084170040 0 0
-0.0000229420 -0.0091163120 0 0
0.0003293880 -0.0094867150 0 0
0.0005695290 -0.0094991900 0 0
0.0006853140 -0.0091621200 0 0
0.0006742400 -0.0085170030 0 0
0.0005417430 -0.0076312220 0 0
0.0003009800 -0.0065892000 0 0
-0.0000276223 -0.0054836130 0 0
-0.0004190180 -0.0044075330 0 0
-0.0008481980 -0.0034471000 0 0
-0.0012949480 -0.0026745730 0 0
-0.0017463060 -0.0021427330 0 0
-0.0021950270 -0.0018819300 0 0
-0.0026348510 -0.0018993770 0 0
-0.0030557490 -0.0021788060 0 0
-0.0034425800 -0.0026802980 0 0
-0.0037782570 -0.0033425810 0 0
-0.0040486260 -0.0040888530 0 0
-0.0042447050 -0.0048353040 0 0
-0.0043613270 -0.0055012460 0 0
-0.0043957260 -0.0060194230 0 0
-0.0043495100 -0.0063441060 0 0
-0.0042325600 -0.0064548370 0 0
-0.0040643030 -0.0063557910 0 0
-0.0038707570 -0.0060726100 0 0
-0.0036795700 -0.0056482240 0 0
-0.0035151690 -0.0051379220 0 0
-0.0033950050 -0.0046039650 0 0
-0.0033275900 -0.0041104620 0 0
-0.0033121350 -0.0037182560 0 0
-0.0033392310 -0.0034790150 0 0
-0.0033921740 -0.0034293330 0 0
-0.0034488600 -0.0035863560 0 0
-0.0034850070 -0.0039453600 0 0
-0.0034793690 -0.0044794900 0 0
-0.0034191360 -0.0051424080 0 0
-0.0033024080 -0.0058738750 0 0
-0.0031371540 -0.0066073960 0 0
-0.0029385320 -0.0072781880 0 0
-0.0027257680 -0.0078295660 0 0
-0.0025189510 -0.0082170510 0 0
-0.0023366740 -0.0084106370 0 0
-0.0021952290 -0.0083956040 0 0
-0.0021083790 -0.0081720390 0 0
-0.0020863960 -0.0077533130 0 0
-0.0021340080 -0.0071645330 0 0
-0.0022476180 -0.0064423450 0 0
-0.0024125370 -0.0056354680 0 0
-0.0026018280 -0.0048035590 0 0
-0.0027781410 -0.0040133140 0 0
-0.0028984410 -0.0033329790 0 0
-0.0029202780 -0.0028260650 0 0
-0.0028079200 -0.0025439030 0 0
-0.0025374580 -0.0025172050 0 0
-0.0021005680 -0.0027483530 0 0
-0.0015062530 -0.0032065950 0 0
-0.0007800400 -0.0038277480 0 0
0.0000389777 -0.0045197020 0 0
0.0009021710 -0.0051743700 0 0
0.0017552530 -0.0056843000 0 0
0.0025419090 -0.0059597510 0 0
0.0032083330 -0.0059418250 0 0
0.0037090190 -0.0056087740 0 0
0.0040120520 -0.0049755480 0 0
0.0041018120 -0.0040890810 0 0
0.0039789910 -0.0030217490 0 0
0.0036591520 -0.0018642840 0 0
0.0031704380 -0.0007188020 0 0
0.0025502940 0.0003086450 0 0
0.0018417760 0.0011176340 0 0
0.0010903680 0.0016256150 0 0
0.0003412760 0.0017803520 0 0
-0.0003637960 0.0015685250 0 0
-0.0009908240 0.0010173780 0 0
-0.0015176030 0.0001885590 0 0
-0.0019365530 -0.0008339600 0 0
-0.0022556020 -0.0019574950 0 0
-0.0024970630 -0.0030913420 0 0
-0.0026944550 -0.0041526890 0 0
-0.0028880630 -0.0050690200 0 0
-0.0031201390 -0.0057797580 0 0
-0.0034291240 -0.0062391380 0 0
-0.0038423060 -0.0064204030 0 0
-0.0043694910 -0.0063199670 0 0
-0.0050013940 -0.0059596530 0 0
-0.0057129530 -0.0053857000 0 0
-0.0064684430 -0.0046643260 0 0
-0.0072255410 -0.0038747610 0 0
-0.0079381350 -0.0031009360 0 0
-0.0085593420 -0.0024223730 0 0
-0.0090457010 -0.0019049230 0 0
-0.0093621080 -0.0015930630 0 0
-0.0094865910 -0.0015055270 0 0
-0.0094141700 -0.0016347680 0 0
-0.0091591940 -0.0019493460 0 0
-0.0087557270 -0.0023979280 0 0
-0.0082554100 -0.0029139960 0 0
-0.0077221470 -0.0034212610 0 0
-0.0072244010 -0.0038409860 0 0
-0.0068273030 -0.0041021060 0 0
-0.0065854610 -0.0041518300 0 0
-0.0065355800 -0.0039620950 0 0
-0.0066894130 -0.0035300250 0 0
-0.0070300060 -0.0028749250 0 0
-0.0075134070 -0.0020347650 0 0
-0.0080755130 -0.0010622970 0 0
-0.0086418540 -0.0000199948 0 0
-0.0091375600 0.0010253180 0 0
-0.0094959100 0.0020066540 0 0
-0.0096652220 0.0028601750 0 0
-0.0096132270 0.0035293720 0 0
-0.0093270830 0.0039711870 0 0
-0.0088089220 0.0041629940 0 0
-0.0080695780 0.0041074690 0 0
-0.0071238760 0.0038332470 0 0
-0.0059895430 0.0033915690 0 0
-0.0046902100 0.0028503520 0 0
-0.0032608440 0.0022870010 0 0
-0.0017521510 0.0017802080 0 0
-0.0002310850 0.0014002240 0 0
0.0012240300 0.0011984570 0 0
0.0025337430 0.0011993490 0 0
0.0036298260 0.0013975710 0 0
0.0044646060 0.0017612200 0 0
0.0050154240 0.0022391210 0 0
0.0052860170 0.0027691490 0 0
0.0053064790 0.0032851390 0 0
0.0051315650 0.0037219050 0 0
0.0048359880 0.0040195070 0 0
0.0045057390 0.0041276880 0 0
0.0042262020 0.0040100880 0 0
0.0040697290 0.0036468620 0 0
0.0040858250 0.0030350280 0 0
0.0042959500 0.0021877440 0 0
0.0046930010 0.0011342740 0 0
0.0052451450 -0.0000794865 0 0
0.0059039190 -0.0013919370 0 0
0.0066142770 -0.0027293710 0 0
0.0073224270 -0.0040116520 0 0
0.0079798150 -0.0051589890 0 0
0.0085450640 -0.0060993680 0 0
0.0089854700 -0.0067756400 0 0
0.0092771600 -0.0071507020 0 0
0.0094036510 -0.0072104940 0 0
0.0093556440 -0.0069653470 0 0
0.0091342990 -0.0064495030 0 0
0.0087559440 -0.0057187490 0 0
0.0082541930 -0.0048463750 0 0
0.0076769850 -0.0039168730 0 0
0.0070785570 -0.0030171920 0 0
0.0065092780 -0.0022272270 0 0
0.0060077470 -0.0016115640 0 0
0.0055976020 -0.0012134100 0 0
0.0052888470 -0.0010509470 0 0
0.0050826370 -0.0011162610 0 0
0.0049774560 -0.0013770950 0 0
0.0049734200 -0.0017816100 0 0
0.0050718680 -0.0022652640 0 0
0.0052699390 -0.0027579440 0 0
0.0055531220 -0.0031902870 0 0
0.0058904980 -0.0034994490 0 0
0.0062355060 -0.0036348580 0 0
0.0065319130 -0.0035640450 0 0
0.0067236440 -0.0032774290 0 0
0.0067668100 -0.0027899970 0 0
0.0066406700 -0.0021390320 0 0
0.0063530980 -0.0013789290 0 0
0.0059377640 -0.0005745020 0 0
0.0054439350 0.0002062720 0 0
0.0049236530 0.0008992740 0 0
0.0044216780 0.0014505480 0 0
0.0039706750 0.0018218180 0 0
0.0035906080 0.0019942380 0 0
0.0032903560 0.0019692000 0 0
0.0030704810 0.0017665930 0 0
0.0029266690 0.0014218010 0 0
0.0028523430 0.0009820890 0 0
0.0028383970 0.0005023700 0 0
0.0028703660 0.0000404970 0 0
0.0029259390 -0.0003474670 0 0
0.0029750200 -0.0006118370 0 0
0.0029832850 -0.0007140190 0 0
0.0029203160 -0.0006315530 0 0
0.0027711010 -0.0003631260 0 0
0.0025454410 0.0000676064 0 0
0.0022793380 0.0006114680 0 0
0.0020270150 0.0011986150 0 0
0.0018475580 0.0017488830 0 0
0.0017924380 0.0021848110 0 0
0.0018981250 0.0024432850 0 0
0.0021836910 0.0024829320 0 0
0.0026501240 0.0022863510 0 0
0.0032791520 0.0018582850 0 0
0.0040329280 0.0012221530 0 0
0.0048573320 0.0004168650 0 0
0.0056895310 -0.0005056430 0 0
0.0064673650 -0.0014827400 0 0
0.0071365100 -0.0024441720 0 0
0.0076533700 -0.0033168830 0 0
0.0079854320 -0.0040317030 0 0
0.0081114050 -0.0045300910 0 0
0.0080220140 -0.0047686180 0 0
0.0077211590 -0.0047212990 0 0
0.0072257200 -0.0043816740 0 0
0.0065632620 -0.0037650850 0 0
0.0057707000 -0.0029097870 0 0
0.0048965170 -0.0018754830 0 0
0.0040036190 -0.0007388930 0 0
0.0031678250 0.0004132080 0 0
0.0024708490 0.0014924780 0 0
0.0019903420 0.0024173630 0 0
0.0017895650 0.0031197350 0 0
0.0019077130 0.0035496730 0 0
0.0023514400 0.0036792020 0 0
0.0030893730 0.0035051230 0 0
0.0040523710 0.0030502030 0 0
0.0051406820 0.0023623250 0 0
0.0062367350 0.0015117290 0 0
0.0072209710 0.0005860400 0 0
0.0079868670 -0.0003178360 0 0
0.0084519620 -0.0011054820 0 0
0.0085651250 -0.0016989530 0 0
0.0083112240 -0.0020486700 0 0
0.0077115990 -0.0021384840 0 0
0.0068187300 -0.0019827660 0 0
0.0057071130 -0.0016182770 0 0
0.0044638700 -0.0010949880 0 0
0.0031804370 -0.0004690790 0 0
0.0019446800 0.0002007250 0 0
0.0008330630 0.0008547680 0 0
-0.0000962213 0.0014344260 0 0
-0.0008071860 0.0018861090 0 0
-0.0012859060 0.0021669330 0 0
-0.0015377330 0.0022502480 0 0
-0.0015844170 0.0021297390 0 0
-0.0014615750 0.0018218540 0 0
-0.0012151390 0.0013658680 0 0
-0.0008965610 0.0008205820 0 0
-0.0005584390 0.0002579060 0 0
-0.0002512360 -0.0002454740 0 0
-0.0000190094 -0.0006173910 0 0
0.0001069280 -0.0007997470 0 0
0.0001135010 -0.0007571340 0 0
0.0000067553 -0.0004826050 0 0
-0.0001918500 0.0000011209 0 0
-0.0004506500 0.0006448250 0 0
-0.0007323230 0.0013786590 0 0
-0.0009976450 0.0021199130 0 0
-0.0012089380 0.0027828460 0 0
-0.0013335520 0.0032898250 0 0
-0.0013471060 0.0035814020 0 0
-0.0012351120 0.0036230090 0 0
-0.0009921030 0.0034077260 0 0
-0.0006200340 0.0029560610 0 0
-0.0001285810 0.0023132370 0 0
0.0004632650 0.0015436230 0 0
0.0011268250 0.0007226680 0 0
0.0018251910 -0.0000719562 0 0
0.0025157890 -0.0007682740 0 0
0.0031534620 -0.0013063580 0 0
0.0036932570 -0.0016422350 0 0
0.0040931100 -0.0017482880 0 0
0.0043176950 -0.0016109510 0 0
0.0043434460 -0.0012284890 0 0
0.0041631730 -0.0006109840 0 0
0.0037886330 0.0002176740 0 0
0.0032506290 0.0012178340 0 0
0.0025966800 0.0023340230 0 0
0.0018864160 0.0034971470 0 0
0.0011860380 0.0046284800 0 0
0.0005637050 0.0056453770 0 0
0.0000857573 0.0064687800 0 0
-0.0001881230 0.0070315660 0 0
-0.0002118260 0.0072862740 0 0
0.0000397395 0.0072113640 0 0
0.0005649300 0.0068158270 0 0
0.0013330220 0.0061415070 0 0
0.0022864220 0.0052615700 0 0
0.0033475260 0.0042737050 0 0
0.0044286930 0.0032882490 0 0
0.0054429490 0.0024138730 0 0
0.0063128900 0.0017445140 0 0
0.0069765600 0.0013497240 0 0
0.0073913690 0.0012686600 0 0
0.0075382510 0.0015074310 0 0
0.0074271840 0.0020394020 0 0
0.0071017690 0.0028079960 0 0
0.0066375890 0.0037325070 0 0
0.0061313070 0.0047178090 0 0
0.0056837580 0.0056664620 0 0
0.0053836850 0.0064895200 0 0
0.0052963930 0.0071139130 0 0
0.0054579500 0.0074868200 0 0
0.0058741820 0.0075783720 0 0
0.0065236550 0.0073836900 0 0
0.0073635040 0.0069242730 0 0
0.0083363990 0.0062476810 0 0
0.0093774790 0.0054242950 0 0
0.0104209000 0.0045405910 0 0
0.0114048480 0.0036895560 0 0
0.0122735930 0.0029602720 0 0
0.0129782060 0.0024289880 0 0
0.0134788640 0.0021524600 0 0
0.0137481420 0.0021627260 0 0
0.0137724860 0.0024627150 0 0
0.0135517590 0.0030236400 0 0
0.0130991760 0.0037857220 0 0
0.0124422160 0.0046629000 0 0
0.0116216940 0.0055512450 0 0
0.0106863370 0.0063406260 0 0
0.0096839150 0.0069289800 0 0
0.0086526110 0.0072376110 0 0
0.0076157490 0.0072242940 0 0
0.0065816490 0.0068902290 0 0
0.0055489700 0.0062785960 0 0
0.0045157930 0.0054654420 0 0
0.0034885490 0.0045453590 0 0
0.0024870370 0.0036150420 0 0
0.0015437880 0.0027587420 0 0
0.0006984020 0.0020396150 0 0
-0.0000105725 0.0014985100 0 0
-0.0005532510 0.0011580390 0 0
-0.0009144680 0.0010277950 0 0
-0.0010973530 0.0011074610 0 0
-0.0011218610 0.0013870160 0 0
-0.0010177090 0.0018449990 0 0
-0.0008157400 0.0024465420 0 0
-0.0005415720 0.0031431080 0 0
-0.0002121100 0.0038753250 0 0
0.0001650050 0.0045784620 0 0
0.0005886300 0.0051889770 0 0
0.0010598030 0.0056512230 0 0
0.0015787040 0.0059239560 0 0
0.0021437940 0.0059858210 0 0
0.0027518710 0.0058380270 0 0
0.0033967670 0.0055026980 0 0
0.0040660260 0.0050176230 0 0
0.0047380440 0.0044298400 0 0
0.0053822170 0.0037901620 0 0
0.0059614120 0.0031491380 0 0
0.0064351050 0.0025536480 0 0
0.0067631780 0.0020436400 0 0
0.0069109530 0.0016493490 0 0
0.0068549810 0.0013890450 0 0
0.0065882510 0.0012669660 0 0
0.0061236650 0.0012717110 0 0
0.0054949030 0.0013761320 0 0
0.0047540930 0.0015398190 0 0
0.0039659230 0.0017146340 0 0
0.0031990050 0.0018524840 0 0
0.0025172820 0.0019132080 0 0
0.0019736250 0.0018706860 0 0
0.0016052070 0.0017165560 0 0
0.0014301670 0.0014610720 0 0
0.0014468910 0.0011301770 0 0
0.0016365830 0.0007593460 0 0
0.0019670060 0.0003869750 0 0
0.0023950240 0.0000498475 0 0
0.0028685420 -0.0002190060 0 0
0.0033302310 -0.0003909000 0 0
0.0037238150 -0.0004414370 0 0
0.0040012400 -0.0003509400 0 0
0.0041282290 -0.0001062440 0 0
0.0040867750 0.0002962700 0 0
0.0038750140 0.0008470790 0 0
0.0035065410 0.0015201770 0 0
0.0030107320 0.0022716880 0 0
0.0024325180 0.0030422010 0 0
0.0018287650 0.0037628460 0 0
0.0012609800 0.0043637780 0 0
0.0007867000 0.0047840690 0 0
0.0004518270 0.0049820380 0 0
0.0002846160 0.0049436010 0 0
0.0002910050 0.0046853910 0 0
0.0004523350 0.0042513380 0 0
0.0007284580 0.0037046890 0 0
0.0010670460 0.0031187380 0 0
0.0014154780 0.0025680510 0 0
0.0017302560 0.0021198900 0 0
0.0019809420 0.0018258000 0 0
0.0021489200 0.0017155630 0 0
0.0022242620 0.0017960110 0 0
0.0022042250 0.0020544180 0 0
0.0020941390 0.0024637790 0 0
0.0019092880 0.0029881160 0 0
0.0016770550 0.0035871720 0 0
0.0014385660 0.0042195470 0 0
0.0012475800 0.0048440640 0 0
0.0011647560 0.0054203550 0 0
0.0012481480 0.0059092750 0 0
0.0015426340 0.0062731420 0 0
0.0020711070 0.0064770910 0 0
0.0028291660 0.0064930740 0 0
0.0037837820 0.0063060140 0 0
0.0048763670 0.0059199520 0 0
0.0060304730 0.0053622930 0 0
0.0071628840 0.0046847650 0 0
0.0081951320 0.0039597380 0 0
0.0090624930 0.0032714120 0 0
0.0097192860 0.0027034840 0 0
0.0101408460 0.0023265130 0 0
0.0103225900 0.0021880280 0 0
0.0102766130 0.0023073350 0 0
0.0100272430 0.0026750090 0 0
0.0096076140 0.0032558190 0 0
0.0090577450 0.0039940780 0 0
0.0084227180 0.0048205220 0 0
0.0077497630 0.0056596320 0 0
0.0070843090 0.0064371170 0 0
0.0064660810 0.0070874920 0 0
0.0059272840 0.0075601680 0 0
0.0054937990 0.0078223340 0 0
0.0051876050 0.0078591470 0 0
0.0050276840 0.0076733190 0 0
0.0050282180 0.0072853310 0 0
0.0051943790 0.0067338250 0 0
0.0055171310 0.0060748040 0 0
0.0059696180 0.0053782630 0 0
0.0065077520 0.0047216360 0 0
0.0070762800 0.0041812790 0 0
0.0076187730 0.0038242230 0 0
0.0080868320 0.0037011720 0 0
0.0084441140 0.0038406380 0 0
0.0086650410 0.0042446400 0 0
0.0087319350 0.0048867830 0 0
0.0086342500 0.0057127740 0 0
0.0083708050 0.0066437200 0 0
0.0079537200 0.0075835450 0 0
0.0074117780 0.0084307260 0 0
0.0067909160 0.0090912740 0 0
0.0061506890 0.0094887890 0 0
0.0055568300 0.0095701650 0 0
0.0050707010 0.0093083190 0 0
0.0047383300 0.0087036980 0 0
0.0045833220 0.0077853770 0 0
0.0046057750 0.0066110970 0 0
0.0047853720 0.0052641990 0 0
0.0050857940 0.0038460280 0 0
0.0054595060 0.0024651610 0 0
0.0058532680 0.0012261750 0 0
0.0062141360 0.0002195450 0 0
0.0064950870 -0.0004865900 0 0
0.0066602470 -0.0008522210 0 0
0.0066900910 -0.0008686270 0 0
0.0065853370 -0.0005587710 0 0
0.0063668600 0.0000258291 0 0
0.0060706910 0.0008120820 0 0
0.0057407240 0.0017148960 0 0
0.0054223490 0.0026471370 0 0
0.0051572030 0.0035279110 0 0
0.0049776680 0.0042879450 0 0
0.0049016880 0.0048721450 0 0
0.0049300350 0.0052407860 0 0
0.0050471900 0.0053710530 0 0
0.0052252630 0.0052599950 0 0
0.0054299070 0.0049279030 0 0
0.0056272400 0.0044188120 0 0
0.0057898070 0.0037954410 0 0
0.0058986910 0.0031294800 0 0
0.0059410230 0.0024904130 0 0
0.0059056780 0.0019358740 0 0
0.0057808800 0.0015056180 0 0
0.0055545980 0.0012197660 0 0
0.0052164350 0.0010807260 0 0
0.0047601660 0.0010772890 0 0
0.0041865540 0.0011889830 0 0
0.0035049350 0.0013896650 0 0
0.0027321610 0.0016504300 0 0
0.0018902020 0.0019417170 0 0
0.0010051820 0.0022346090 0 0
0.0001076100 0.0025023700 0 0
-0.0007688060 0.0027234430 0 0
-0.0015899200 0.0028853400 0 0
-0.0023238250 0.0029867980 0 0
-0.0029437320 0.0030360470 0 0
-0.0034315310 0.0030458040 0 0
-0.0037803010 0.0030279900 0 0
-0.0039945460 0.0029910890 0 0
-0.0040886060 0.0029408610 0 0
-0.0040836460 0.0028830120 0 0
-0.0040035340 0.0028261010 0 0
-0.0038707100 0.0027835370 0 0
-0.0037031280 0.0027735960 0 0
-0.0035125710 0.0028163010 0 0
-0.0033047610 0.0029272750 0 0
-0.0030815040 0.0031111410 0 0
-0.0028438810 0.0033579510 0 0
-0.0025948700 0.0036442960 0 0
-0.0023401540 0.0039380450 0 0
-0.0020864280 0.0042040680 0 0
-0.0018376050 0.0044086140 0 0
-0.0015910300 0.0045219700 0 0
-0.0013363040 0.0045206350 0 0
-0.0010575110 0.0043897700 0 0
-0.0007375800 0.0041255940 0 0
-0.0003634360 0.0037369750 0 0
0.0000688502 0.0032456060 0 0
0.0005496850 0.0026846430 0 0
0.0010536500 0.0020965000 0 0
0.0015404510 0.0015308690 0 0
0.0019593380 0.0010430080 0 0
0.0022561830 0.0006902890 0 0
0.0023817510 0.0005248940 0 0
0.0022999590 0.0005832890 0 0
0.0019953570 0.0008760470 0 0
0.0014779190 0.0013822300 0 0
0.0007826390 0.0020503890 0 0
-0.0000363111 0.0028050720 0 0
-0.0009142810 0.0035563330 0 0
-0.0017848000 0.0042099860 0 0
-0.0025869070 0.0046774830 0 0
-0.0032707400 0.0048856430 0 0
-0.0038009310 0.0047861970 0 0
-0.0041571850 0.0043631620 0 0
-0.0043318080 0.0036358230 0 0
-0.0043255170 0.0026571150 0 0
-0.0041445970 0.0015082490 0 0
-0.0038015390 0.0002896100 0 0
-0.0033187460 -0.0008913660 0 0
-0.0027323930 -0.0019330580 0 0
-0.0020926010 -0.0027507280 0 0
-0.0014583720 -0.0032836780 0 0
-0.0008895090 -0.0034974120 0 0
-0.0004384790 -0.0033822600 0 0
-0.0001434640 -0.0029513970 0 0
-0.0000231856 -0.0022395660 0 0
-0.0000745871 -0.0013017200 0 0
-0.0002744880 -0.0002102950 0 0
-0.0005854340 0.0009499780 0 0
-0.0009639940 0.0020901850 0 0
-0.0013682610 0.0031270310 0 0
-0.0017616750 0.0039913850 0 0
-0.0021122270 0.0046335230 0 0
-0.0023895640 0.0050256180 0 0
-0.0025647620 0.0051628040 0 0
-0.0026143390 0.0050622320 0 0
-0.0025258610 0.0047589140 0 0
-0.0023019590 0.0042992640 0 0
-0.0019606670 0.0037351190 0 0
-0.0015315550 0.0031204830 0 0
-0.0010492170 0.0025109620 0 0
-0.0005463770 0.0019630530 0 0
-0.0000486690 0.0015300110 0 0
0.0004275410 0.0012538370 0 0
0.0008742680 0.0011563310 0 0
0.0012896350 0.0012330610 0 0
0.0016760890 0.0014524530 0 0
0.0020393210 0.0017600670 0 0
0.0023869140 0.0020870840 0 0
0.0027264300 0.0023620030 0 0
0.0030640580 0.0025241410 0 0
0.0034053670 0.0025356240 0 0
0.0037577080 0.0023875340 0 0
0.0041309510 0.0020984110 0 0
0.0045338930 0.0017072580 0 0
0.0049682960 0.0012646300 0 0
0.0054254010 0.0008245980 0 0
0.0058867630 0.0004391080 0 0
0.0063273450 0.0001547440 0 0
0.0067192040 0.0000108596 0 0
0.0070355500 0.0000382966 0 0
0.0072544990 0.0002585260 0 0
0.0073614570 0.0006832860 0 0
0.0073496150 0.0013141460 0 0
0.0072187540 0.0021406480 0 0
0.0069735430 0.0031363950 0 0
0.0066233330 0.0042544220 0 0
0.0061848110 0.0054249470 0 0
0.0056859060 0.0065587000 0 0
0.0051670090 0.0075564640 0 0
0.0046764550 0.0083225290 0 0
0.0042604560 0.0087785430 0 0
0.0039520220 0.0088744920 0 0
0.0037655510 0.0085948930 0 0
0.0036994640 0.0079599860 0 0
0.0037425820 0.0070226860 0 0
0.0038785430 0.0058624180 0 0
0.0040862400 0.0045766900 0 0
0.0043383310 0.0032710850 0 0
0.0046017800 0.0020491620 0 0
0.0048425870 0.0010043050 0 0
0.0050325860 0.0002137890 0 0
0.0051543020 -0.0002662490 0 0
0.0052020470 -0.0004053340 0 0
0.0051797890 -0.0002016950 0 0
0.0050975530 0.0003171070 0 0
0.0049684290 0.0010963560 0 0
0.0048066410 0.0020596780 0 0
0.0046255770 0.0031183720 0 0
0.0044358300 0.0041834740 0 0
0.0042448190 0.0051773490 0 0
0.0040584870 0.0060417880 0 0
0.0038832870 0.0067418250 0 0
0.0037262640 0.0072656350 0 0
0.0035928780 0.0076206990 0 0
0.0034840610 0.0078274650 0 0
0.0033940250 0.0079132070 0 0
0.0033097320 0.0079077690 0 0
0.0032126650 0.0078403990 0 0
0.0030827070 0.0077364860 0 0
0.0029027770 0.0076148020 0 0
0.0026622630 0.0074866130 0 0
0.0023582350 0.0073567040 0 0
0.0019950640 0.0072251100 0 0
0.0015837200 0.0070883920 0 0
0.0011413310 0.0069399120 0 0
0.0006902790 0.0067694550 0 0
0.0002556840 0.0065632270 0 0
-0.0001384320 0.0063051410 0 0
-0.0004718600 0.0059796910 0 0
-0.0007277000 0.0055754650 0 0
-0.0008895850 0.0050874890 0 0
-0.0009400640 0.0045180520 0 0
-0.0008623820 0.0038771730 0 0
-0.0006449620 0.0031828000 0 0
-0.0002866570 0.0024602500 0 0
0.0001988630 0.0017416390 0 0
0.0007809540 0.0010660950 0 0
0.0014132220 0.0004798400 0 0
0.0020388890 0.0000341428 0 0
0.0025999580 -0.0002204270 0 0
0.0030473900 -0.0002428730 0 0
0.0033483230 -0.0000106051 0 0
0.0034880890 0.0004753120 0 0
0.0034682760 0.0011896980 0 0
0.0033034460 0.0020861500 0 0
0.0030175410 0.0031015140 0 0
0.0026400520 0.0041611820 0 0
0.0022037150 0.0051845320 0 0
0.0017461750 0.0060898270 0 0
0.0013142940 0.0067993580 0 0
0.0009654760 0.0072462990 0 0
0.0007615540 0.0073833290 0 0
0.0007562820 0.0071912150 0 0
0.0009814780 0.0066845860 0 0
0.0014373320 0.0059128500 0 0
0.0020905530 0.0049558940 0 0
0.0028804600 0.0039154200 0 0
0.0037298140 0.0029030210 0 0
0.0045568330 0.0020265300 0 0
0.0052862400 0.0013769940 0 0
0.0058581130 0.0010187020 0 0
0.0062338130 0.0009836980 0 0
0.0063988370 0.0012705000 0 0
0.0063625780 0.0018456800 0 0
0.0061554010 0.0026473160 0 0
0.0058233260 0.0035905850 0 0
0.0054203160 0.0045756740 0 0
0.0050000010 0.0054972260 0 0
0.0046098980 0.0062545730 0 0
0.0042888360 0.0067622140 0 0
0.0040659320 0.0069592280 0 0
0.0039599560 0.0068157530 0 0
0.0039789720 0.0063351210 0 0
0.0041199630 0.0055518100 0 0
0.0043678930 0.0045264920 0 0
0.0046950390 0.0033389500 0 0
0.0050631270 0.0020791040 0 0
0.0054289580 0.0008374170 0 0
0.0057503090 -0.0003029490 0 0
0.0059889750 -0.0012710290 0 0
0.0061118280 -0.0020104120 0 0
0.0060928500 -0.0024800160 0 0
0.0059171820 -0.0026545690 0 0
0.0055854550 -0.0025258070 0 0
0.0051158670 -0.0021038640 0 0
0.0045431940 -0.0014178910 0 0
0.0039158540 -0.0005159220 0 0
0.0032914010 0.0005360390 0 0
0.0027292840 0.0016570860 0 0
0.0022812750 0.0027579600 0 0
0.0019826430 0.0037505230 0 0
0.0018466960 0.0045580090 0 0
0.0018632670 0.0051241280 0 0
0.0020008110 0.0054198450 0 0
0.0022119190 0.0054471740 0 0
0.0024415590 0.0052398040 0 0
0.0026365650 0.0048601030 0 0
0.0027541050 0.0043911770 0 0
0.0027666080 0.0039242110 0 0
0.0026625780 0.0035445870 0 0
0.0024460950 0.0033209860 0 0
0.0021369790 0.0032987340 0 0
0.0017691200 0.0034962200 0 0
0.0013842930 0.0039037420 0 0
0.0010242080 0.0044854220 0 0
0.0007260740 0.0051843170 0 0
0.0005223760 0.0059295130 0 0
0.0004407170 0.0066442640 0 0
0.0005014390 0.0072547680 0 0
0.0007144840 0.0076981040 0 0
0.0010770260 0.0079272440 0 0
0.0015724160 0.0079132490 0 0
0.0021713210 0.0076465830 0 0
0.0028353260 0.0071381610 0 0
0.0035219000 0.0064189600 0 0
0.0041902800 0.0055374820 0 0
0.0048079820 0.0045554190 0 0
0.0053547910 0.0035421500 0 0
0.0058212540 0.0025691450 0 0
0.0062040080 0.0017053540 0 0
0.0065019160 0.0010128440 0 0
0.0067139920 0.0005407600 0 0
0.0068391780 0.0003178090 0 0
0.0068785480 0.0003459710 0 0
0.0068387700 0.0005979640 0 0
0.0067336760 0.0010199680 0 0
0.0065818890 0.0015402940 0 0
0.0064019470 0.0020818910 0 0
0.0062084410 0.0025740740 0 0
0.0060120230 0.0029605040 0 0
0.0058232730 0.0032036100 0 0
0.0056575440 0.0032865220 0 0
0.0055368640 0.0032127050 0 0
0.0054862710 0.0030031810 0 0
0.0055257940 0.0026918680 0 0
0.0056624840 0.0023203560 0 0
0.0058862170 0.0019336110 0 0
0.0061698740 0.0015774550 0 0
0.0064726600 0.0012975860 0 0
0.0067462310 0.0011385940 0 0
0.0069443160 0.0011409910 0 0
0.0070347850 0.0013357540 0 0
0.0070097180 0.0017381500 0 0
0.0068875990 0.0023427960 0 0
0.0067054450 0.0031206700 0 0
0.0065056270 0.0040187740 0 0
0.0063248090 0.0049638450 0 0
0.0061893710 0.0058704550 0 0
0.0061169880 0.0066519380 0 0
0.0061206490 0.0072315390 0 0
0.0062111050 0.0075515130 0 0
0.0063962900 0.0075792220 0 0
0.0066788080 0.0073104700 0 0
0.0070538500 0.0067705960 0 0
0.0075091960 0.0060135520 0 0
0.0080265450 0.0051180850 0 0
0.0085816000 0.0041796020 0 0
0.0091421810 0.0032979380 0 0
0.0096671440 0.0025639800 0 0
0.0101096570 0.0020489590 0 0
0.0104248240 0.0017984900 0 0
0.0105781120 0.0018305630 0 0
0.0105512540 0.0021353310 0 0
0.0103449390 0.0026757230 0 0
0.0099787010 0.0033895780 0 0
0.0094884800 0.0041943360 0 0
0.0089225520 0.0049949820 0 0
0.0083359900 0.0056947170 0 0
0.0077836020 0.0062061440 0 0
0.0073131290 0.0064601960 0 0
0.0069613160 0.0064117090 0 0
0.0067526110 0.0060427140 0 0
0.0066977420 0.0053647870 0 0
0.0067914250 0.0044200470 0 0
0.0070114490 0.0032790390 0 0
0.0073207270 0.0020345950 0 0
0.0076715670 0.0007921220 0 0
0.0080106210 -0.0003427470 0 0
0.0082835550 -0.0012771590 0 0
0.0084398020 -0.0019413450 0 0
0.0084382680 -0.0022936070 0 0
0.0082523790 -0.0023201740 0 0
0.0078712700 -0.0020320170 0 0
0.0072976690 -0.0014609110 0 0
0.0065468000 -0.0006559630 0 0
0.0056478610 0.0003195840 0 0
0.0046449250 0.0013925820 0 0
0.0035942430 0.0024862530 0 0
0.0025577840 0.0035277610 0 0
0.0015947630 0.0044549350 0 0
0.0007540360 0.0052201780 0 0
0.0000695183 0.0057914420 0 0
-0.0004416630 0.0061518030 0 0
-0.0007795930 0.0062991870 0 0
-0.0009602790 0.0062465810 0 0
-0.0010116350 0.0060224530 0 0
-0.0009679630 0.0056706420 0 0
-0.0008652150 0.0052482740 0 0
-0.0007367570 0.0048203230 0 0
-0.0006087630 0.0044513680 0 0
-0.0004971910 0.0041968800 0 0
-0.0004080090 0.0040963420 0 0
-0.0003395210 0.0041693060 0 0
-0.0002850440 0.0044142710 0 0
-0.0002349730 0.0048091530 0 0
-0.0001781060 0.0053126150 0 0
-0.0001029030 0.0058672580 0 0
0.0000010459 0.0064056410 0 0
0.0001417910 0.0068584470 0 0
0.0003248090 0.0071632020 0 0
0.0005547650 0.0072721350 0 0
0.0008384090 0.0071581110 0 0
0.0011851830 0.0068179370 0 0
0.0016034010 0.0062729990 0 0
0.0020942060 0.0055677730 0 0
0.0026475540 0.0047667320 0 0
0.0032420820 0.0039492720 0 0
0.0038471070 0.0032018730 0 0
0.0044243860 0.0026079460 0 0
0.0049303320 0.0022376790 0 0
0.0053209410 0.0021402010 0 0
0.0055589590 0.0023387760 0 0
0.0056200350 0.0028285590 0 0
0.0054955470 0.0035765670 0 0
0.0051923070 0.0045245280 0 0
0.0047305950 0.0055953560 0 0
0.0041411240 0.0067023420 0 0
0.0034607710 0.0077586170 0 0
0.0027275540 0.0086852030 0 0
0.0019761130 0.0094175280 0 0
0.0012349900 0.0099103420 0 0
0.0005264230 0.0101403000 0 0
-0.0001321070 0.0101058310 0 0
-0.0007261240 0.0098247880 0 0
-0.0012426210 0.0093306750 0 0
-0.0016687670 0.0086685140 0 0
-0.0019920200 0.0078918150 0 0
-0.0022027080 0.0070613300 0 0
-0.0022979000 0.0062442100 0 0
-0.0022844810 0.0055111260 0 0
-0.0021803860 0.0049304770 0 0
-0.0020134650 0.0045610020 0 0
-0.0018175400 0.0044444860 0 0
-0.0016264690 0.0045991000 0 0
-0.0014681110 0.0050141290 0 0
-0.0013597980 0.0056481470 0 0
-0.0013061670 0.0064328520 0 0
-0.0012993520 0.0072823490 0 0
-0.0013207200 0.0081048840 0 0
-0.0013435280 0.0088138760 0 0
-0.0013369640 0.0093367840 0 0
-0.0012719700 0.0096213430 0 0
-0.0011273570 0.0096395440 0 0
-0.0008936370 0.0093903500 0 0
-0.0005734330 0.0089009840 0 0
-0.0001796550 0.0082250660 0 0
0.0002666770 0.0074364950 0 0
0.0007380250 0.0066202030 0 0
0.0012017050 0.0058623840 0 0
0.0016220130 0.0052421860 0 0
0.0019641670 0.0048250790 0 0
0.0022002670 0.0046572020 0 0
0.0023151350 0.0047603790 0 0
0.0023086270 0.0051280150 0 0
0.0021933240 0.0057227310 0 0
0.0019893420 0.0064779840 0 0
0.0017188130 0.0073056790 0 0
0.0014023230 0.0081088510 0 0
0.0010580930 0.0087956870 0 0
0.0007028350 0.0092913780 0 0
0.0003527840 0.0095460720 0 0
0.0000242525 0.0095382440 0 0
-0.0002659680 0.0092730370 0 0
-0.0004999110 0.0087764770 0 0
-0.0006584850 0.0080883730 0 0
-0.0007238910 0.0072568060 0 0
-0.0006841140 0.0063355730 0 0
-0.0005376450 0.0053840400 0 0
-0.0002969800 0.0044673130 0 0
0.0000106630 0.0036540270 0 0
0.0003463570 0.0030100760 0 0
0.0006644910 0.0025890230 0 0
0.0009178340 0.0024223120 0 0
0.0010636010 0.0025126590 0 0
0.0010710120 0.0028326580 0 0
0.0009275330 0.0033290670 0 0
0.0006416290 0.0039317630 0 0
0.0002424840 0.0045646060 0 0
-0.0002233010 0.0051551860 0 0
-0.0006985410 0.0056422680 0 0
-0.0011244850 0.0059812640 0 0
-0.0014492210 0.0061480560 0 0
-0.0016338260 0.0061410110 0 0
-0.0016564340 0.0059806870 0 0
-0.0015148150 0.0057068820 0 0
-0.0012274060 0.0053734400 0 0
-0.0008317820 0.0050419970 0 0
-0.0003796880 0.0047754330 0 0
0.0000702360 0.0046309570 0 0
0.0004600800 0.0046532310 0 0
0.0007399750 0.0048688800 0 0
0.0008747680 0.0052835450 0 0
0.0008482590 0.0058816640 0 0
0.0006629970 0.0066286820 0 0
0.0003364920 0.0074748070 0 0
-0.0001028110 0.0083591160 0 0
-0.0006178950 0.0092134610 0 0
-0.0011643860 0.0099662500 0 0
-0.0016921030 0.0105462420 0 0
-0.0021485420 0.0108870000 0 0
-0.0024849580 0.0109328230 0 0
-0.0026637360 0.0106456940 0 0
-0.0026645000 0.0100118580 0 0
-0.0024867430 0.0090470310 0 0
-0.0021483590 0.0077993980 0 0
-0.0016815800 0.0063487950 0 0
-0.0011288910 0.0048002010 0 0
-0.0005401830 0.0032714450 0 0
0.0000298165 0.0018775880 0 0
0.0005250300 0.0007159790 0 0
0.0008923250 -0.0001445730 0 0
0.0010863320 -0.0006690490 0 0
0.0010745170 -0.0008566520 0 0
0.0008411830 -0.0007373610 0 0
0.0003892660 -0.0003645900 0 0
-0.0002591890 0.0001948710 0 0
-0.0010630660 0.0008703510 0 0
-0.0019641350 0.0015935720 0 0
-0.0028928920 0.0023018570 0 0
-0.0037783130 0.0029397980 0 0
-0.0045583530 0.0034605170 0 0
-0.0051861670 0.0038275380 0 0
-0.0056299450 0.0040179420 0 0
-0.0058695600 0.0040263690 0 0
-0.0058953300 0.0038685720 0 0
-0.0057114050 0.0035829370 0 0
-0.0053417280 0.0032289620 0 0
-0.0048338010 0.0028825710 0 0
-0.0042558420 0.0026279790 0 0
-0.0036861820 0.0025456280 0 0
-0.0031977750 0.0026979940 0 0
-0.0028432980 0.0031177960 0 0
-0.0026461670 0.0038023190 0 0
-0.0025996670 0.0047142770 0 0
-0.0026723420 0.0057872070 0 0
-0.0028169140 0.0069334550 0 0
-0.0029812900 0.0080542640 0 0
-0.0031194550 0.0090514460 0 0
-0.0031987950 0.0098391100 0 0
-0.0032019540 0.0103532670 0 0
-0.0031248830 0.0105576900 0 0
-0.0029741190 0.0104457130 0 0
-0.0027644710 0.0100384680 0 0
-0.0025163160 0.0093800700 0 0
-0.0022523490 0.0085313350 0 0
-0.0019952150 0.0075644800 0 0
-0.0017658670 0.0065597030 0 0
-0.0015811760 0.0056019400 0 0
-0.0014518190 0.0047756230 0 0
-0.0013831720 0.0041571370 0 0
-0.0013790900 0.0038065230 0 0
-0.0014450660 0.0037605920 0 0
-0.0015874640 0.0040291470 0 0
-0.0018090400 0.0045944630 0 0
-0.0021039060 0.0054129910 0 0
-0.0024551560 0.0064186190 0 0
-0.0028365510 0.0075277180 0 0
-0.0032172210 0.0086459100 0 0
-0.0035664880 0.0096757340 0 0
-0.0038563810 0.0105244690 0 0
-0.0040621810 0.0111119150 0 0
-0.0041635410 0.0113780090 0 0
-0.0041477780 0.0112897000 0 0
-0.0040137730 0.0108459580 0 0
-0.0037736720 0.0100798330 0 0
-0.0034518350 0.0090569440 0 0
-0.0030822850 0.0078698600 0 0
-0.0027051130 0.0066279860 0 0
-0.0023620340 0.0054444410 0 0
-0.0020929810 0.0044232730 0 0
-0.0019349420 0.0036499320 0 0
-0.0019201330 0.0031857290 0 0
-0.0020699330 0.0030656070 0 0
-0.0023864310 0.0032979980 0 0
-0.0028472480 0.0038653240 0 0
-0.0034064810 0.0047240650 0 0
-0.0039999930 0.0058047470 0 0
-0.0045531340 0.0070136040 0 0
-0.0049915330 0.0082382120 0 0
-0.0052544630 0.0093588080 0 0
-0.0053063850 0.0102642970 0 0
-0.0051415400 0.0108685030 0 0
-0.0047804360 0.0111215550 0 0
-0.0042620040 0.0110137280 0 0
-0.0036363230 0.0105721100 0 0
-0.0029598940 0.0098528310 0 0
-0.0022930400 0.0089326090 0 0
-0.0016982260 0.0079017210 0 0
-0.0012370860 0.0068576500 0 0
-0.0009645590 0.0058979130 0 0
-0.0009209790 0.0051120630 0 0
-0.0011243560 0.0045736130 0 0
-0.0015653300 0.0043326200 0 0
-0.0022074890 0.0044095830 0 0
-0.0029944100 0.0047913890 0 0
-0.0038608700 0.0054304460 0 0
-0.0047426320 0.0062483980 0 0
-0.0055806410 0.0071447260 0 0
-0.0063201690 0.0080085430 0 0
-0.0069093230 0.0087312710 0 0
-0.0073007850 0.0092188700 0 0
-0.0074570260 0.0094025480 0 0
-0.0073566230 0.0092463380 0 0
-0.0069991330 0.0087504100 0 0
-0.0064065020 0.0079501610 0 0
-0.0056200380 0.0069113360 0 0
-0.0046941970 0.0057216430 0 0
-0.0036900460 0.0044805440 0 0
-0.0026701200 0.0032892690 0 0
-0.0016945440 0.0022414800 0 0
-0.0008179420 0.0014148780 0 0
-0.0000866416 0.0008652170 0 0
0.0004646750 0.0006233600 0 0
0.0008167350 0.0006939310 0 0
0.0009677610 0.0010542170 0 0
0.0009319600 0.0016542330 0 0
0.0007355060 0.0024201620 0 0
0.0004129520 0.0032620530 0 0
0.0000048811 0.0040842810 0 0
-0.0004453140 0.0047960990 0 0
-0.0008970700 0.0053202830 0 0
-0.0013188210 0.0055999210 0 0
-0.0016910390 0.0056047630 0 0
-0.0020050960 0.0053367160 0 0
-0.0022604870 0.0048313100 0 0
-0.0024629790 0.0041533800 0 0
-0.0026237400 0.0033892380 0 0
-0.0027590190 0.0026377760 0 0
-0.0028904670 0.0019996600 0 0
-0.0030447040 0.0015637400 0 0
-0.0032500430 0.0013935610 0 0
-0.0035307690 0.0015185300 0 0
-0.0039018900 0.0019317990 0 0
-0.0043670930 0.0025937190 0 0
-0.0049196670 0.0034385340 0 0
-0.0055439470 0.0043828110 0 0
-0.0062156470 0.0053348710 0 0
-0.0069014860 0.0062040770 0 0
-0.0075598900 0.0069085570 0 0
-0.0081447150 0.0073810170 0 0
-0.0086118690 0.0075732550 0 0
-0.0089261400 0.0074597040 0 0
-0.0090659030 0.0070399270 0 0
-0.0090256370 0.0063401720 0 0
-0.0088169850 0.0054138050 0 0
-0.0084682100 0.0043396180 0 0
-0.0080213450 0.0032167220 0 0
-0.0075270120 0.0021555230 0 0
-0.0070376630 0.0012658210 0 0
-0.0066001840 0.0006440430 0 0
-0.0062494820 0.0003617580 0 0
-0.0060049650 0.0004578450 0 0
-0.0058706090 0.0009359290 0 0
-0.0058383090 0.0017660750 0 0
-0.0058933830 0.0028877550 0 0
-0.0060200080 0.0042129220 0 0
-0.0062043050 0.0056309740 0 0
-0.0064336390 0.0070173700 0 0
-0.0066928110 0.0082454230 0 0
-0.0069606240 0.0091992350 0 0
-0.0072091040 0.0097857290 0 0
-0.0074041760 0.0099444860 0 0
-0.0075077090 0.0096546310 0 0
-0.0074830250 0.0089378420 0 0
-0.0073033850 0.0078565020 0 0
-0.0069597990 0.0065064320 0 0
-0.0064651960 0.0050050110 0 0
-0.0058541390 0.0034772490 0 0
-0.0051783120 0.0020424550 0 0
-0.0044983550 0.0008032250 0 0
-0.0038737640 -0.0001618630 0 0
-0.0033541740 -0.0008013440 0 0
-0.0029749340 -0.0010907370 0 0
-0.0027567680 -0.0010304600 0 0
-0.0027063970 -0.0006427160 0 0
-0.0028157390 0.0000313396 0 0
-0.0030603380 0.0009329410 0 0
-0.0033992650 0.0019861310 0 0
-0.0037781010 0.0030994750 0 0
-0.0041346460 0.0041710820 0 0
-0.0044056930 0.0050974770 0 0
-0.0045345930 0.0057855250 0 0
-0.0044805560 0.0061654580 0 0
-0.0042273900 0.0062018550 0 0
-0.0037859140 0.0058990570 0 0
-0.0031878830 0.0052995920 0 0
-0.0024765270 0.0044773260 0 0
-0.0016995430 0.0035280380 0 0
-0.0009050860 0.0025585590 0 0
-0.0001389110 0.0016746460 0 0
0.0005578090 0.0009687520 0 0
0.0011503380 0.0005097990 0 0
0.0016124500 0.0003364660 0 0
0.0019282600 0.0004544720 0 0
0.0020932760 0.0008381610 0 0
0.0021147400 0.0014358610 0 0
0.0020106980 0.0021773860 0 0
0.0018068860 0.0029825620 0 0
0.0015324930 0.0037705220 0 0
0.0012174010 0.0044685610 0 0
0.0008914030 0.0050187250 0 0
0.0005834300 0.0053814670 0 0
0.0003197820 0.0055366260 0 0
0.0001220610 0.0054825740 0 0
0.0000048912 0.0052352330 0 0
-0.0000270071 0.0048278160 0 0
0.0000182891 0.0043098680 0 0
0.0001184790 0.0037434470 0 0
0.0002381250 0.0031962310 0 0
0.0003327440 0.0027333510 0 0
0.0003558460 0.0024098990 0 0
0.0002680350 0.0022650820 0 0
0.0000459682 0.0023178580 0 0
-0.0003120560 0.0025632800 0 0
-0.0007862030 0.0029699540 0 0
-0.0013403800 0.0034811070 0 0
-0.0019298400 0.0040211900 0 0
-0.0025083300 0.0045066720 0 0
-0.0030337300 0.0048575510 0 0
-0.0034721150 0.0050069890 0 0
-0.0038004100 0.0049084040 0 0
-0.0040079290 0.0045401700 0 0
-0.0040962530 0.0039077940 0 0
-0.0040763930 0.0030434600 0 0
-0.0039639490 0.0020031780 0 0
-0.0037748410 0.0008617030 0 0
-0.0035235700 -0.0002945820 0 0
-0.0032235320 -0.0013758510 0 0
-0.0028878780 -0.0022967980 0 0
-0.0025306240 -0.0029841030 0 0
-0.0021679520 -0.0033835840 0 0
-0.0018187070 -0.0034660980 0 0
-0.0015031230 -0.0032305500 0 0
-0.0012398690 -0.0027040400 0 0
-0.0010422380 -0.0019404220 0 0
-0.0009142300 -0.0010172520 0 0
-0.0008469560 -0.0000298484 0 0
-0.0008164430 0.0009182220 0 0
-0.0007844560 0.0017274500 0 0
-0.0007030660 0.0023153920 0 0
-0.0005221840 0.0026277720 0 0
-0.0001983140 0.0026463080 0 0
0.0002972370 0.0023928000 0 0
0.0009718300 0.0019277550 0 0
0.0018075330 0.0013415090 0 0
0.0027608920 0.0007392440 0 0
0.0037672840 0.0002246320 0 0
0.0047493430 -0.0001140260 0 0
0.0056276980 -0.0002139850 0 0
0.0063312020 -0.0000442586 0 0
0.0068043210 0.0003927570 0 0
0.0070118050 0.0010640060 0 0
0.0069417530 0.0019117070 0 0
0.0066066120 0.0028614110 0 0
0.0060410240 0.0038311780 0 0
0.0052966210 0.0047407030 0 0
0.0044354660 0.0055192790 0 0
0.0035239570 0.0061116440 0 0
0.0026278300 0.0064808470 0 0
0.0018083430 0.0066079750 0 0
0.0011190790 0.0064899700 0 0
0.0006020620 0.0061377630 0 0
0.0002830300 0.0055759950 0 0
0.0001680920 0.0048439590 0 0
0.0002441770 0.0039964900 0 0
0.0004832000 0.0031031110 0 0
0.0008478140 0.0022435840 0 0
0.0012971510 0.0014992800 0 0
0.0017916910 0.0009419990 0 0
0.0022962440 0.0006235230 0 0
0.0027806070 0.0005690500 0 0
0.0032183980 0.0007757100 0 0
0.0035852690 0.0012149740 0 0
0.0038587620 0.0018366820 0 0
0.0040212150 0.0025735150 0 0
0.0040637560 0.0033471020 0 0
0.0039885800 0.0040770550 0 0
0.0038092560 0.0046913450 0 0
0.0035497970 0.0051345800 0 0
0.0032419420 0.0053721580 0 0
0.0029207160 0.0053907580 0 0
0.0026197170 0.0051969820 0 0
0.0023671310 0.0048154920 0 0
0.0021823770 0.0042869220 0 0
0.0020741010 0.0036657310 0 0
0.0020409730 0.0030176370 0 0
0.0020750170 0.0024149280 0 0
0.0021652640 0.0019285240 0 0
0.0022999440 0.0016182170 0 0
0.0024663800 0.0015242780 0 0
0.0026491890 0.0016630490 0 0
0.0028293800 0.0020269470 0 0
0.0029857080 0.0025874630 0 0
0.0030968100 0.0032991750 0 0
0.0031430750 0.0041034180 0 0
0.0031089400 0.0049317500 0 0
0.0029856120 0.0057109800 0 0
0.0027731280 0.0063709780 0 0
0.0024805570 0.0068539950 0 0
0.0021241470 0.0071227240 0 0
0.0017251720 0.0071651130 0 0
0.0013089760 0.0069950960 0 0
0.0009038210 0.0066495860 0 0
0.0005376810 0.0061832430 0 0
0.0002334380 0.0056626460 0 0
0.0000041950 0.0051605100 0 0
-0.0001503750 0.0047498370 0 0
-0.0002460240 0.0044976730 0 0
-0.0003126480 0.0044585600 0 0
-0.0003886210 0.0046687180 0 0
-0.0005128180 0.0051421220 0 0
-0.0007178310 0.0058684400 0 0
-0.0010255890 0.0068123690 0 0
-0.0014440440 0.0079147670 0 0
-0.0019645270 0.0090967350 0 0
-0.0025611790 0.0102671970 0 0
-0.0031931050 0.0113331560 0 0
-0.0038090500 0.0122103320 0 0
-0.0043548170 0.0128317640 0 0
-0.0047827850 0.0131532790 0 0
-0.0050608220 0.0131558990 0 0
-0.0051777540 0.0128454990 0 0
-0.0051435160 0.0122501360 0 0
-0.0049831850 0.0114154980 0 0
-0.0047268990 0.0103994070 0 0
-0.0044009480 0.0092666190 0 0
-0.0040244750 0.0080849380 0 0
-0.0036112780 0.0069229300 0 0
-0.0031735670 0.0058483850 0 0
-0.0027263380 0.0049257520 0 0
-0.0022919050 0.0042115820 0 0
-0.0019015680 0.0037489240 0 0
-0.0015908060 0.0035621570 0 0
-0.0013894580 0.0036532900 0 0
-0.0013127500 0.0040007080 0 0
-0.0013573930 0.0045605810 0 0
-0.0015033990 0.0052699990 0 0
-0.0017200940 0.0060512580 0 0
-0.0019734960 0.0068181700 0 0
-0.0022321440 0.0074848940 0 0
-0.0024703760 0.0079764060 0 0
-0.0026697470 0.0082390590 0 0
-0.0028188320 0.0082494210 0 0
-0.0029108670 0.0080187810 0 0
-0.0029400770 0.0075909440 0 0
-0.0028990330 0.0070335740 0 0
-0.0027791460 0.0064260880 0 0
-0.0025749340 0.0058473890 0 0
-0.0022902150 0.0053653000 0 0
-0.0019423290 0.0050286150 0 0
-0.0015613620 0.0048626650 0 0
-0.0011846600 0.0048692100 0 0
-0.0008493280 0.0050299160 0 0
-0.0005854730 0.0053110430 0 0
-0.0004117050 0.0056677300 0 0
-0.0003330710 0.0060482060 0 0
-0.0003414580 0.0063981160 0 0
-0.0004185250 0.0066643890 0 0
-0.0005397720 0.0067992300 0 0
-0.0006779370 0.0067652970 0 0
-0.0008058870 0.0065413010 0 0
-0.0008999780 0.0061258140 0 0
-0.0009434480 0.0055374350 0 0
-0.0009286020 0.0048115640 0 0
-0.0008571940 0.0039961090 0 0
-0.0007392560 0.0031478550 0 0
-0.0005909910 0.0023290950 0 0
-0.0004325520 0.0016033080 0 0
-0.0002862200 0.0010295800 0 0
-0.0001743450 0.0006566140 0 0
-0.0001162810 0.0005174800 0 0
-0.0001251600 0.0006260770 0 0
-0.0002063440 0.0009760840 0 0
-0.0003584050 0.0015429870 0 0
-0.0005756280 0.0022883890 0 0
-0.0008497050 0.0031642790 0 0
-0.0011690940 0.0041148880 0 0
-0.0015170880 0.0050761150 0 0
-0.0018712640 0.0059754790 0 0
-0.0022058000 0.0067358730 0 0
-0.0024956370 0.0072834720 0 0
-0.0027201520 0.0075574890 0 0
-0.0028647440 0.0075195250 0 0
-0.0029205600 0.0071606780 0 0
-0.0028840600 0.0065038100 0 0
-0.0027580850 0.0055992720 0 0
-0.0025542030 0.0045162260 0 0
-0.0022937910 0.0033334820 0 0
-0.0020062630 0.0021315970 0 0
-0.0017255100 0.0009864370 0 0
-0.0014858310 -0.0000353530 0 0
-0.0013171150 -0.0008795110 0 0
-0.0012396560 -0.0015076590 0 0
-0.0012606610 -0.0019013560 0 0
-0.0013742350 -0.0020648920 0 0
-0.0015641580 -0.0020250520 0 0
-0.0018070250 -0.0018274930 0 0
-0.0020742090 -0.0015309230 0 0
-0.0023337340 -0.0012005640 0 0
-0.0025543590 -0.0009009720 0 0
-0.0027119090 -0.0006876020 0 0
-0.0027947270 -0.0005982630 0 0
-0.0028052170 -0.0006473290 0 0
-0.0027572460 -0.0008250830 0 0
-0.0026713680 -0.0011022120 0 0
-0.0025699260 -0.0014368450 0 0
-0.0024722050 -0.0017811240 0 0
-0.0023896330 -0.0020864530 0 0
-0.0023238390 -0.0023082210 0 0
-0.0022701870 -0.0024100580 0 0
-0.0022249010 -0.0023669330 0 0
-0.0021914070 -0.0021665960 0 0
-0.0021832180 -0.0018088120 0 0
-0.0022224720 -0.0013025930 0 0
-0.0023337610 -0.0006637260 0 0
-0.0025345540 0.0000852327 0 0
-0.0028265270 0.0009128980 0 0
-0.0031924530 0.0017773810 0 0
-0.0035992940 0.0026276230 0 0
-0.0040041880 0.0034088990 0 0
-0.0043601310 0.0040710890 0 0
-0.0046213620 0.0045766080 0 0
-0.0047495030 0.0049055280 0 0
-0.0047191080 0.0050570560 0 0
-0.0045203590 0.0050473760 0 0
-0.0041587120 0.0049050450 0 0
-0.0036527460 0.0046668660 0 0
-0.0030314630 0.0043759840 0 0
-0.0023322130 0.0040805640 0 0
-0.0015993210 0.0038305120 0 0
-0.0008819900 0.0036718350 0 0
-0.0002301090 0.0036398680 0 0
0.0003120470 0.0037533580 0 0
0.0007132910 0.0040109290 0 0
0.0009624730 0.0043904190 0 0
0.0010726770 0.0048515040 0 0
0.0010809180 0.0053415720 0 0
0.0010424260 0.0058030250 0 0
0.0010201230 0.0061797210 0 0
0.0010717690 0.0064222470 0 0
0.0012386570 0.0064930480 0 0
0.0015397470 0.0063714220 0 0
0.0019725230 0.0060569230 0 0
0.0025178430 0.0055701930 0 0
0.0031444470 0.0049512940 0 0
0.0038116160 0.0042559250 0 0
0.0044720950 0.0035500090 0 0
0.0050770560 0.0029031510 0 0
0.0055815500 0.0023815680 0 0
0.0059475730 0.0020412570 0 0
0.0061443240 0.0019222040 0 0
0.0061485830 0.0020441770 0 0
0.0059473180 0.0024047080 0 0
0.0055408460 0.0029800550 0 0
0.0049441630 0.0037292460 0 0
0.0041868930 0.0045999530 0 0
0.0033131740 0.0055344310 0 0
0.0023808570 0.0064743140 0 0
0.0014580370 0.0073635350 0 0
0.0006161700 0.0081489460 0 0
-0.0000789219 0.0087799390 0 0
-0.0005762390 0.0092098540 0 0
-0.0008468380 0.0094006860 0 0
-0.0008868470 0.0093296720 0 0
-0.0007152440 0.0089946910 0 0
-0.0003676380 0.0084160990 0 0
0.0001107540 0.0076348290 0 0
0.0006701560 0.0067079420 0 0
0.0012592200 0.0057029200 0 0
0.0018276250 0.0046913360 0 0
0.0023291350 0.0037421320 0 0
0.0027245560 0.0029153090 0 0
0.0029841490 0.0022573760 0 0
0.0030900890 0.0017988660 0 0
0.0030391410 0.0015525380 0 0
0.0028436980 0.0015110770 0 0
0.0025295690 0.0016453860 0 0
0.0021316030 0.0019062330 0 0
0.0016887020 0.0022307410 0 0
0.0012384770 0.0025525700 0 0
0.0008127180 0.0028128860 0 0
0.0004354460 0.0029687460 0 0
0.0001235350 0.0029970630 0 0
-0.0001116500 0.0028951690 0 0
-0.0002632640 0.0026801420 0 0
-0.0003296570 0.0023880100 0 0
-0.0003157080 0.0020722650 0 0
-0.0002324120 0.0018001530 0 0
-0.0000946495 0.0016456670 0 0
0.0000803250 0.0016794110 0 0
0.0002728740 0.0019567280 0 0
0.0004614700 0.0025067420 0 0
0.0006246090 0.0033251820 0 0
0.0007425510 0.0043730810 0 0
0.0007983880 0.0055818720 0 0
0.0007804140 0.0068633200 0 0
0.0006865220 0.0081211120 0 0
0.0005282400 0.0092614790 0 0
0.0003315970 0.0102021050 0 0
0.0001337440 0.0108797370 0 0
-0.0000241564 0.0112561040 0 0
-0.0001058420 0.0113207610 0 0
-0.0000874483 0.0110902470 0 0
0.0000390590 0.0106042450 0 0
0.0002660910 0.0099198240 0 0
0.0005719020 0.0091048160 0 0
0.0009227390 0.0082315480 0 0
0.0012767800 0.0073719520 0 0
0.0015895680 0.0065942330 0 0
0.0018193550 0.0059603790 0 0
0.0019313200 0.0055234710 0 0
0.0019003510 0.0053238650 0 0
0.0017121900 0.0053841850 0 0
0.0013635690 0.0057044420 0 0
0.0008627110 0.0062592290 0 0
0.0002299150 0.0069979370 0 0
-0.0005037480 0.0078479770 0 0
-0.0012998840 0.0087217340 0 0
-0.0021165240 0.0095278620 0 0
-0.0029108740 0.0101847490 0 0
-0.0036406190 0.0106321710 0 0
-0.0042637540 0.0108386850 0 0
-0.0047382490 0.0108042440 0 0
-0.0050239230 0.0105578370 0 0
-0.0050874350 0.0101505440 0 0
-0.0049091880 0.0096459930 0 0
-0.0044902330 0.0091109170 0 0
-0.0038569790 0.0086075170 0 0
-0.0030610500 0.0081879480 0 0
-0.0021731300 0.0078907120 0 0
-0.0012728940 0.0077388060 0 0
-0.0004386920 0.0077395360 0 0
0.0002611800 0.0078857330 0 0
0.0007757840 0.0081576140 0 0
0.0010775070 0.0085242910 0 0
0.0011657940 0.0089445420 0 0
0.0010672820 0.0093673610 0 0
0.0008319200 0.0097334890 0 0
0.0005267920 0.0099792590 0 0
0.0002293820 0.0100432750 0 0
0.0000193716 0.0098751070 0 0
-0.0000325943 0.0094441210 0 0
0.0001221920 0.0087463070 0 0
0.0004999020 0.0078076220 0 0
0.0010794440 0.0066830020 0 0
0.0018048830 0.0054506410 0 0
0.0025943830 0.0042022490 0 0
0.0033538850 0.0030317580 0 0
0.0039922600 0.0020256720 0 0
0.0044342620 0.0012565260 0 0
0.0046291140 0.0007786510 0 0
0.0045544850 0.0006247200 0 0
0.0042169160 0.0008023550 0 0
0.0036493420 0.0012918920 0 0
0.0029056640 0.0020472240 0 0
0.0020530590 0.0030000060 0 0
0.0011636650 0.0040655550 0 0
0.0003069860 0.0051496900 0 0
-0.0004564820 0.0061569650 0 0
-0.0010808810 0.0069999970 0 0
-0.0015405860 0.0076083880 0 0
-0.0018340070 0.0079356260 0 0
-0.0019816510 0.0079629790 0 0
-0.0020174050 0.0077002760 0 0
-0.0019772040 0.0071844490 0 0
-0.0018908660 0.0064765660 0 0
-0.0017802670 0.0056567170 0 0
-0.0016626890 0.0048157350 0 0
-0.0015552210 0.0040444190 0 0
-0.0014767670 0.0034226450 0 0
-0.0014468590 0.0030106060 0 0
-0.0014822710 0.0028433790 0 0
-0.0015931800 0.0029293160 0 0
-0.0017807520 0.0032521190 0 0
-0.0020368650 0.0037756610 0 0
-0.0023451870 0.0044504360 0 0
-0.0026826060 0.0052205050 0 0
-0.0030213930 0.0060292360 0 0
-0.0033328240 0.0068225780 0 0
-0.0035911770 0.0075506520 0 0
-0.0037760420 0.0081694780 0 0
-0.0038726100 0.0086436400 0 0
-0.0038717870 0.0089495800 0 0
-0.0037717620 0.0090788450 0 0
-0.0035801250 0.0090406950 0 0
-0.0033143450 0.0088633650 0 0
-0.0029999430 0.0085931450 0 0
-0.0026674440 0.0082903370 0 0
-0.0023489520 0.0080211280 0 0
-0.0020748100 0.0078463390 0 0
-0.0018706060 0.0078108460 0 0
-0.0017535260 0.0079374230 0 0
-0.0017272090 0.0082255770 0 0
-0.0017779800 0.0086536650 0 0
-0.0018771810 0.0091831260 0 0
-0.0019899130 0.0097644070 0 0
-0.0020854650 0.0103439900 0 0
-0.0021448410 0.0108714520 0 0
-0.0021630810 0.0113049780 0 0
-0.0021458810 0.0116137030 0 0
-0.0021023910 0.0117771160 0 0
-0.0020379440 0.0117840030 0 0
-0.0019495560 0.0116331440 0 0
-0.0018253440 0.0113354220 0 0
-0.0016483050 0.0109150110 0 0
-0.0014035840 0.0104074380 0 0
-0.0010867310 0.0098544600 0 0
-0.0007096930 0.0092977320 0 0
-0.0003016090 0.0087733960 0 0
0.0000966438 0.0083086550 0 0
0.0004420280 0.0079208430 0 0
0.0006989450 0.0076187940 0 0
0.0008456350 0.0074052190 0 0
0.0008761890 0.0072784920 0 0
0.0007986240 0.0072332550 0 0
0.0006309410 0.0072598900 0 0
0.0003968490 0.0073426810 0 0
0.0001212620 0.0074566560 0 0
-0.0001740100 0.0075649420 0 0
-0.0004724950 0.0076200370 0 0
-0.0007624550 0.0075711650 0 0
-0.0010354700 0.0073761990 0 0
-0.0012857800 0.0070134860 0 0
-0.0015098370 0.0064886450 0 0
-0.0017055110 0.0058343030 0 0
-0.0018713070 0.0051044240 0 0
-0.0020056560 0.0043661750 0 0
-0.0021062960 0.0036908390 0 0
-0.0021708510 0.0031445300 0 0
-0.0021993600 0.0027801080 0 0
-0.0021973660 0.0026320860 0 0
-0.0021780320 0.0027154290 0 0
-0.0021632590 0.0030272600 0 0
-0.0021831350 0.0035487730 0 0
-0.0022716920 0.0042454850 0 0
-0.0024579510 0.0050668280 0 0
-0.0027542910 0.0059473250 0 0
-0.0031472950 0.0068109010 0 0
-0.0035967570 0.0075785400 0 0
-0.0040448930 0.0081782580 0 0
-0.0044320670 0.0085554510 0 0
-0.0047118220 0.0086810550 0 0
-0.0048591570 0.0085550700 0 0
-0.0048709800 0.0082044000 0 0
-0.0047619200 0.0076757310 0 0
-0.0045588640 0.0070258650 0 0
-0.0042955460 0.0063133280 0 0
-0.0040075540 0.0055938840 0 0
-0.0037288850 0.0049190610 0 0
-0.0034917410 0.0043348670 0 0
-0.0033290140 0.0038793410 0 0
-0.0032750560 0.0035796850 0 0
-0.0033604630 0.0034502440 0 0
-0.0036017080 0.0034920030 0 0
-0.0039910090 0.0036935630 0 0
-0.0044921850 0.0040333000 0 0
-0.0050452380 0.0044821110 0 0
-0.0055783900 0.0050055630 0 0
-0.0060231260 0.0055645400 0 0
-0.0063268230 0.0061153170 0 0
-0.0064590780 0.0066111750 0 0
-0.0064111530 0.0070064750 0 0
-0.0061913540 0.0072622910 0 0
-0.0058202550 0.0073521600 0 0
-0.0053272970 0.0072669790 0 0
-0.0047474550 0.0070183120 0 0
-0.0041171170 0.0066390670 0 0
-0.0034707230 0.0061803650 0 0
-0.0028394190 0.0057044180 0 0
-0.0022505410 0.0052750110 0 0
-0.0017265900 0.0049484130 0 0
-0.0012839680 0.0047668840 0 0
-0.0009323190 0.0047547730 0 0
-0.0006749510 0.0049162450 0 0
-0.0005100310 0.0052343770 0 0
-0.0004314120 0.0056717400 0 0
-0.0004281390 0.0061725990 0 0
-0.0004827500 0.0066672860 0 0
-0.0005693560 0.0070794290 0 0
-0.0006534810 0.0073360270 0 0
-0.0006954000 0.0073791960 0 0
-0.0006564050 0.0071772850 0 0
-0.0005058610 0.0067325060 0 0
-0.0002275350 0.0060828390 0 0
0.0001757280 0.0052974050 0 0
0.0006803930 0.0044662700 0 0
0.0012448650 0.0036874920 0 0
0.0018157930 0.0030548180 0 0
0.0023365160 0.0026481560 0 0
0.0027560830 0.0025273090 0 0
0.0030367050 0.0027284680 0 0
0.0031578680 0.0032622670 0 0
0.0031172480 0.0041122800 0 0
0.0029296230 0.0052341370 0 0
0.0026248510 0.0065565330 0 0
0.0022449430 0.0079854030 0 0
0.0018391740 0.0094120320 0 0
0.0014572070 0.0107248290 0 0
0.0011426550 0.0118229030 0 0
0.0009296280 0.0126289670 0 0
0.0008424980 0.0130994320 0 0
0.0008965610 0.0132292670 0 0
0.0010966670 0.0130497340 0 0
0.0014340400 0.0126197240 0 0
0.0018850050 0.0120136170 0 0
0.0024144600 0.0113089880 0 0
0.0029830210 0.0105770010 0 0
0.0035538250 0.0098770080 0 0
0.0040955430 0.0092549430 0 0
0.0045810810 0.0087442300 0 0
0.0049831270 0.0083683580 0 0
0.0052683840 0.0081437600 0 0
0.0053935240 0.0080807920 0 0
0.0053059130 0.0081818870 0 0
0.0049502100 0.0084380060 0 0
0.0042792720 0.0088246770 0 0
0.0032656520 0.0092979940 0 0
0.0019091820 0.0097912080 0 0
0.0002379110 0.0102147160 0 0
-0.0016973250 0.0104628720 0 0
-0.0038321710 0.0104272690 0 0
-0.0060992750 0.0100120780 0 0
-0.0084384970 0.0091473520 0 0
-0.0108052970 0.0077984040 0 0
-0.0131758950 0.0059702750 0 0
-0.0155489330 0.0037069030 0 0
-0.0179444500 0.0010857390 0 0
-0.0204004190 -0.0017912330 0 0
-0.0229668900 -0.0048094570 0 0
-0.0256988550 -0.0078552620 0 0
-0.0286493630 -0.0108281460 0 0
-0.0318635880 -0.0136496080 -1 0
-0.0353738540 -0.0162678780 -1 0
-0.0391955070 -0.0186595350 -1 0
-0.0433241350 -0.0208299710 -1 0
-0.0477351700 -0.0228141280 -1 0
-0.0523861190 -0.0246764920 -1 0
-0.0572202210 -0.0265073130 -1 0
-0.0621706080 -0.0284132470 -1 0
-0.0671654370 -0.0305035860 -1 -1
-0.0721344610 -0.0328748560 -1 -1
-0.0770151540 -0.0355966330 -1 -1
-0.0817554980 -0.0387013380 -1 -1
-0.0863136610 -0.0421796960 -1 -1
-0.0906576620 -0.0459815710 -1 -1
-0.0947671330 -0.0500213110 -1 -1
-0.0986365940 -0.0541872410 -1 -1
-0.1022780320 -0.0583542350 -1 -1
-0.1057199310 -0.0623970710 -1 -1
-0.1090013910 -0.0662027950 -1 -1
-0.1121638610 -0.0696810990 -1 -1
-0.1152453190 -0.0727711240 -1 -1
-0.1182787940 -0.0754432320 -1 -1
-0.1212924740 -0.0776967920 -1 -1
-0.1243085320 -0.0795569410 -1 -1
-0.1273404550 -0.0810716760 -1 -1
-0.1303894480 -0.0823076100 -1 -1
-0.1334404540 -0.0833425730 -1 -1
-0.1364601810 -0.0842558150 -1 -1
-0.1393998690 -0.0851187040 -1 -1
-0.1422024180 -0.0859891910 -1 -1
-0.1448106180 -0.0869110220 -1 -1
-0.1471735200 -0.0879147310 -1 -1
-0.1492504520 -0.0890164060 -1 -1
-0.1510138390 -0.0902136900 -1 -1
-0.1524516940 -0.0914820940 -1 -1
-0.1535697690 -0.0927749180 -1 -1
-0.1543931190 -0.0940281550 -1 -1
-0.1549659740 -0.0951693470 -1 -1
-0.1553474650 -0.0961278290 -1 -1
-0.1556027950 -0.0968441060 -1 -1
-0.1557933220 -0.0972772930 -1 -1
-0.1559695940 -0.0974098620 -1 -1
-0.1561694530 -0.0972489970 -1 -1
-0.1564203920 -0.0968246310 -1 -1
-0.1567419760 -0.0961856080 -1 -1
-0.1571443920 -0.0953953960 -1 -1
-0.1576240100 -0.0945273640 -1 -1
-0.1581602560 -0.0936589330 -1 -1
-0.1587172430 -0.0928647450 -1 -1
-0.1592507600 -0.0922100290 -1 -1
-0.1597178510 -0.0917450590 -1 -1
-0.1600843140 -0.0915003310 -1 -1
-0.1603272340 -0.0914816440 -1 -1
-0.1604339900 -0.0916658700 -1 -1
-0.1604018110 -0.0919996460 -1 -1
-0.1602398980 -0.0924022450 -1 -1
-0.1599715900 -0.0927723960 -1 -1
-0.1596327130 -0.0929988630 -1 -1
-0.1592656850 -0.0929744540 -1 -1
-0.1589125490 -0.0926125220 -1 -1
-0.1586093700 -0.0918640650 -1 -1
-0.1583819720 -0.0907309510 -1 -1
-0.1582430180 -0.0892698900 -1 -1
-0.1581917410 -0.0875854900 -1 -1
-0.1582166260 -0.0858154220 -1 -1
-0.1582989040 -0.0841119790 -1 -1
-0.1584147340 -0.0826231440 -1 -1
-0.1585364550 -0.0814754120 -1 -1
-0.1586344080 -0.0807606090 -1 -1
-0.1586796800 -0.0805283820 -1 -1
-0.1586473580 -0.0807841860 -1 -1
-0.1585192480 -0.0814911620 -1 -1
-0.1582844830 -0.0825746380 -1 -1
-0.1579385340 -0.0839293470 -1 -1
-0.1574835790 -0.0854293020 -1 -1
-0.1569310990 -0.0869393440 -1 -1
-0.1563033950 -0.0883274770 -1 -1
-0.1556315350 -0.0894773700 -1 -1
-0.1549512430 -0.0902997100 -1 -1
-0.1542985180 -0.0907401330 -1 -1
-0.1537048240 -0.0907818830 -1 -1
-0.1531925590 -0.0904430790 -1 -1
-0.1527731860 -0.0897697540 -1 -1
-0.1524495280 -0.0888265030 -1 -1
-0.1522208510 -0.0876875570 -1 -1
-0.1520870400 -0.0864308980 -1 -1
-0.1520486830 -0.0851356290 -1 -1
-0.1521030830 -0.0838801760 -1 -1
-0.1522394850 -0.0827386490 -1 -1
-0.1524375070 -0.0817750120 -1 -1
-0.1526697050 -0.0810370080 -1 -1
-0.1529057610 -0.0805518930 -1 -1
-0.1531159010 -0.0803246770 -1 -1
-0.1532734970 -0.0803386680 -1 -1
-0.1533584380 -0.0805571980 -1 -1
-0.1533620970 -0.0809250290 -1 -1
-0.1532918790 -0.0813697690 -1 -1
-0.1531721010 -0.0818058670 -1 -1
-0.1530398890 -0.0821426880 -1 -1
-0.1529378960 -0.0822952400 -1 -1
-0.1529066870 -0.0821948270 -1 -1
-0.1529781300 -0.0817977270 -1 -1
-0.1531697280 -0.0810913550 -1 -1
-0.1534808120 -0.0800977410 -1 -1
-0.1538925090 -0.0788733300 -1 -1
-0.1543714690 -0.0775035590 -1 -1
-0.1548747900 -0.0760923830 -1 -1
-0.1553539450 -0.0747495350 -1 -1
-0.1557572090 -0.0735789930 -1 -1
-0.1560322710 -0.0726701040 -1 -1
-0.1561318080 -0.0720908740 -1 -1
-0.1560221430 -0.0718832560 -1 -1
-0.1556917650 -0.0720613040 -1 -1
-0.1551567010 -0.0726125660 -1 -1
-0.1544617440 -0.0735014380 -1 -1
-0.1536773180 -0.0746724760 -1 -1
-0.1528916420 -0.0760526600 -1 -1
-0.1521981690 -0.0775536090 -1 -1
-0.1516806670 -0.0790757980 -1 -1
-0.1514011820 -0.0805160160 -1 -1
-0.1513938860 -0.0817776760 -1 -1
-0.1516625930 -0.0827824980 -1 -1
-0.1521807560 -0.0834811300 -1 -1
-0.1528966430 -0.0838599210 -1 -1
-0.1537439360 -0.0839419160 -1 -1
-0.1546529330 -0.0837817510 -1 -1
-0.1555574550 -0.0834558890 -1 -1
-0.1563963270 -0.0830510330 -1 -1
-0.1571122960 -0.0826533380 -1 -1
-0.1576526520 -0.0823396620 -1 -1
-0.1579731310 -0.0821712330 -1 -1
-0.1580430710 -0.0821895030 -1 -1
-0.1578499190 -0.0824130930 -1 -1
-0.1574033000 -0.0828355530 -1 -1
-0.1567379450 -0.0834253170 -1 -1
-0.1559125060 -0.0841288400 -1 -1
-0.1550028870 -0.0848761380 -1 -1
-0.1540918960 -0.0855878290 -1 -1
-0.1532577610 -0.0861833520 -1 -1
-0.1525638230 -0.0865897520 -1 -1
-0.1520515510 -0.0867495380 -1 -1
-0.1517380520 -0.0866261420 -1 -1
-0.1516178940 -0.0862069140 -1 -1
-0.1516674890 -0.0855044500 -1 -1
-0.1518503250 -0.0845561900 -1 -1
-0.1521231430 -0.0834216790 -1 -1
-0.1524426030 -0.0821777090 -1 -1
-0.1527699270 -0.0809120980 -1 -1
-0.1530719840 -0.0797163480 -1 -1
-0.1533202540 -0.0786768560 -1 -1
-0.1534898900 -0.0778648400 -1 -1
-0.1535596400 -0.0773270050 -1 -1
-0.1535128480 -0.0770801040 -1 -1
-0.1533398780 -0.0771110940 -1 -1
-0.1530414210 -0.0773814100 -1 -1
-0.1526314570 -0.0778324760 -1 -1
-0.1521386030 -0.0783905830 -1 -1
-0.1516035260 -0.0789714390 -1 -1
-0.1510712790 -0.0794864480 -1 -1
-0.1505820580 -0.0798522620 -1 -1
-0.1501654900 -0.0800025020 -1 -1
-0.1498398470 -0.0798986480 -1 -1
-0.1496142820 -0.0795370730 -1 -1
-0.1494917700 -0.0789501810 -1 -1
-0.1494711840 -0.0782011230 -1 -1
-0.1495479700 -0.0773739920 -1 -1
-0.1497143280 -0.0765625500 -1 -1
-0.1499602660 -0.0758591050 -1 -1
-0.1502753560 -0.0753436840 -1 -1
-0.1506495590 -0.0750745610 -1 -1
-0.1510723770 -0.0750820930 -1 -1
-0.1515313530 -0.0753668050 -1 -1
-0.1520113860 -0.0759010810 -1 -1
-0.1524951070 -0.0766334240 -1 -1
-0.1529631370 -0.0774948100 -1 -1
-0.1533938850 -0.0784067970 -1 -1
-0.1537648990 -0.0792903980 -1 -1
-0.1540577120 -0.0800742060 -1 -1
-0.1542648870 -0.0807003190 -1 -1
-0.1543955120 -0.0811270280 -1 -1
-0.1544764000 -0.0813284170 -1 -1
-0.1545482480 -0.0812927780 -1 -1
-0.1546572920 -0.0810222200 -1 -1
-0.1548444230 -0.0805344190 -1 -1
-0.1551348270 -0.0798653150 -1 -1
-0.1555315310 -0.0790702050 -1 -1
-0.1560151860 -0.0782211240 -1 -1
-0.1565497160 -0.0774002100 -1 -1
-0.1570907020 -0.0766901520 -1 -1
-0.1575930380 -0.0761630920 -1 -1
-0.1580159520 -0.0758702190 -1 -1
-0.1583257170 -0.0758352870 -1 -1
-0.1584977060 -0.0760539760 -1 -1
-0.1585180370 -0.0764977250 -1 -1
-0.1583835050 -0.0771193000 -1 -1
-0.1580996060 -0.0778582790 -1 -1
-0.1576780800 -0.0786455790 -1 -1
-0.1571354800 -0.0794069170 -1 -1
-0.1564935020 -0.0800667320 -1 -1
-0.1557802640 -0.0805546650 -1 -1
-0.1550307010 -0.0808144050 -1 -1
-0.1542849330 -0.0808120560 -1 -1
-0.1535846550 -0.0805413810 -1 -1
-0.1529681230 -0.0800254660 -1 -1
-0.1524653300 -0.0793149090 -1 -1
-0.1520952990 -0.0784817560 -1 -1
-0.1518658080 -0.0776091570 -1 -1
-0.1517740240 -0.0767789320 -1 -1
-0.1518072210 -0.0760602730 -1 -1
-0.1519443080 -0.0755021270 -1 -1
-0.1521585100 -0.0751302100 -1 -1
-0.1524198170 -0.0749476160 -1 -1
-0.1526964120 -0.0749373380 -1 -1
-0.1529565250 -0.0750657370 -1 -1
-0.1531722540 -0.0752864390 -1 -1
-0.1533240670 -0.0755446620 -1 -1
-0.1534032380 -0.0757832420 -1 -1
-0.1534117070 -0.0759508300 -1 -1
-0.1533617050 -0.0760090660 -1 -1
-0.1532766920 -0.0759348390 -1 -1
-0.1531910100 -0.0757181290 -1 -1
-0.1531442550 -0.0753590960 -1 -1
-0.1531713550 -0.0748669590 -1 -1
-0.1532933050 -0.0742609760 -1 -1
-0.1535111880 -0.0735726820 -1 -1
-0.1538033540 -0.0728476970 -1 -1
-0.1541263570 -0.0721448960 -1 -1
-0.1544208190 -0.0715316190 -1 -1
-0.1546222550 -0.0710758810 -1 -1
-0.1546745750 -0.0708377990 -1 -1
-0.1545416820 -0.0708616680 -1 -1
-0.1542127700 -0.0711694220 -1 -1
-0.1537004240 -0.0717563580 -1 -1
-0.1530346780 -0.0725898800 -1 -1
-0.1522573490 -0.0736116340 -1 -1
-0.1514186900 -0.0747428700 -1 -1
-0.1505750370 -0.0758925000 -1 -1
-0.1497848010 -0.0769669090 -1 -1
-0.1491022870 -0.0778795570 -1 -1
-0.1485715030 -0.0785585690 -1 -1
-0.1482217420 -0.0789520290 -1 -1
-0.1480649930 -0.0790314840 -1 -1
-0.1480952970 -0.0787939930 -1 -1
-0.1482901800 -0.0782632280 -1 -1
-0.1486130460 -0.0774898810 -1 -1
-0.1490157690 -0.0765501910 -1 -1
-0.1494425830 -0.0755406780 -1 -1
-0.1498357290 -0.0745684290 -1 -1
-0.1501407830 -0.0737385960 -1 -1
-0.1503103940 -0.0731419680 -1 -1
-0.1503087400 -0.0728448680 -1 -1
-0.1501187110 -0.0728818460 -1 -1
-0.1497491700 -0.0732509650 -1 -1
-0.1492370440 -0.0739129600 -1 -1
-0.1486415270 -0.0747962610 -1 -1
-0.1480324480 -0.0758076750 -1 -1
-0.1474778600 -0.0768456560 -1 -1
-0.1470349010 -0.0778121050 -1 -1
-0.1467447970 -0.0786204420 -1 -1
-0.1466310780 -0.0792010980 -1 -1
-0.1466997350 -0.0795069020 -1 -1
-0.1469400670 -0.0795184150 -1 -1
-0.1473261040 -0.0792468900 -1 -1
-0.1478196580 -0.0787332080 -1 -1
-0.1483751200 -0.0780430030 -1 -1
-0.1489446390 -0.0772591580 -1 -1
-0.1494824150 -0.0764729240 -1 -1
-0.1499477460 -0.0757749420 -1 -1
-0.1503065180 -0.0752474110 -1 -1
-0.1505302970 -0.0749574030 -1 -1
-0.1505936360 -0.0749499090 -1 -1
-0.1504725260 -0.0752407840 -1 -1
-0.1501464620 -0.0758129840 -1 -1
-0.1496038420 -0.0766191090 -1 -1
-0.1488485490 -0.0775894630 -1 -1
-0.1479055840 -0.0786420470 -1 -1
-0.1468242560 -0.0796909220 -1 -1
-0.1456771570 -0.0806514580 -1 -1
-0.1445532840 -0.0814438350 -1 -1
-0.1435457600 -0.0819973900 -1 -1
-0.1427375540 -0.0822567920 -1 -1
-0.1421896730 -0.0821895260 -1 -1
-0.1419348000 -0.0817933890 -1 -1
-0.1419768070 -0.0811012320 -1 -1
-0.1422943530 -0.0801798450 -1 -1
-0.1428458570 -0.0791217410 -1 -1
-0.1435743740 -0.0780315420 -1 -1
-0.1444133200 -0.0770107820 -1 -1
-0.1452947120 -0.0761447410 -1 -1
-0.1461593820 -0.0754932230 -1 -1
-0.1469654470 -0.0750856830 -1 -1
-0.1476907990 -0.0749205870 -1 -1
-0.1483283180 -0.0749690150 -1 -1
-0.1488763240 -0.0751819540 -1 -1
-0.1493288740 -0.0754993100 -1 -1
-0.1496702390 -0.0758584540 -1 -1
-0.1498758560 -0.0762013150 -1 -1
-0.1499188300 -0.0764797890 -1 -1
-0.1497780120 -0.0766589300 -1 -1
-0.1494432270 -0.0767171660 -1 -1
-0.1489160630 -0.0766435350 -1 -1
-0.1482080090 -0.0764335890 -1 -1
-0.1473387780 -0.0760863710 -1 -1
-0.1463356030 -0.0756035670 -1 -1
-0.1452315750 -0.0749904870 -1 -1
-0.1440616860 -0.0742582600 -1 -1
-0.1428573560 -0.0734268720 -1 -1
-0.1416410620 -0.0725282090 -1 -1
-0.1404238470 -0.0716070690 -1 -1
-0.1392084310 -0.0707178340 -1 -1
-0.1379966890 -0.0699161500 -1 -1
-0.1367963690 -0.0692476230 -1 -1
-0.1356227050 -0.0687375280 -1 -1
-0.1344946420 -0.0683847140 -1 -1
-0.1334288200 -0.0681600430 -1 -1
-0.1324357560 -0.0680077930 -1 -1
-0.1315204000 -0.0678492000 -1 -1
-0.1306848770 -0.0675889960 -1 -1
-0.1299300840 -0.0671255810 -1 -1
-0.1292558770 -0.0663635880 -1 -1
-0.1286612380 -0.0652265450 -1 -1
-0.1281441710 -0.0636681490 -1 -1
-0.1277002970 -0.0616814820 -1 -1
-0.1273206970 -0.0593049720 -1 -1
-0.1269900190 -0.0566227710 -1 -1
-0.1266851030 -0.0537574560 -1 -1
-0.1263748630 -0.0508552390 -1 -1
-0.1260231290 -0.0480669180 -1 -1
-0.1255952870 -0.0455292490 -1 -1
-0.1250667840 -0.0433504620 -1 -1
-0.1244294760 -0.0416018010 -1 -1
-0.1236933320 -0.0403148900 -1 -1
-0.1228842020 -0.0394829930 -1 -1
-0.1220390660 -0.0390639740 -1 -1
-0.1211991730 -0.0389846590 -1 -1
-0.1204020720 -0.0391481590 -1 -1
-0.1196751260 -0.0394445590 -1 -1
-0.1190329640 -0.0397626510 -1 -1
-0.1184790470 -0.0399999700 -1 -1
-0.1180097910 -0.0400701960 -1 -1
-0.1176194380 -0.0399083070 -1 -1
-0.1173043650 -0.0394741230 -1 -1
-0.1170657730 -0.0387549680 -1 -1
-0.1169101140 -0.0377673770 -1 -1
-0.1168469070 -0.0365570410 -1 -1
-0.1168833610 -0.0351962010 -1 -1
-0.1170164500 -0.0337779380 -1 -1
-0.1172260530 -0.0324067780 -1 -1
-0.1174738060 -0.0311858150 -1 -1
-0.1177088220 -0.0302028160 -1 -1
-0.1178775830 -0.0295196580 -1 0
-0.1179348270 -0.0291679770 -1 0
-0.1178527580 -0.0291498070 -1 0
-0.1176254290 -0.0294403310 -1 0
-0.1172670780 -0.0299916170 -1 0
-0.1168064990 -0.0307377160 -1 -1
-0.1162802380 -0.0316011490 -1 -1
-0.1157262050 -0.0325002800 -1 -1
-0.1151790470 -0.0333571440 -1 -1
-0.1146682700 -0.0341052210 -1 -1
-0.1142182120 -0.0346956290 -1 -1
-0.1138479290 -0.0350999240 -1 -1
-0.1135708330 -0.0353094420 -1 -1
-0.1133951240 -0.0353327670 -1 -1
-0.1133244520 -0.0351928180 -1 -1
-0.1133576830 -0.0349244650 -1 -1
-0.1134880630 -0.0345730620 -1 -1
-0.1137025080 -0.0341931720 -1 -1
-0.1139811130 -0.0338458090 -1 -1
-0.1142965410 -0.0335931630 -1 -1
-0.1146137810 -0.0334912440 -1 -1
-0.1148924180 -0.0335817850 -1 -1
-0.1150925160 -0.0338853110 -1 -1
-0.1151822440 -0.0343975740 -1 -1
-0.1151444370 -0.0350903070 -1 -1
-0.1149803700 -0.0359149360 -1 -1
-0.1147102170 -0.0368071490 -1 -1
-0.1143706010 -0.0376915850 -1 -1
-0.1140101400 -0.0384877340 -1 -1
-0.1136834560 -0.0391184990 -1 -1
-0.1134438840 -0.0395205960 -1 -1
-0.1133356430 -0.0396534740 -1 -1
-0.1133867710 -0.0395040920 -1 -1
-0.1136041170 -0.0390876120 -1 -1
-0.1139718610 -0.0384451930 -1 -1
-0.1144547510 -0.0376393320 -1 -1
-0.1150052960 -0.0367472680 -1 -1
-0.1155723000 -0.0358537640 -1 -1
-0.1161085250 -0.0350440910 -1 -1
-0.1165768250 -0.0343968060 -1 -1
-0.1169539970 -0.0339757840 -1 -1
-0.1172304460 -0.0338223590 -1 -1
-0.1174055750 -0.0339498200 -1 -1
-0.1174827010 -0.0343423320 -1 -1
-0.1174672720 -0.0349581580 -1 -1
-0.1173684110 -0.0357348330 -1 -1
-0.1172015430 -0.0365943920 -1 -1
-0.1169900820 -0.0374489530 -1 -1
-0.1167647950 -0.0382079200 -1 -1
-0.1165606370 -0.0387871710 -1 -1
-0.1164123620 -0.0391190860 -1 -1
-0.1163504000 -0.0391615830 -1 -1
-0.1163972030 -0.0389045360 -1 -1
-0.1165637030 -0.0383721170 -1 -1
-0.1168457880 -0.0376199190 -1 -1
-0.1172212100 -0.0367269260 -1 -1
-0.1176484900 -0.0357840720 -1 -1
-0.1180708460 -0.0348820900 -1 -1
-0.1184268550 -0.0341009560 -1 -1
-0.1186642970 -0.0335019150 -1 -1
-0.1187496930 -0.0331224830 -1 -1
-0.1186692070 -0.0329748050 -1 -1
-0.1184235320 -0.0330476510 -1 -1
-0.1180222870 -0.0333117890 -1 -1
-0.1174808760 -0.0337270410 -1 -1
-0.1168196130 -0.0342479770 -1 -1
-0.1160642650 -0.0348260310 -1 -1
-0.1152472360 -0.0354087750 -1 -1
-0.1144080770 -0.0359393680 -1 -1
-0.1135915640 -0.0363587450 -1 -1
-0.1128426410 -0.0366110810 -1 -1
-0.1122004620 -0.0366510990 -1 -1
-0.1116953600 -0.0364503580 -1 -1
-0.1113496130 -0.0360004270 -1 -1
-0.1111787750 -0.0353135310 -1 -1
-0.1111905000 -0.0344225940 -1 -1
-0.1113814060 -0.0333813670 -1 -1
-0.1117344730 -0.0322632920 -1 -1
-0.1122182520 -0.0311564700 -1 -1
-0.1127879440 -0.0301532440 -1 -1
-0.1133889860 -0.0293364880 -1 0
-0.1139640960 -0.0287668730 -1 0
-0.1144630000 -0.0284740120 -1 0
-0.1148512130 -0.0284523100 -1 0
-0.1151136630 -0.0286617550 -1 0
-0.1152524440 -0.0290337810 -1 0
-0.1152816040 -0.0294816500 -1 0
-0.1152227470 -0.0299136890 -1 0
-0.1151035270 -0.0302468850 -1 -1
-0.1149580130 -0.0304184170 -1 -1
-0.1148258500 -0.0303933020 -1 -1
-0.1147481260 -0.0301671180 -1 -1
-0.1147605010 -0.0297640790 -1 0
-0.1148859720 -0.0292319540 -1 0
-0.1151294610 -0.0286355510 -1 0
-0.1154751700 -0.0280495870 -1 0
-0.1158871980 -0.0275508480 -1 0
-0.1163139860 -0.0272095880 -1 0
-0.1166961640 -0.0270810950 -1 0
-0.1169762780 -0.0271988870 -1 0
-0.1171083560 -0.0275705830 -1 0
-0.1170651090 -0.0281771980 -1 0
-0.1168409500 -0.0289768020 -1 0
-0.1164504590 -0.0299125640 -1 0
-0.1159235050 -0.0309223720 -1 -1
-0.1152990430 -0.0319458390 -1 -1
-0.1146190460 -0.0329270140 -1 -1
-0.1139229320 -0.0338144610 -1 -1
-0.1132433990 -0.0345610080 -1 -1
-0.1126051380 -0.0351243250 -1 -1
-0.1120263700 -0.0354689710 -1 -1
-0.1115214750 -0.0355698210 -1 -1
-0.1111030770 -0.0354156590 -1 -1
-0.1107822960 -0.0350118380 -1 -1
-0.1105667570 -0.0343819950 -1 -1
-0.1104579210 -0.0335682130 -1 -1
-0.1104498910 -0.0326280120 -1 -1
-0.1105296630 -0.0316279260 -1 -1
-0.1106771680 -0.0306356970 -1 -1
-0.1108650740 -0.0297133710 -1 0
-0.1110601730 -0.0289122140 -1 0
-0.1112271220 -0.0282690640 -1 0
-0.1113333720 -0.0278030210 -1 0
-0.1113546700 -0.0275121630 -1 0
-0.1112808740 -0.0273718830 -1 0
-0.1111197200 -0.0273370640 -1 0
-0.1108954540 -0.0273484120 -1 0
-0.1106428010 -0.0273408730 -1 0
-0.1103996500 -0.0272517420 -1 0
-0.1102001640 -0.0270273140 -1 0
-0.1100680060 -0.0266281510 -1 0
-0.1100111120 -0.0260333370 -1 0
-0.1100204590 -0.0252436020 -1 0
-0.1100724270 -0.0242828120 -1 0
-0.1101328260 -0.0231978160 -1 0
-0.1101626050 -0.0220567920 -1 0
-0.1101256810 -0.0209454820 -1 0
-0.1099964790 -0.0199602340 -1 0
-0.1097637600 -0.0191978020 -1 0
-0.1094304030 -0.0187435300 -1 0
-0.1090110940 -0.0186602360 -1 0
-0.1085287290 -0.0189794290 -1 0
-0.1080096880 -0.0196960680 -1 0
-0.1074790760 -0.0207680800 -1 0
-0.1069570910 -0.0221208870 -1 0
-0.1064570690 -0.0236556240 -1 0
-0.1059857740 -0.0252594080 -1 0
-0.1055464540 -0.0268163370 -1 0
-0.1051436570 -0.0282177330 -1 0
-0.1047867670 -0.0293701940 -1 0
-0.1044901140 -0.0302007900 -1 -1
-0.1042709160 -0.0306598790 -1 -1
-0.1041471620 -0.0307231080 -1 -1
-0.1041349930 -0.0303939920 -1 -1
-0.1042436520 -0.0297067510 -1 0
-0.1044682390 -0.0287270140 -1 0
-0.1047841020 -0.0275474170 -1 0
-0.1051469550 -0.0262773140 -1 0
-0.1054987330 -0.0250290830 -1 0
-0.1057766370 -0.0239044440 -1 0
-0.1059233740 -0.0229828940 -1 0
-0.1058968840 -0.0223134240 -1 0
-0.1056774980 -0.0219106470 -1 0
-0.1052707070 -0.0217559830 -1 0
-0.1047053030 -0.0218035640 -1 0
-0.1040284830 -0.0219892960 -1 0
-0.1032995210 -0.0222408750 -1 0
-0.1025825080 -0.0224873420 -1 0
-0.1019386160 -0.0226676030 -1 0
-0.1014192480 -0.0227370500 -1 0
-0.1010617670 -0.0226709380 -1 0
-0.1008886450 -0.0224641880 -1 0
-0.1009090640 -0.0221289240 -1 0
-0.1011204440 -0.0216918380 -1 0
-0.1015078500 -0.0211923420 -1 0
-0.1020422810 -0.0206806190 -1 0
-0.1026812850 -0.0202141260 -1 0
-0.1033733720 -0.0198524620 -1 0
-0.1040638470 -0.0196513700 -1 0
-0.1046991840 -0.0196564150 -1 0
-0.1052294060 -0.0198969120 -1 0
-0.1056096830 -0.0203809610 -1 0
-0.1058026570 -0.0210926310 -1 0
-0.1057824690 -0.0219920890 -1 0
-0.1055401470 -0.0230186650 -1 0
-0.1050881150 -0.0240962560 -1 0
-0.1044610060 -0.0251405300 -1 0
-0.1037120220 -0.0260672870 -1 0
-0.1029065990 -0.0268010290 -1 0
-0.1021155730 -0.0272823550 -1 0
-0.1014086250 -0.0274729700 -1 0
-0.1008474870 -0.0273580340 -1 0
-0.1004786820 -0.0269464650 -1 0
-0.1003265050 -0.0262698680 -1 0
-0.1003877980 -0.0253803770 -1 0
-0.1006304040 -0.0243474830 -1 0
-0.1009965260 -0.0232538550 -1 0
-0.1014109900 -0.0221898680 -1 0
-0.1017931290 -0.0212465250 -1 0
-0.1020695810 -0.0205069850 -1 0
-0.1021847910 -0.0200375720 -1 0
-0.1021075520 -0.0198795020 -1 0
-0.1018340260 -0.0200426960 -1 0
-0.1013876170 -0.0205034530 -1 0
-0.1008148210 -0.0212074450 -1 0
-0.1001771740 -0.0220775720 -1 0
-0.0995421210 -0.0230240880 -1 0
-0.0989756600 -0.0239539090 -1 0
-0.0985367520 -0.0247776450 -1 0
-0.0982723760 -0.0254155560 -1 0
-0.0982133670 -0.0258042380 -1 0
-0.0983717060 -0.0259036140 -1 0
-0.0987394630 -0.0257019650 -1 0
-0.0992891130 -0.0252171780 -1 0
-0.0999747920 -0.0244938830 -1 0
-0.1007347230 -0.0235975790 -1 0
-0.1014958470 -0.0226078920 -1 0
-0.1021812960 -0.0216122320 -1 0
-0.1027194210 -0.0206994720 -1 0
-0.1030518420 -0.0199533940 -1 0
-0.1031387840 -0.0194464570 -1 0
-0.1029610240 -0.0192339450 -1 0
-0.1025187980 -0.0193482840 -1 0
-0.1018294170 -0.0197941200 -1 0
-0.1009254010 -0.0205455040 -1 0
-0.0998532610 -0.0215462950 -1 0
-0.0986718240 -0.0227141230 -1 0
-0.0974494190 -0.0239475500 -1 0
-0.0962588050 -0.0251361640 -1 0
-0.0951684780 -0.0261733290 -1 0
-0.0942320850 -0.0269699230 -1 0
-0.0934812560 -0.0274663040 -1 0
-0.0929251250 -0.0276400370 -1 0
-0.0925544400 -0.0275080620 -1 0
-0.0923467030 -0.0271229730 -1 0
-0.0922713030 -0.0265640760 -1 0
-0.0922946660 -0.0259245130 -1 0
-0.0923846010 -0.0252967120 -1 0
-0.0925131680 -0.0247590660 -1 0
-0.0926586350 -0.0243663050 -1 0
-0.0928067990 -0.0241449810 -1 0
-0.0929508600 -0.0240943950 -1 0
-0.0930895450 -0.0241921550 -1 0
-0.0932237600 -0.0244022310 -1 0
-0.0933522880 -0.0246825580 -1 0
-0.0934686590 -0.0249896920 -1 0
-0.0935618530 -0.0252799070 -1 0
-0.0936208760 -0.0255086300 -1 0
-0.0936399860 -0.0256311300 -1 0
-0.0936208600 -0.0256059450 -1 0
-0.0935713010 -0.0254004940 -1 0
-0.0935022210 -0.0249972960 -1 0
-0.0934237330 -0.0243987070 -1 0
-0.0933418030 -0.0236285640 -1 0
-0.0932578270 -0.0227305880 -1 0
-0.0931710410 -0.0217645860 -1 0
-0.0930814420 -0.0208012680 -1 0
-0.0929919340 -0.0199161510 -1 0
-0.0929102030 -0.0191830540 -1 0
-0.0928511700 -0.0186673700 -1 0
-0.0928385050 -0.0184192920 -1 0
-0.0929026130 -0.0184679900 -1 0
-0.0930756460 -0.0188181380 -1 0
-0.0933864360 -0.0194497360 -1 0
-0.0938568550 -0.0203215230 -1 0
-0.0945002110 -0.0213775930 -1 0
-0.0953225890 -0.0225557110 -1 0
-0.0963260850 -0.0237949990 -1 0
-0.0975111190 -0.0250411660 -1 0
-0.0988764710 -0.0262489920 -1 0
-0.1004178240 -0.0273827310 -1 0
-0.1021255930 -0.0284155000 -1 0
-0.1039826070 -0.0293290620 -1 0
-0.1059624010 -0.0301149650 -1 -1
-0.1080289430 -0.0307771880 -1 -1
-0.1101386500 -0.0313354100 -1 -1
-0.1122450840 -0.0318267480 -1 -1
-0.1143050390 -0.0323038510 -1 -1
-0.1162835970 -0.0328288000 -1 -1
-0.1181565970 -0.0334635440 -1 -1
-0.1199106300 -0.0342588340 -1 -1
-0.1215415810 -0.0352444870 -1 -1
-0.1230522720 -0.0364236560 -1 -1
-0.1244491510 -0.0377724620 -1 -1
-0.1257387780 -0.0392446140 -1 -1
-0.1269256560 -0.0407791210 -1 -1
-0.1280124300 -0.0423083260 -1 -1
-0.1290023760 -0.0437641080 -1 -1
-0.1299027260 -0.0450819730 -1 -1
-0.1307266090 -0.0462042200 -1 -1
-0.1314929310 -0.0470831150 -1 -1
-0.1322252220 -0.0476839140 -1 -1
-0.1329496830 -0.0479880270 -1 -1
-0.1336916600 -0.0479971030 -1 -1
-0.1344704140 -0.0477367880 -1 -1
-0.1352930860 -0.0472573520 -1 -1
-0.1361493710 -0.0466298910 -1 -1
-0.1370087230 -0.0459391850 -1 -1
-0.1378221660 -0.0452751810 -1 -1
-0.1385300410 -0.0447249360 -1 -1
-0.1390740720 -0.0443657550 -1 -1
-0.1394096540 -0.0442586660 -1 -1
-0.1395151320 -0.0444411830 -1 -1
-0.1393968840 -0.0449201750 -1 -1
-0.1390898140 -0.0456673360 -1 -1
-0.1386530780 -0.0466196590 -1 -1
-0.1381615380 -0.0476859120 -1 -1
-0.1376945610 -0.0487584630 -1 -1
-0.1373246240 -0.0497284850 -1 -1
-0.1371079910 -0.0505013870 -1 -1
-0.1370791190 -0.0510091700 -1 -1
-0.1372493950 -0.0512175970 -1 -1
-0.1376093060 -0.0511277010 -1 -1
-0.1381325240 -0.0507723170 -1 -1
-0.1387808970 -0.0502095950 -1 -1
-0.1395095810 -0.0495155930 -1 -1
-0.1402711770 -0.0487762580 -1 -1
-0.1410181880 -0.0480779480 -1 -1
-0.1417047240 -0.0474971130 -1 -1
-0.1422891130 -0.0470911830 -1 -1
-0.1427377300 -0.0468922840 -1 -1
-0.1430283450 -0.0469049800 -1 -1
-0.1431507770 -0.0471086580 -1 -1
-0.1431045940 -0.0474636620 -1 -1
-0.1428965160 -0.0479186320 -1 -1
-0.1425403630 -0.0484168090 -1 -1
-0.1420591560 -0.0489009150 -1 -1
-0.1414864270 -0.0493171960 -1 -1
-0.1408650930 -0.0496192450 -1 -1
-0.1402441750 -0.0497717080 -1 -1
-0.1396738830 -0.0497532670 -1 -1
-0.1391993960 -0.0495580590 -1 -1
-0.1388544180 -0.0491954570 -1 -1
-0.1386561570 -0.0486891370 -1 -1
-0.1386028710 -0.0480762000 -1 -1
-0.1386742880 -0.0474057670 -1 -1
-0.1388345440 -0.0467359040 -1 -1
-0.1390367820 -0.0461286870 -1 -1
-0.1392282400 -0.0456440590 -1 -1
-0.1393550860 -0.0453332610 -1 -1
-0.1393673320 -0.0452329520 -1 -1
-0.1392241680 -0.0453606720 -1 -1
-0.1388990220 -0.0457119130 -1 -1
-0.1383836950 -0.0462594660 -1 -1
-0.1376916740 -0.0469553540 -1 -1
-0.1368598730 -0.0477347220 -1 -1
-0.1359468000 -0.0485209560 -1 -1
-0.1350262230 -0.0492317330 -1 -1
-0.1341775910 -0.0497859340 -1 -1
-0.1334755830 -0.0501120460 -1 -1
-0.1329808570 -0.0501582320 -1 -1
-0.1327334810 -0.0499021030 -1 -1
-0.1327498960 -0.0493567320 -1 -1
-0.1330231130 -0.0485704150 -1 -1
-0.1335246430 -0.0476201930 -1 -1
-0.1342067550 -0.0466012750 -1 -1
-0.1350051740 -0.0456147730 -1 -1
