-0.0501843930 0.0107633470 -1 0
-0.0500754500 0.0118602510 -1 0
-0.0500878850 0.0127722030 -1 0
-0.0501737530 0.0133943230 -1 0
-0.0502784950 0.0136516070 -1 0
-0.0503485990 0.0135070000 -1 0
-0.0503390410 0.0129643940 -1 0
-0.0502180840 0.0120661890 -1 0
-0.0499690680 0.0108861680 -1 0
-0.0495911250 0.0095193020 -1 0
-0.0490995940 0.0080706040 -1 0
-0.0485246930 0.0066454870 -1 0
-0.0479071500 0.0053436420 -1 0
-0.0472912580 0.0042562340 -1 0
-0.0467173840 0.0034638150 -1 0
-0.0462162000 0.0030321400 -1 0
-0.0458050730 0.0030048860 -1 0
-0.0454855650 0.0033945370 -1 0
-0.0452417760 0.0041749040 -1 0
-0.0450403740 0.0052793370 -1 0
-0.0448329610 0.0066060290 -1 0
-0.0445605080 0.0080283090 -1 0
-0.0441586410 0.0094066160 -1 0
-0.0435631190 0.0105999730 -1 0
-0.0427157240 0.0114769530 -1 0
-0.0415701190 0.0119271180 -1 0
-0.0400965800 0.0118730180 -1 0
-0.0382851330 0.0112810370 -1 0
-0.0361476820 0.0101677570 -1 0
-0.0337194030 0.0085991560 -1 0
-0.0310584670 0.0066832930 -1 0
-0.0282430380 0.0045590840 0 0
-0.0253659030 0.0023826990 0 0
-0.0225274140 0.0003122700 0 0
-0.0198270130 -0.0015080470 0 0
-0.0173543670 -0.0029632800 0 0
-0.0151822030 -0.0039804170 0 0
-0.0133621670 -0.0045364010 0 0
-0.0119232080 -0.0046594710 0 0
-0.0108712930 -0.0044233130 0 0
-0.0101900540 -0.0039349640 0 0
-0.0098428670 -0.0033194530 0 0
-0.0097769970 -0.0027052940 0 0
-0.0099297310 -0.0022128130 0 0
-0.0102354850 -0.0019441500 0 0
-0.0106324760 -0.0019736580 0 0
-0.0110678180 -0.0023400000 0 0
-0.0115002250 -0.0030427590 0 0
-0.0119000930 -0.0040446250 0 0
-0.0122482310 -0.0052775250 0 0
-0.0125354530 -0.0066503450 0 0
-0.0127640760 -0.0080572080 0 0
-0.0129500360 -0.0093862930 0 0
-0.0131225570 -0.0105293200 0 0
-0.0133198340 -0.0113911410 0 0
-0.0135822940 -0.0118981040 0 0
-0.0139449830 -0.0120038230 0 0
-0.0144295730 -0.0116921730 0 0
-0.0150379690 -0.0109784090 0 0
-0.0157499410 -0.0099088780 0 0
-0.0165249310 -0.0085584850 0 0
-0.0173072000 -0.0070251100 0 0
-0.0180340180 -0.0054219320 0 0
-0.0186457470 -0.0038692210 0 0
-0.0190952410 -0.0024856420 0 0
-0.0193541370 -0.0013781830 0 0
-0.0194151970 -0.0006312670 0 0
-0.0192912760 -0.0002970200 0 0
-0.0190120580 -0.0003882230 0 0
-0.0186191740 -0.0008751140 0 0
-0.0181601770 -0.0016876060 0 0
-0.0176828490 -0.0027238550 0 0
-0.0172316550 -0.0038637820 0 0
-0.0168465830 -0.0049840610 0 0
-0.0165626710 -0.0059711720 0 0
-0.0164084860 -0.0067313190 0 0
-0.0164032420 -0.0071979510 0 0
-0.0165537530 -0.0073374110 0 0
-0.0168523520 -0.0071525490 0 0
-0.0172751700 -0.0066839340 0 0
-0.0177805500 -0.0060075610 0 0
-0.0183097900 -0.0052274290 0 0
-0.0187920160 -0.0044628200 0 0
-0.0191525520 -0.0038323640 0 0
-0.0193229340 -0.0034382860 0 0
-0.0192501380 -0.0033533790 0 0
-0.0189029070 -0.0036115710 0 0
-0.0182753220 -0.0042029760 0 0
-0.0173892190 -0.0050749400 0 0
-0.0162949200 -0.0061390660 0 0
-0.0150677880 -0.0072821620 0 0
-0.0138008290 -0.0083790420 0 0
-0.0125965730 -0.0093059920 0 0
-0.0115596410 -0.0099537090 0 0
-0.0107880650 -0.0102383410 0 0
-0.0103619500 -0.0101100040 0 0
-0.0103307030 -0.0095587250 0 0
-0.0107020540 -0.0086173690 0 0
-0.0114369380 -0.0073610460 0 0
-0.0124536230 -0.0059029730 0 0
-0.0136410840 -0.0043861490 0 0
-0.0148774650 -0.0029696540 0 0
-0.0160478580 -0.0018098780 0 0
-0.0170578360 -0.0010396300 0 0
-0.0178421010 -0.0007500120 0 0
-0.0183679580 -0.0009799160 0 0
-0.0186328060 -0.0017154490 0 0
-0.0186570380 -0.0028975160 0 0
-0.0184756350 -0.0044331330 0 0
-0.0181308600 -0.0062065040 0 0
-0.0176670600 -0.0080883330 0 0
-0.0171278370 -0.0099437560 0 0
-0.0165556540 -0.0116398860 0 0
-0.0159943980 -0.0130537360 0 0
-0.0154939700 -0.0140807560 0 0
-0.0151126050 -0.0146436160 0 0
-0.0149122790 -0.0146999760 0 0
-0.0149474480 -0.0142474700 0 0
-0.0152525660 -0.0133249120 0 0
-0.0158338820 -0.0120099490 0 0
-0.0166666110 -0.0104133970 0 0
-0.0176957300 -0.0086704170 0 0
-0.0188397410 -0.0069292660 0 0
-0.0199982710 -0.0053383540 0 0
-0.0210639690 -0.0040320620 0 0
-0.0219371140 -0.0031165450 0 0
-0.0225396060 -0.0026580400 0 0
-0.0228253250 -0.0026761430 0 0
-0.0227857790 -0.0031431530 0 0
-0.0224509020 -0.0039887450 0 0
-0.0218837590 -0.0051082760 0 0
-0.0211690270 -0.0063735920 0 0
-0.0203990290 -0.0076459360 0 0
-0.0196616520 -0.0087896560 0 0
-0.0190307790 -0.0096844560 0 0
-0.0185583700 -0.0102351100 0 0
-0.0182698110 -0.0103789620 0 0
-0.0181644580 -0.0100911280 0 0
-0.0182203880 -0.0093866610 0 0
-0.0184007140 -0.0083189030 0 0
-0.0186594590 -0.0069733710 0 0
-0.0189465540 -0.0054577110 0 0
-0.0192126370 -0.0038901050 0 0
-0.0194133680 -0.0023883920 0 0
-0.0195119950 -0.0010603930 0 0
-0.0194799960 0.0000044743 0 0
-0.0192969190 0.0007413650 0 0
-0.0189504130 0.0011133980 0 0
-0.0184363000 0.0011129820 0 0
-0.0177587770 0.0007623050 0 0
-0.0169323620 0.0001132920 0 0
-0.0159860430 -0.0007542060 0 0
-0.0149669000 -0.0017378940 0 0
-0.0139406260 -0.0027228340 0 0
-0.0129888060 -0.0035942990 0 0
-0.0122027330 -0.0042512060 0 0
-0.0116721470 -0.0046177020 0 0
-0.0114693090 -0.0046516880 0 0
-0.0116331140 -0.0043502040 0 0
-0.0121585210 -0.0037516860 0 0
-0.0129938860 -0.0029342030 0 0
-0.0140473010 -0.0020081710 0 0
-0.0152015750 -0.0011029860 0 0
-0.0163341440 -0.0003495590 0 0
-0.0173356590 0.0001375580 0 0
-0.0181223670 0.0002755040 0 0
-0.0186416000 0.0000244474 0 0
-0.0188723870 -0.0006059240 0 0
-0.0188228900 -0.0015561530 0 0
-0.0185260710 -0.0027245010 0 0
-0.0180349730 -0.0039816940 0 0
-0.0174172780 -0.0051899150 0 0
-0.0167478070 -0.0062218680 0 0
-0.0161000310 -0.0069758500 0 0
-0.0155399390 -0.0073845340 0 0
-0.0151234780 -0.0074179900 0 0
-0.0148951840 -0.0070827510 0 0
-0.0148854610 -0.0064175870 0 0
-0.0151061970 -0.0054866450 0 0
-0.0155464180 -0.0043719650 0 0
-0.0161706160 -0.0031666530 0 0
-0.0169215510 -0.0019676080 0 0
-0.0177279340 -0.0008666650 0 0
-0.0185154790 0.0000582387 0 0
-0.0192171290 0.0007480370 0 0
-0.0197788050 0.0011618490 0 0
-0.0201611520 0.0012735440 0 0
-0.0203398210 0.0010703760 0 0
-0.0203053650 0.0005558230 0 0
-0.0200627360 -0.0002453450 0 0
-0.0196307190 -0.0012835900 0 0
-0.0190419650 -0.0024852570 0 0
-0.0183433960 -0.0037579500 0 0
-0.0175945790 -0.0049999700 0 0
-0.0168612160 -0.0061116580 0 0
-0.0162051310 -0.0070058730 0 0
-0.0156758480 -0.0076165060 0 0
-0.0153064790 -0.0079054370 0 0
-0.0151124190 -0.0078675050 0 0
-0.0150911770 -0.0075321250 0 0
-0.0152237330 -0.0069606520 0 0
-0.0154776850 -0.0062397800 0 0
-0.0158109780 -0.0054722510 0 0
-0.0161756190 -0.0047658550 0 0
-0.0165223420 -0.0042213650 0 0
-0.0168065670 -0.0039206320 0 0
-0.0169939440 -0.0039167930 0 0
-0.0170634840 -0.0042278840 0 0
-0.0170082200 -0.0048342650 0 0
-0.0168350960 -0.0056803490 0 0
-0.0165652480 -0.0066809250 0 0
-0.0162336150 -0.0077311080 0 0
-0.0158853680 -0.0087180860 0 0
-0.0155685790 -0.0095328620 0 0
-0.0153263530 -0.0100807550 0 0
-0.0151926390 -0.0102904820 0 0
-0.0151921270 -0.0101217770 0 0
-0.0153406560 -0.0095703450 0 0
-0.0156438540 -0.0086682810 0 0
-0.0160958430 -0.0074790030 0 0
-0.0166800100 -0.0060880460 0 0
-0.0173705300 -0.0045924680 0 0
-0.0181324080 -0.0030911430 0 0
-0.0189203990 -0.0016774000 0 0
-0.0196795220 -0.0004345650 0 0
-0.0203489500 0.0005669220 0 0
-0.0208683560 0.0012725810 0 0
-0.0211844930 0.0016474420 0 0
-0.0212569300 0.0016799990 0 0
-0.0210633640 0.0013865440 0 0
-0.0206042480 0.0008137750 0 0
-0.0199051600 0.0000358845 0 0
-0.0190157760 -0.0008549420 0 0
-0.0180057250 -0.0017611990 0 0
-0.0169585430 -0.0025914710 0 0
-0.0159642970 -0.0032691980 0 0
-0.0151098160 -0.0037396440 0 0
-0.0144663530 -0.0039753840 0 0
-0.0140778780 -0.0039793300 0 0
-0.0139542420 -0.0037842180 0 0
-0.0140708480 -0.0034483530 0 0
-0.0143743380 -0.0030483460 0 0
-0.0147926880 -0.0026698670 0 0
-0.0152469150 -0.0023971980 0 0
-0.0156615260 -0.0023027660 0 0
-0.0159728140 -0.0024382910 0 0
-0.0161348870 -0.0028286400 0 0
-0.0161222830 -0.0034687450 0 0
-0.0159286850 -0.0043239550 0 0
-0.0155638570 -0.0053334870 0 0
-0.0150510560 -0.0064162350 0 0
-0.0144247400 -0.0074789400 0 0
-0.0137270690 -0.0084267010 0 0
-0.0130026840 -0.0091743620 0 0
-0.0122933020 -0.0096559610 0 0
-0.0116348360 -0.0098295850 0 0
-0.0110582020 -0.0096769790 0 0
-0.0105919990 -0.0091999430 0 0
-0.0102636450 -0.0084165410 0 0
-0.0100961990 -0.0073591500 0 0
-0.0101009940 -0.0060748720 0 0
-0.0102697670 -0.0046274250 0 0
-0.0105710220 -0.0030983930 0 0
-0.0109528510 -0.0015853550 0 0
-0.0113511300 -0.0001950840 0 0
-0.0117000540 0.0009682100 0 0
-0.0119415680 0.0018171700 0 0
-0.0120320320 0.0022940480 0 0
-0.0119466330 0.0023786740 0 0
-0.0116818180 0.0020905850 0 0
-0.0112550530 0.0014856450 0 0
-0.0107017420 0.0006477100 0 0
-0.0100698290 -0.0003234790 0 0
-0.0094130670 -0.0013255660 0 0
-0.0087845490 -0.0022645620 0 0
-0.0082320450 -0.0030614760 0 0
-0.0077956340 -0.0036557770 0 0
-0.0075065760 -0.0040087910 0 0
-0.0073860090 -0.0041079730 0 0
-0.0074431880 -0.0039700920 0 0
-0.0076734280 -0.0036408970 0 0
-0.0080565050 -0.0031898200 0 0
-0.0085569630 -0.0026998860 0 0
-0.0091270300 -0.0022555120 0 0
-0.0097114770 -0.0019312870 0 0
-0.0102529580 -0.0017830680 0 0
-0.0106971680 -0.0018415530 0 0
-0.0109993330 -0.0021088410 0 0
-0.0111336090 -0.0025583320 0 0
-0.0111032340 -0.0031377420 0 0
-0.0109463720 -0.0037748550 0 0
-0.0107334040 -0.0043859570 0 0
-0.0105550580 -0.0048865650 0 0
-0.0105046100 -0.0052032210 0 0
-0.0106588060 -0.0052843660 0 0
-0.0110618090 -0.0051079620 0 0
-0.0117153790 -0.0046843560 0 0
-0.0125773370 -0.0040542700 0 0
-0.0135693470 -0.0032827790 0 0
-0.0145925970 -0.0024504960 0 0
-0.0155465290 -0.0016436480 0 0
-0.0163452260 -0.0009449570 0 0
-0.0169287360 -0.0004265720 0 0
-0.0172687210 -0.0001452820 0 0
-0.0173682220 -0.0001397740 0 0
-0.0172561030 -0.0004293340 0 0
-0.0169782470 -0.0010126390 0 0
-0.0165878900 -0.0018655550 0 0
-0.0161369060 -0.0029388670 0 0
-0.0156693100 -0.0041586230 0 0
-0.0152178340 -0.0054310800 0 0
-0.0148043740 -0.0066515990 0 0
-0.0144443650 -0.0077148690 0 0
-0.0141532190 -0.0085241460 0 0
-0.0139519530 -0.0089988350 0 0
-0.0138697560 -0.0090805610 0 0
-0.0139426160 -0.0087377960 0 0
-0.0142077110 -0.0079693730 0 0
-0.0146936380 -0.0068074830 0 0
-0.0154082080 -0.0053198960 0 0
-0.0163280570 -0.0036096910 0 0
-0.0173946650 -0.0018100590 0 0
-0.0185186230 -0.0000727851 0 0
-0.0195912760 0.0014482560 0 0
-0.0205019080 0.0026150140 0 0
-0.0211576850 0.0033207870 0 0
-0.0215011930 0.0035008740 0 0
-0.0215194210 0.0031379530 0 0
-0.0212411730 0.0022634050 0 0
-0.0207254830 0.0009555960 0 0
-0.0200472410 -0.0006654790 0 0
-0.0192853970 -0.0024486310 0 0
-0.0185156420 -0.0042269820 0 0
-0.0178068940 -0.0058360820 0 0
-0.0172196680 -0.0071314090 0 0
-0.0168037580 -0.0080030340 0 0
-0.0165942300 -0.0083861180 0 0
-0.0166078560 -0.0082658930 0 0
-0.0168425550 -0.0076763710 0 0
-0.0172791820 -0.0066934530 0 0
-0.0178829950 -0.0054239380 0 0
-0.0186047940 -0.0039925830 0 0
-0.0193839270 -0.0025296020 0 0
-0.0201536850 -0.0011598430 0 0
-0.0208481070 0.0000067648 0 0
-0.0214092270 0.0008837990 0 0
-0.0217925890 0.0014147810 0 0
-0.0219689350 0.0015760510 0 0
-0.0219230180 0.0013760320 0 0
-0.0216521770 0.0008515780 0 0
-0.0211657900 0.0000618573 0 0
-0.0204852690 -0.0009193490 0 0
-0.0196441380 -0.0020115730 0 0
-0.0186876730 -0.0031347830 0 0
-0.0176713930 -0.0042151820 0 0
-0.0166584000 -0.0051896850 0 0
-0.0157162120 -0.0060090170 0 0
-0.0149130280 -0.0066393060 0 0
-0.0143122080 -0.0070631350 0 0
-0.0139635190 -0.0072813010 0 0
-0.0138920010 -0.0073148150 0 0
-0.0140891260 -0.0072052210 0 0
-0.0145114330 -0.0070110160 0 0
-0.0150878630 -0.0067991890 0 0
-0.0157331990 -0.0066339410 0 0
-0.0163639980 -0.0065664030 0 0
-0.0169130060 -0.0066277920 0 0
-0.0173381970 -0.0068262980 0 0
-0.0176250220 -0.0071468840 0 0
-0.0177830580 -0.0075529800 0 0
-0.0178384350 -0.0079898350 0 0
-0.0178242270 -0.0083900450 0 0
-0.0177727330 -0.0086811060 0 0
-0.0177122140 -0.0087936940 0 0
-0.0176662970 -0.0086693320 0 0
-0.0176528760 -0.0082673280 0 0
-0.0176821970 -0.0075713280 0 0
-0.0177556270 -0.0065947030 0 0
-0.0178655650 -0.0053829330 0 0
-0.0179966740 -0.0040115610 0 0
-0.0181289710 -0.0025792610 0 0
-0.0182416950 -0.0011965120 0 0
-0.0183151330 0.0000282731 0 0
-0.0183289210 0.0010021830 0 0
-0.0182585000 0.0016578010 0 0
-0.0180737260 0.0019579880 0 0
-0.0177423690 0.0018959430 0 0
-0.0172372950 0.0014928000 0 0
-0.0165439060 0.0007941420 0 0
-0.0156657240 -0.0001347670 0 0
-0.0146278350 -0.0012147940 0 0
-0.0134778150 -0.0023583590 0 0
-0.0122839280 -0.0034735560 0 0
-0.0111310050 -0.0044677590 0 0
-0.0101134180 -0.0052524460 0 0
-0.0093240010 -0.0057502760 0 0
-0.0088406550 -0.0059035520 0 0
-0.0087145230 -0.0056818120 0 0
-0.0089613140 -0.0050866270 0 0
-0.0095559630 -0.0041528760 0 0
-0.0104331820 -0.0029464490 0 0
-0.0114959450 -0.0015587050 0 0
-0.0126298820 -0.0000983225 0 0
-0.0137197100 0.0013182810 0 0
-0.0146643900 0.0025770420 0 0
-0.0153881570 0.0035766670 0 0
-0.0158456930 0.0042386790 0 0
-0.0160214300 0.0045150210 0 0
-0.0159247750 0.0043917590 0 0
-0.0155849260 0.0038894060 0 0
-0.0150485240 0.0030612460 0 0
-0.0143785880 0.0019895580 0 0
-0.0136495620 0.0007784450 0 0
-0.0129371420 -0.0004570040 0 0
-0.0123074750 -0.0016034900 0 0
-0.0118098530 -0.0025621920 0 0
-0.0114729110 -0.0032598860 0 0
-0.0113032790 -0.0036567000 0 0
-0.0112876700 -0.0037481900 0 0
-0.0113996350 -0.0035608640 0 0
-0.0116080740 -0.0031435690 0 0
-0.0118815460 -0.0025589020 0 0
-0.0121864370 -0.0018777620 0 0
-0.0124835760 -0.0011773160 0 0
-0.0127288680 -0.0005392570 0 0
-0.0128792130 -0.0000441505 0 0
-0.0129011730 0.0002389000 0 0
-0.0127784940 0.0002633890 0 0
-0.0125160060 0.0000128943 0 0
-0.0121401880 -0.0004966100 0 0
-0.0116969460 -0.0012185210 0 0
-0.0112457990 -0.0020799910 0 0
-0.0108507050 -0.0029885190 0 0
-0.0105700550 -0.0038409480 0 0
-0.0104487250 -0.0045344260 0 0
-0.0105138860 -0.0049779790 0 0
-0.0107749310 -0.0051029810 0 0
-0.0112265010 -0.0048711460 0 0
-0.0118529050 -0.0042794030 0 0
-0.0126323500 -0.0033616370 0 0
-0.0135390800 -0.0021877010 0 0
-0.0145418560 -0.0008593150 0 0
-0.0155998010 0.0004990070 0 0
-0.0166600830 0.0017550000 0 0
-0.0176608840 0.0027873610 0 0
-0.0185382640 0.0035034780 0 0
-0.0192341710 0.0038523310 0 0
-0.0197053990 0.0038306530 0 0
-0.0199327990 0.0034820200 0 0
-0.0199270710 0.0028898750 0 0
-0.0197282310 0.0021663840 0 0
-0.0193995420 0.0014391860 0 0
-0.0190180180 0.0008373050 0 0
-0.0186625130 0.0004766500 0 0
-0.0184008670 0.0004462200 0 0
-0.0182790740 0.0007977010 0 0
-0.0183149220 0.0015399800 0 0
-0.0184966170 0.0026372810 0 0
-0.0187854930 0.0040096580 0 0
-0.0191221510 0.0055371910 0 0
-0.0194358340 0.0070703110 0 0
-0.0196553790 0.0084465190 0 0
-0.0197186600 0.0095103000 0 0
-0.0195786850 0.0101313810 0 0
-0.0192067660 0.0102182810 0 0
-0.0185943010 0.0097268920 0 0
-0.0177538310 0.0086645670 0 0
-0.0167185290 0.0070897920 0 0
-0.0155393920 0.0051078070 0 0
-0.0142809260 0.0028628500 0 0
-0.0130168640 0.0005271430 0 0
-0.0118266070 -0.0017133020 0 0
-0.0107912870 -0.0036749970 0 0
-0.0099881820 -0.0051933510 0 0
-0.0094835660 -0.0061369700 0 0
-0.0093248700 -0.0064192210 0 0
-0.0095328310 -0.0060078220 0 0
-0.0100948480 -0.0049321270 0 0
-0.0109622100 -0.0032853470 0 0
-0.0120537810 -0.0012187170 0 0
-0.0132655800 0.0010723100 0 0
-0.0144827460 0.0033669220 0 0
-0.0155919240 0.0054404130 0 0
-0.0164945890 0.0070872100 0 0
-0.0171200710 0.0081437040 0 0
-0.0174339770 0.0085074570 0 0
-0.0174387290 0.0081491030 0 0
-0.0171666320 0.0071142820 0 0
-0.0166690010 0.0055154930 0 0
-0.0160063040 0.0035166770 0 0
-0.0152424670 0.0013136080 0 0
-0.0144428260 -0.0008878750 0 0
-0.0136728230 -0.0028935380 0 0
-0.0129944530 -0.0045391750 0 0
-0.0124596010 -0.0057029130 0 0
-0.0121025930 -0.0063107360 0 0
-0.0119359420 -0.0063373630 0 0
-0.0119519480 -0.0058050940 0 0
-0.0121287000 -0.0047816770 0 0
-0.0124360430 -0.0033767880 0 0
-0.0128381920 -0.0017354950 0 0
-0.0132932450 -0.0000269858 0 0
-0.0137524410 0.0015710860 0 0
-0.0141620720 0.0028898970 0 0
-0.0144691370 0.0037849900 0 0
-0.0146292370 0.0041478650 0 0
-0.0146133370 0.0039131760 0 0
-0.0144110360 0.0030622290 0 0
-0.0140307120 0.0016239140 0 0
-0.0134974090 -0.0003262540 0 0
-0.0128487770 -0.0026701090 0 0
-0.0121299430 -0.0052559820 0 0
-0.0113884110 -0.0079132390 0 0
-0.0106694110 -0.0104695450 0 0
-0.0100116730 -0.0127672990 0 0
-0.0094439380 -0.0146767940 0 0
-0.0089826510 -0.0161054550 0 0
-0.0086312840 -0.0170034590 0 0
-0.0083814670 -0.0173660490 0 0
-0.0082157270 -0.0172323870 0 0
-0.0081111620 -0.0166802840 0 0
-0.0080433820 -0.0158166980 0 0
-0.0079900990 -0.0147656430 0 0
-0.0079337360 -0.0136558620 0 0
-0.0078627060 -0.0126097620 0 0
-0.0077714560 -0.0117340860 0 0
-0.0076592710 -0.0111120410 0 0
-0.0075279580 -0.0107964610 0 0
-0.0073793710 -0.0108045450 0 0
-0.0072143370 -0.0111154000 0 0
-0.0070337740 -0.0116717750 0 0
-0.0068413170 -0.0123867800 0 0
-0.0066455690 -0.0131546860 0 0
-0.0064604780 -0.0138636420 0 0
-0.0063039410 -0.0144086180 0 0
-0.0061954170 -0.0147034520 0 0
-0.0061523030 -0.0146906280 0 0
-0.0061853330 -0.0143476570 0 0
-0.0062950850 -0.0136896060 0 0
-0.0064715550 -0.0127675750 0 0
-0.0066961730 -0.0116631240 0 0
-0.0069436150 -0.0104796890 0 0
-0.0071816660 -0.0093328300 0 0
-0.0073708130 -0.0083404130 0 0
-0.0074668080 -0.0076123830 0 0
-0.0074268790 -0.0072396010 0 0
-0.0072174630 -0.0072824480 0 0
-0.0068210760 -0.0077610520 0 0
-0.0062408740 -0.0086490150 0 0
-0.0055022990 -0.0098725660 0 0
-0.0046516880 -0.0113170480 0 0
-0.0037522170 -0.0128404390 0 0
-0.0028782080 -0.0142903940 0 0
-0.0021089760 -0.0155213150 0 0
-0.0015219420 -0.0164103780 0 0
-0.0011832130 -0.0168715970 0 0
-0.0011359800 -0.0168652650 0 0
-0.0013909190 -0.0164003510 0 0
-0.0019234470 -0.0155298880 0 0
-0.0026792800 -0.0143417620 0 0
-0.0035853770 -0.0129482070 0 0
-0.0045616300 -0.0114760070 0 0
-0.0055301610 -0.0100571580 0 0
-0.0064214920 -0.0088187550 0 0
-0.0071777800 -0.0078719520 0 0
-0.0077535110 -0.0073012180 0 0
-0.0081149700 -0.0071552650 0 0
-0.0082405010 -0.0074403590 0 0
-0.0081221290 -0.0081171130 0 0
-0.0077672670 -0.0091030310 0 0
-0.0071997300 -0.0102821890 0 0
-0.0064601070 -0.0115203200 0 0
-0.0056049790 -0.0126813410 0 0
-0.0047037260 -0.0136422730 0 0
-0.0038324090 -0.0143053090 0 0
-0.0030658350 -0.0146063970 0 0
-0.0024692330 -0.0145198420 0 0
-0.0020902730 -0.0140592350 0 0
-0.0019531720 -0.0132749840 0 0
-0.0020576900 -0.0122480620 0 0
-0.0023828190 -0.0110802490 0 0
-0.0028916650 -0.0098825920 0 0
-0.0035352750 -0.0087640090 0 0
-0.0042554710 -0.0078211850 0 0
-0.0049874210 -0.0071307520 0 0
-0.0056639610 -0.0067443690 0 0
-0.0062236420 -0.0066864650 0 0
-0.0066208200 -0.0069538950 0 0
-0.0068333420 -0.0075170450 0 0
-0.0068652340 -0.0083221490 0 0
-0.0067453680 -0.0092940440 0 0
-0.0065242970 -0.0103391500 0 0
-0.0062695960 -0.0113503260 0 0
-0.0060584590 -0.0122155010 0 0
-0.0059667620 -0.0128302640 0 0
-0.0060562080 -0.0131126450 0 0
-0.0063636310 -0.0130164490 0 0
-0.0068964640 -0.0125388860 0 0
-0.0076347340 -0.0117204330 0 0
-0.0085365840 -0.0106381180 0 0
-0.0095441320 -0.0093950570 0 0
-0.0105885920 -0.0081083410 0 0
-0.0115955580 -0.0068960580 0 0
-0.0124916070 -0.0058646810 0 0
-0.0132119260 -0.0050990130 0 0
-0.0137070280 -0.0046561570 0 0
-0.0139468230 -0.0045632860 0 0
-0.0139219290 -0.0048183700 0 0
-0.0136431220 -0.0053931070 0 0
-0.0131399600 -0.0062371530 0 0
-0.0124588950 -0.0072828630 0 0
-0.0116599540 -0.0084500960 0 0
-0.0108109550 -0.0096507830 0 0
-0.0099803430 -0.0107934560 0 0
-0.0092302240 -0.0117887650 0 0
-0.0086090880 -0.0125570440 0 0
-0.0081441450 -0.0130371430 0 0
-0.0078357590 -0.0131944650 0 0
-0.0076565160 -0.0130272230 0 0
-0.0075555820 -0.0125702490 0 0
-0.0074670330 -0.0118942450 0 0
-0.0073197180 -0.0110987850 0 0
-0.0070469320 -0.0103003480 0 0
-0.0065958330 -0.0096184110 0 0
-0.0059361620 -0.0091615310 0 0
-0.0050660310 -0.0090143370 0 0
-0.0040125010 -0.0092271390 0 0
-0.0028272030 -0.0098101280 0 0
-0.0015797190 -0.0107324860 0 0
-0.0003508700 -0.0119252060 0 0
0.0007746250 -0.0132872690 0 0
0.0017173280 -0.0146963210 0 0
0.0024129640 -0.0160235460 0 0
0.0028199510 -0.0171491220 0 0
0.0029223720 -0.0179743210 0 0
0.0027283160 -0.0184293730 0 0
0.0022654510 -0.0184784190 0 0
0.0015761180 -0.0181221250 0 0
0.0007128110 -0.0173974790 0 0
-0.0002662150 -0.0163746720 0 0
-0.0013006920 -0.0151510950 0 0
-0.0023302670 -0.0138418410 0 0
-0.0032953470 -0.0125665290 0 0
-0.0041398670 -0.0114345930 0 0
-0.0048170570 -0.0105331850 0 0
-0.0052951950 -0.0099204620 0 0
-0.0055602090 -0.0096240870 0 0
-0.0056153700 -0.0096433700 0 0
-0.0054798320 -0.0099535800 0 0
-0.0051861540 -0.0105111690 0 0
-0.0047761330 -0.0112586990 0 0
-0.0042957820 -0.0121287040 0 0
-0.0037910800 -0.0130467660 0 0
-0.0033049390 -0.0139349670 0 0
-0.0028744110 -0.0147165010 0 0
-0.0025272200 -0.0153216580 0 0
-0.0022785280 -0.0156949250 0 0
-0.0021300430 -0.0158024400 0 0
-0.0020721410 -0.0156383990 0 0
-0.0020879620 -0.0152283580 0 0
-0.0021581270 -0.0146275150 0 0
-0.0022642260 -0.0139141390 0 0
-0.0023894570 -0.0131804320 0 0
-0.0025171110 -0.0125227760 0 0
-0.0026297960 -0.0120316040 0 0
-0.0027113760 -0.0117810870 0 0
-0.0027508740 -0.0118203020 0 0
-0.0027460360 -0.0121678670 0 0
-0.0027043030 -0.0128102320 0 0
-0.0026397800 -0.0137024820 0 0
-0.0025665480 -0.0147711690 0 0
-0.0024918850 -0.0159193590 0 0
-0.0024145130 -0.0170341000 0 0
-0.0023296870 -0.0179965310 0 0
-0.0022380770 -0.0186941990 0 0
-0.0021536390 -0.0190337880 0 0
-0.0021061170 -0.0189523540 0 0
-0.0021353980 -0.0184263000 0 0
-0.0022795820 -0.0174773050 0 0
-0.0025633160 -0.0161729210 0 0
-0.0029912050 -0.0146196360 0 0
-0.0035455610 -0.0129491470 0 0
-0.0041868820 -0.0113014430 0 0
-0.0048575500 -0.0098081250 0 0
-0.0054883490 -0.0085779800 0 0
-0.0060057640 -0.0076870100 0 0
-0.0063396860 -0.0071752540 0 0
-0.0064331890 -0.0070504570 0 0
-0.0062540850 -0.0072951740 0 0
-0.0058042570 -0.0078724890 0 0
-0.0051223030 -0.0087277380 0 0
-0.0042782570 -0.0097876150 0 0
-0.0033630700 -0.0109606690 0 0
-0.0024770460 -0.0121427480 0 0
-0.0017196300 -0.0132277540 0 0
-0.0011796590 -0.0141209380 0 0
-0.0009244000 -0.0147513510 0 0
-0.0009891480 -0.0150808780 0 0
-0.0013724560 -0.0151079560 0 0
-0.0020392970 -0.0148654960 0 0
-0.0029284970 -0.0144146090 0 0
-0.0039593850 -0.0138364650 0 0
-0.0050367160 -0.0132236980 0 0
-0.0060571810 -0.0126713480 0 0
-0.0069204420 -0.0122669790 0 0
-0.0075428930 -0.0120805260 0 0
-0.0078695580 -0.0121556620 0 0
-0.0078814740 -0.0125044290 0 0
-0.0075978610 -0.0131057210 0 0
-0.0070723100 -0.0139072790 0 0
-0.0063825260 -0.0148306870 0 0
-0.0056149190 -0.0157789330 0 0
-0.0048481330 -0.0166458150 0 0
-0.0041416040 -0.0173257650 0 0
-0.0035328360 -0.0177231290 0 0
-0.0030412640 -0.0177615430 0 0
-0.0026738290 -0.0173937480 0 0
-0.0024290600 -0.0166095150 0 0
-0.0022986190 -0.0154381980 0 0
-0.0022670230 -0.0139444440 0 0
-0.0023113440 -0.0122181090 0 0
-0.0024019440 -0.0103615940 0 0
-0.0025038230 -0.0084790350 0 0
-0.0025780090 -0.0066700770 0 0
-0.0025835790 -0.0050269570 0 0
-0.0024811660 -0.0036316380 0 0
-0.0022378530 -0.0025510790 0 0
-0.0018333700 -0.0018307920 0 0
-0.0012662400 -0.0014879010 0 0
-0.0005563620 -0.0015058190 0 0
0.0002575260 -0.0018331910 0 0
0.0011230370 -0.0023888090 0 0
0.0019800080 -0.0030720530 0 0
0.0027673140 -0.0037763200 0 0
0.0034303850 -0.0044019310 0 0
0.0039274850 -0.0048659070 0 0
0.0042333540 -0.0051082370 0 0
0.0043406750 -0.0050958690 0 0
0.0042598620 -0.0048255850 0 0
0.0040167590 -0.0043259240 0 0
0.0036485380 -0.0036569950 0 0
0.0031989270 -0.0029063390 0 0
0.0027132260 -0.0021794650 0 0
0.0022332870 -0.0015857830 0 0
0.0017935770 -0.0012229560 0 0
0.0014196890 -0.0011633580 0 0
0.0011292660 -0.0014447150 0 0
0.0009333560 -0.0020652220 0 0
0.0008364220 -0.0029830890 0 0
0.0008357720 -0.0041209140 0 0
0.0009218450 -0.0053747640 0 0
0.0010783230 -0.0066265650 0 0
0.0012805720 -0.0077577510 0 0
0.0014940200 -0.0086618530 0 0
0.0016754160 -0.0092543360 0 0
0.0017773530 -0.0094795370 0 0
0.0017539000 -0.0093152010 0 0
0.0015660150 -0.0087744190 0 0
0.0011875440 -0.0079046840 0 0
0.0006122490 -0.0067842690 0 0
-0.0001400280 -0.0055158000 0 0
-0.0010209070 -0.0042162320 0 0
-0.0019569550 -0.0030037200 0 0
-0.0028599480 -0.0019845620 0 0
-0.0036414890 -0.0012435000 0 0
-0.0042266380 -0.0008378470 0 0
-0.0045625350 -0.0007942280 0 0
-0.0046219060 -0.0011070640 0 0
-0.0044032840 -0.0017384240 0 0
-0.0039289430 -0.0026193190 0 0
-0.0032404150 -0.0036533560 0 0
-0.0023922240 -0.0047235020 0 0
-0.0014464610 -0.0057018370 0 0
-0.0004700550 -0.0064613650 0 0
0.0004671390 -0.0068887070 0 0
0.0012963820 -0.0068966730 0 0
0.0019561200 -0.0064357850 0 0
0.0023981840 -0.0055032930 0 0
0.0025932850 -0.0041479440 0 0
0.0025354320 -0.0024690580 0 0
0.0022439850 -0.0006090130 0 0
0.0017613750 0.0012606500 0 0
0.0011458510 0.0029579640 0 0
0.0004619350 0.0043114680 0 0
-0.0002273140 0.0051798480 0 0
-0.0008650300 0.0054672880 0 0
-0.0014045060 0.0051335130 0 0
-0.0018139660 0.0041981130 0 0
-0.0020808340 0.0027375110 0 0
-0.0022125780 0.0008737550 0 0
-0.0022327960 -0.0012425150 0 0
-0.0021749380 -0.0034505740 0 0
-0.0020776690 -0.0055957060 0 0
-0.0019832620 -0.0075410100 0 0
-0.0019368540 -0.0091751820 0 0
-0.0019838060 -0.0104172950 0 0
-0.0021646110 -0.0112195550 0 0
-0.0025083960 -0.0115688270 0 0
-0.0030263200 -0.0114873550 0 0
-0.0037067170 -0.0110319250 0 0
-0.0045143550 -0.0102893330 0 0
-0.0053952680 -0.0093666150 0 0
-0.0062860240 -0.0083773790 0 0
-0.0071237470 -0.0074280770 0 0
-0.0078531450 -0.0066080160 0 0
-0.0084298430 -0.0059847020 0 0
-0.0088222000 -0.0056034890 0 0
-0.0090132720 -0.0054889820 0 0
-0.0090024770 -0.0056456230 0 0
-0.0088060470 -0.0060566970 0 0
-0.0084556090 -0.0066831140 0 0
-0.0079943120 -0.0074639510 0 0
-0.0074711690 -0.0083201200 0 0
-0.0069354650 -0.0091613580 0 0
-0.0064328080 -0.0098959840 0 0
-0.0060032670 -0.0104420620 0 0
-0.0056800490 -0.0107375510 0 0
-0.0054863020 -0.0107471130 0 0
-0.0054304670 -0.0104652310 0 0
-0.0055036580 -0.0099170290 0 0
-0.0056813790 -0.0091575860 0 0
-0.0059289120 -0.0082687340 0 0
-0.0062077340 -0.0073518290 0 0
-0.0064803340 -0.0065160880 0 0
-0.0067130790 -0.0058640880 0 0
-0.0068788150 -0.0054773790 0 0
-0.0069598920 -0.0054052420 0 0
-0.0069504800 -0.0056583100 0 0
-0.0068575880 -0.0062070060 0 0
-0.0067013740 -0.0069840860 0 0
-0.0065144540 -0.0078919160 0 0
-0.0063386630 -0.0088159240 0 0
-0.0062189270 -0.0096426890 0 0
-0.0061962660 -0.0102771530 0 0
-0.0063028430 -0.0106537220 0 0
-0.0065601890 -0.0107398970 0 0
-0.0069787900 -0.0105343160 0 0
-0.0075567680 -0.0100621470 0 0
-0.0082779560 -0.0093702790 0 0
-0.0091111730 -0.0085232040 0 0
-0.0100109310 -0.0075986770 0 0
-0.0109191290 -0.0066819150 0 0
-0.0117688060 -0.0058584750 0 0
-0.0124904590 -0.0052074980 0 0
-0.0130197630 -0.0047965400 0 0
-0.0133061570 -0.0046772100 0 0
-0.0133215240 -0.0048802920 0 0
-0.0130655860 -0.0054107350 0 0
-0.0125650470 -0.0062441920 0 0
-0.0118673530 -0.0073264530 0 0
-0.0110320530 -0.0085762510 0 0
-0.0101224830 -0.0098912760 0 0
-0.0091991970 -0.0111569780 0 0
-0.0083154940 -0.0122575940 0 0
-0.0075153310 -0.0130883380 0 0
-0.0068337030 -0.0135669160 0 0
-0.0062976220 -0.0136424570 0 0
-0.0059254420 -0.0133010050 0 0
-0.0057248680 -0.0125678250 0 0
-0.0056916800 -0.0115063870 0 0
-0.0058100060 -0.0102124260 0 0
-0.0060536350 -0.0088023070 0 0
-0.0063881330 -0.0073977760 0 0
-0.0067742400 -0.0061110260 0 0
-0.0071720970 -0.0050334300 0 0
-0.0075445640 -0.0042298980 0 0
-0.0078589270 -0.0037387920 0 0
-0.0080885710 -0.0035749200 0 0
-0.0082168840 -0.0037320620 0 0
-0.0082428140 -0.0041826750 0 0
-0.0081831980 -0.0048752620 0 0
-0.0080675970 -0.0057329190 0 0
-0.0079281980 -0.0066572870 0 0
-0.0077912920 -0.0075389150 0 0
-0.0076736250 -0.0082709860 0 0
-0.0075824960 -0.0087628420 0 0
-0.0075173120 -0.0089517250 0 0
-0.0074711380 -0.0088120070 0 0
-0.0074319430 -0.0083603650 0 0
-0.0073839980 -0.0076547380 0 0
-0.0073102400 -0.0067865360 0 0
-0.0071961370 -0.0058684930 0 0
-0.0070340380 -0.0050213820 0 0
-0.0068252330 -0.0043606030 0 0
-0.0065779390 -0.0039824650 0 0
-0.0063026250 -0.0039519460 0 0
-0.0060078460 -0.0042949370 0 0
-0.0056988530 -0.0049959420 0 0
-0.0053792670 -0.0059998350 0 0
-0.0050545360 -0.0072166400 0 0
-0.0047349490 -0.0085296550 0 0
-0.0044369150 -0.0098071260 0 0
-0.0041835820 -0.0109164160 0 0
-0.0040053410 -0.0117386780 0 0
-0.0039376160 -0.0121821170 0 0
-0.0040133480 -0.0121921900 0 0
-0.0042518830 -0.0117572830 0 0
-0.0046498510 -0.0109091060 0 0
-0.0051789530 -0.0097184780 0 0
-0.0057907910 -0.0082879190 0 0
-0.0064249510 -0.0067415530 0 0
-0.0070170220 -0.0052118360 0 0
-0.0075053830 -0.0038244040 0 0
-0.0078363580 -0.0026848520 0 0
-0.0079673810 -0.0018705380 0 0
-0.0078684030 -0.0014272840 0 0
-0.0075234800 -0.0013690760 0 0
-0.0069350390 -0.0016790280 0 0
-0.0061294030 -0.0023102780 0 0
-0.0051584150 -0.0031868910 0 0
-0.0040945480 -0.0042073530 0 0
-0.0030224360 -0.0052532390 0 0
-0.0020314850 -0.0062021490 0 0
-0.0012106670 -0.0069414410 0 0
-0.0006419480 -0.0073799300 0 0
-0.0003897420 -0.0074569010 0 0
-0.0004893250 -0.0071485490 0 0
-0.0009398830 -0.0064709500 0 0
-0.0017053240 -0.0054786600 0 0
-0.0027210190 -0.0042597460 0 0
-0.0039023760 -0.0029287720 0 0
-0.0051537480 -0.0016178660 0 0
-0.0063780050 -0.0004649520 0 0
-0.0074852550 0.0004004520 0 0
-0.0083984700 0.0008714940 0 0
-0.0090563180 0.0008757480 0 0
-0.0094148590 0.0003832130 0 0
-0.0094487330 -0.0005901040 0 0
-0.0091523060 -0.0019835240 0 0
-0.0085413590 -0.0036974450 0 0
-0.0076544550 -0.0056018160 0 0
-0.0065520210 -0.0075464920 0 0
-0.0053125100 -0.0093741940 0 0
-0.0040260800 -0.0109357570 0 0
-0.0027863050 -0.0121047640 0 0
-0.0016807690 -0.0127884740 0 0
-0.0007819590 -0.0129344500 0 0
-0.0001404400 -0.0125339990 0 0
0.0002175770 -0.0116227920 0 0
0.0002884400 -0.0102776060 0 0
0.0000883268 -0.0086083360 0 0
-0.0003484170 -0.0067461580 0 0
-0.0009715530 -0.0048295490 0 0
-0.0017196160 -0.0029894350 0 0
-0.0025260140 -0.0013355490 0 0
-0.0033246380 0.0000520553 0 0
-0.0040540370 0.0011239710 0 0
-0.0046601840 0.0018569210 0 0
-0.0050993120 0.0022480310 0 0
-0.0053429460 0.0023113360 0 0
-0.0053845490 0.0020778280 0 0
-0.0052446140 0.0015975380 0 0
-0.0049715090 0.0009401500 0 0
-0.0046368130 0.0001913580 0 0
-0.0043250810 -0.0005557300 0 0
-0.0041196850 -0.0012132240 0 0
-0.0040882060 -0.0017123240 0 0
-0.0042720920 -0.0020137230 0 0
-0.0046830910 -0.0021107750 0 0
-0.0053045570 -0.0020262580 0 0
-0.0060945240 -0.0018069180 0 0
-0.0069901250 -0.0015177010 0 0
-0.0079141450 -0.0012341310 0 0
-0.0087831560 -0.0010320730 0 0
-0.0095159110 -0.0009762180 0 0
-0.0100418710 -0.0011090200 0 0
-0.0103090920 -0.0014424950 0 0
-0.0102889220 -0.0019559480 0 0
-0.0099767010 -0.0026004890 0 0
-0.0093911930 -0.0033080030 0 0
-0.0085746810 -0.0040015150 0 0
-0.0075915190 -0.0046051100 0 0
-0.0065220500 -0.0050523600 0 0
-0.0054524030 -0.0052927190 0 0
-0.0044634910 -0.0052958890 0 0
-0.0036218310 -0.0050542150 0 0
-0.0029733010 -0.0045830350 0 0
-0.0025402270 -0.0039193080 0 0
-0.0023208990 -0.0031194400 0 0
-0.0022902730 -0.0022566700 0 0
-0.0024022150 -0.0014171550 0 0
-0.0025945410 -0.0006937850 0 0
-0.0027968380 -0.0001775860 0 0
-0.0029396260 0.0000524331 0 0
-0.0029636650 -0.0000608580 0 0
-0.0028290600 -0.0005452480 0 0
-0.0025222970 -0.0013950010 0 0
-0.0020578020 -0.0025695100 0 0
-0.0014727160 -0.0039942500 0 0
-0.0008175560 -0.0055643280 0 0
-0.0001471950 -0.0071516350 0 0
0.0004849990 -0.0086160130 0 0
0.0010298290 -0.0098195330 0 0
0.0014428150 -0.0106419430 0 0
0.0016842720 -0.0109948420 0 0
0.0017212310 -0.0108322990 0 0
0.0015310770 -0.0101566080 0 0
0.0011036300 -0.0090184400 0 0
0.0004405280 -0.0075107210 0 0
-0.0004452170 -0.0057568680 0 0
-0.0015273980 -0.0038965430 0 0
-0.0027645210 -0.0020722710 0 0
-0.0041005710 -0.0004181090 0 0
-0.0054687400 0.0009496310 0 0
-0.0067965120 0.0019394200 0 0
-0.0080119830 0.0024899500 0 0
-0.0090512740 0.0025754580 0 0
-0.0098651570 0.0022105270 0 0
-0.0104232730 0.0014509060 0 0
-0.0107161760 0.0003873460 0 0
-0.0107558670 -0.0008666300 0 0
-0.0105749830 -0.0021889800 0 0
-0.0102249950 -0.0034615450 0 0
-0.0097734320 -0.0045794950 0 0
-0.0092986160 -0.0054584570 0 0
-0.0088806140 -0.0060392140 0 0
-0.0085900860 -0.0062895080 0 0
-0.0084788370 -0.0062040000 0 0
-0.0085741750 -0.0058034620 0 0
-0.0088764140 -0.0051325070 0 0
-0.0093581120 -0.0042547420 0 0
-0.0099657750 -0.0032458230 0 0
-0.0106263520 -0.0021861190 0 0
-0.0112580850 -0.0011546480 0 0
-0.0117817750 -0.0002246380 0 0
-0.0121296040 0.0005404070 0 0
-0.0122517250 0.0010914910 0 0
-0.0121213500 0.0014003670 0 0
-0.0117380450 0.0014660180 0 0
-0.0111282570 0.0013184490 0 0
-0.0103419650 0.0010173260 0 0
-0.0094459900 0.0006456350 0 0
-0.0085165510 0.0003001510 0 0
-0.0076326290 0.0000802128 0 0
-0.0068687460 0.0000760821 0 0
-0.0062864940 0.0003590360 0 0
-0.0059273450 0.0009755670 0 0
-0.0058099300 0.0019457270 0 0
-0.0059325070 0.0032631220 0 0
-0.0062779390 0.0048947690 0 0
-0.0068167420 0.0067819120 0 0
-0.0075059560 0.0088438600 0 0
-0.0082861910 0.0109859830 0 0
-0.0090817170 0.0131115550 0 0
-0.0098070640 0.0151354670 0 0
-0.0103788660 0.0169965490 0 0
-0.0107277380 0.0186653510 0 0
-0.0108061170 0.0201448770 0 0
-0.0105915350 0.0214639420 0 0
-0.0100861520 0.0226664600 0 0
-0.0093134150 0.0238014840 0 0
-0.0083135770 0.0249165780 0 0
-0.0071402610 0.0260546800 0 0
-0.0058583580 0.0272540170 0 0
-0.0045413170 0.0285501880 0 0
-0.0032661270 0.0299784410 0 0
-0.0021059210 0.0315742610 0 1
-0.0011210130 0.0333719330 0 1
-0.0003498760 0.0354010770 0 1
0.0001975560 0.0376808440 0 1
0.0005418690 0.0402135970 0 1
0.0007304040 0.0429822150 0 1
0.0008282790 0.0459530970 0 1
0.0009063840 0.0490828540 0 1
0.0010300590 0.0523264140 0 1
0.0012514380 0.0556458900 0 1
0.0016048740 0.0590185650 0 1
0.0021036440 0.0624415820 0 1
0.0027379450 0.0659328200 0 1
0.0034751160 0.0695288380 0 1
0.0042624870 0.0732796960 0 1
0.0050330580 0.0772403690 0 1
0.0057137660 0.0814605530 0 1
0.0062350180 0.0859762620 0 1
0.0065398990 0.0908053870 0 1
0.0065921220 0.0959465110 0 1
0.0063817880 0.1013790750 0 1
0.0059271690 0.1070645020 0 1
0.0052710650 0.1129490750 0 1
0.0044729710 0.1189686190 0 1
0.0036006380 0.1250540490 0 1
0.0027234640 0.1311370660 0 1
0.0019068530 0.1371552740 0 1
0.0012060550 0.1430554480 0 1
0.0006610060 0.1487940680 0 1
0.0002947430 0.1543359860 0 1
0.0001156160 0.1596533230 0 1
0.0001216970 0.1647265550 0 1
0.0003055790 0.1695482180 0 1
0.0006570640 0.1741276100 0 1
0.0011616710 0.1784938840 0 1
0.0017964820 0.1826955010 0 1
0.0025275770 0.1867953410 0 1
0.0033116540 0.1908624810 0 1
0.0041007160 0.1949626710 0 1
0.0048469970 0.1991495190 0 1
0.0055065060 0.2034575900 0 1
0.0060418670 0.2078977760 0 1
0.0064260070 0.2124548990 0 1
0.0066464670 0.2170872120 0 1
0.0067084040 0.2217271320 0 1
0.0066351470 0.2262830830 0 1
0.0064666040 0.2306431300 0 1
0.0062558920 0.2346811820 0 1
0.0060637540 0.2382666350 0 1
0.0059503070 0.2412785020 0 1
0.0059658440 0.2436232560 0 1
0.0061441210 0.2452520250 0 1
0.0064998730 0.2461711960 0 1
0.0070295300 0.2464435830 0 1
0.0077134360 0.2461815700 0 1
0.0085184070 0.2455350200 0 1
0.0094001040 0.2446758370 0 1
0.0103052170 0.2437802180 0 1
0.0111743230 0.2430094810 0 1
0.0119468710 0.2424911000 0 1
0.0125684330 0.2423029360 0 1
0.0129984940 0.2424643390 0 1
0.0132165690 0.2429364680 0 1
0.0132245880 0.2436311940 0 1
0.0130446230 0.2444254580 0 1
0.0127135540 0.2451774740 0 1
0.0122782480 0.2457427260 0 1
0.0117930420 0.2459888200 0 1
0.0113168390 0.2458077670 0 1
0.0109063540 0.2451244120 0 1
0.0106067000 0.2439010650 0 1
0.0104436580 0.2421390840 0 1
0.0104202380 0.2398778240 0 1
0.0105169280 0.2371914620 0 1
0.0106939690 0.2341837460 0 1
0.0108956270 0.2309800470 0 1
0.0110574080 0.2277162520 0 1
0.0111153500 0.2245251770 0 1
0.0110148500 0.2215226260 0 1
0.0107171040 0.2187956680 0 1
0.0102025870 0.2163947120 0 1
0.0094718420 0.2143301950 0 1
0.0085446070 0.2125742760 0 1
0.0074581450 0.2110668720 0 1
0.0062651800 0.2097241380 0 1
0.0050313940 0.2084474000 0 1
0.0038310790 0.2071313760 0 1
0.0027393390 0.2056719180 0 1
0.0018225220 0.2039740370 0 1
0.0011309790 0.2019602260 0 1
0.0006958870 0.1995779350 0 1
0.0005288160 0.1968047170 0 1
0.0006227950 0.1936507730 0 1
0.0009544480 0.1901597430 0 1
0.0014862190 0.1864077950 0 1
0.0021673340 0.1824991000 0 1
0.0029340850 0.1785559210 0 1
0.0037124210 0.1747048480 0 1
0.0044244560 0.1710633810 0 1
0.0049972450 0.1677293430 0 1
0.0053714920 0.1647720340 0 1
0.0055086520 0.1622239220 0 1
0.0053951050 0.1600742650 0 1
0.0050429180 0.1582672980 0 1
0.0044874930 0.1567071560 0 1
0.0037822190 0.1552710000 0 1
0.0029904130 0.1538294740 0 1
0.0021760990 0.1522691650 0 1
0.0013958720 0.1505093180 0 1
0.0006934180 0.1485085840 0 1
0.0000967680 0.1462635490 0 1
-0.0003820800 0.1438031710 0 1
-0.0007449860 0.1411818250 0 1
-0.0010031550 0.1384716470 0 1
-0.0011715460 0.1357542900 0 1
-0.0012635850 0.1331126660 0 1
-0.0012883680 0.1306237110 0 1
-0.0012530330 0.1283527150 0 1
-0.0011695960 0.1263491520 0 1
-0.0010605520 0.1246441670 0 1
-0.0009576040 0.1232500250 0 1
-0.0008939680 0.1221609940 0 1
-0.0008954200 0.1213540550 0 1
-0.0009740340 0.1207879300 0 1
-0.0011250610 0.1204007480 0 1
-0.0013260050 0.1201090960 0 1
-0.0015378650 0.1198115970 0 1
-0.0017100150 0.1193981980 0 1
-0.0017895210 0.1187637470 0 1
-0.0017327740 0.1178228460 0 1
-0.0015150810 0.1165226720 0 1
-0.0011347080 0.1148509870 0 1
-0.0006114070 0.1128375670 0 1
0.0000175955 0.1105491360 0 1
0.0007020760 0.1080798930 0 1
0.0013838040 0.1055403350 0 1
0.0020020850 0.1030458390 0 1
0.0024996470 0.1007052590 0 1
0.0028288300 0.0986103820 0 1
0.0029570440 0.0968276630 0 1
0.0028698970 0.0953927890 0 1
0.0025716230 0.0943079740 0 1
0.0020834350 0.0935423390 0 1
0.0014403970 0.0930359860 0 1
0.0006872980 0.0927073960 0 1
-0.0001262300 0.0924626490 0 1
-0.0009509000 0.0922044630 0 1
-0.0017416200 0.0918401500 0 1
-0.0024583540 0.0912889880 0 1
-0.0030648600 0.0904895650 0 1
-0.0035282350 0.0894068430 0 1
-0.0038212020 0.0880380030 0 1
-0.0039272380 0.0864156170 0 1
-0.0038471000 0.0846070760 0 1
-0.0036035570 0.0827099080 0 1
-0.0032408880 0.0808426550 0 1
-0.0028184810 0.0791315670 0 1
-0.0024011860 0.0776953610 0 1
-0.0020499620 0.0766314150 0 1
-0.0018152210 0.0760051940 0 1
-0.0017329410 0.0758424100 0 1
-0.0018217200 0.0761233210 0 1
-0.0020798750 0.0767807420 0 1
-0.0024844660 0.0777047220 0 1
-0.0029943930 0.0787549310 0 1
-0.0035568780 0.0797779810 0 1
-0.0041149720 0.0806250830 0 1
-0.0046145350 0.0811667800 0 1
-0.0050096620 0.0813033010 0 1
-0.0052653860 0.0809703930 0 1
-0.0053581890 0.0801418210 0 1
-0.0052768100 0.0788300320 0 1
-0.0050240320 0.0770850400 0 1
-0.0046173590 0.0749903950 0 1
-0.0040872990 0.0726558680 0 1
-0.0034739020 0.0702077480 0 1
-0.0028229020 0.0677780950 0 1
-0.0021822870 0.0654940570 0 1
-0.0015989170 0.0634684990 0 1
-0.0011145950 0.0617933630 0 1
-0.0007620680 0.0605361010 0 1
-0.0005621620 0.0597373770 0 1
-0.0005227840 0.0594078280 0 1
-0.0006394610 0.0595242840 0 1
-0.0008966790 0.0600280070 0 1
-0.0012695360 0.0608267820 0 1
-0.0017256740 0.0618009550 0 1
-0.0022278710 0.0628128380 0 1
-0.0027376470 0.0637190820 0 1
-0.0032194150 0.0643855780 0 1
-0.0036443770 0.0647035610 0 1
-0.0039935460 0.0646042720 0 1
-0.0042591060 0.0640688440 0 1
-0.0044437660 0.0631309400 0 1
-0.0045589980 0.0618714450 0 1
-0.0046236650 0.0604067300 0 1
-0.0046628330 0.0588732990 0 1
-0.0047043380 0.0574108030 0 1
-0.0047722730 0.0561443440 0 1
-0.0048806720 0.0551679920 0 1
-0.0050310250 0.0545330440 0 1
-0.0052138710 0.0542440060 0 1
-0.0054126660 0.0542622780 0 1
-0.0056079800 0.0545149790 0 1
-0.0057800660 0.0549062490 0 1
-0.0059089270 0.0553287590 0 1
-0.0059737610 0.0556738250 0 1
-0.0059544390 0.0558405410 0 1
-0.0058349400 0.0557453440 0 1
-0.0056063320 0.0553315070 0 1
-0.0052673040 0.0545757250 0 1
-0.0048220450 0.0534894470 0 1
-0.0042769540 0.0521151020 0 1
-0.0036384650 0.0505195000 0 1
-0.0029135970 0.0487874170 0 1
-0.0021132460 0.0470173930 0 1
-0.0012566720 0.0453191180 0 1
-0.0003749390 0.0438087610 0 1
0.0004883780 0.0425985230 0 1
0.0012801310 0.0417807520 0 1
0.0019437530 0.0414113660 0 1
0.0024267330 0.0414981080 0 1
0.0026880050 0.0419970290 0 1
0.0027054290 0.0428175590 0 1
0.0024832790 0.0438335630 0 1
0.0020574160 0.0448969040 0 1
0.0014938700 0.0458517690 0 1
0.0008776410 0.0465498110 0 1
0.0002937830 0.0468657470 0 1
-0.0001917750 0.0467113460 0 1
-0.0005440100 0.0460448930 0 1
-0.0007600600 0.0448747020 0 1
-0.0008618900 0.0432571950 0 1
-0.0008848320 0.0412906980 0 1
-0.0008661440 0.0391060170 0 1
-0.0008370950 0.0368547640 0 1
-0.0008210970 0.0346960000 0 1
-0.0008371320 0.0327815470 0 1
-0.0009042380 0.0312410220 0 1
-0.0010432270 0.0301687580 0 1
-0.0012753430 0.0296149390 0 0
-0.0016190570 0.0295819340 0 0
-0.0020852780 0.0300257390 0 1
-0.0026724160 0.0308625080 0 1
-0.0033648760 0.0319797260 0 1
-0.0041357590 0.0332498680 0 1
-0.0049502100 0.0345429670 0 1
-0.0057667100 0.0357356880 0 1
-0.0065371200 0.0367174400 0 1
-0.0072074980 0.0373959000 0 1
-0.0077213240 0.0377035610 0 1
-0.0080260820 0.0376049880 0 1
-0.0080829290 0.0371027640 0 1
-0.0078773020 0.0362392050 0 1
-0.0074266000 0.0350921950 0 1
-0.0067812530 0.0337658970 0 1
-0.0060183980 0.0323784330 0 1
-0.0052308260 0.0310486560 0 1
-0.0045139890 0.0298836370 0 0
-0.0039522380 0.0289678120 0 0
-0.0036062480 0.0283547550 0 0
-0.0035048070 0.0280629010 0 0
-0.0036426900 0.0280754890 0 0
-0.0039844400 0.0283439440 0 0
-0.0044728270 0.0287944330 0 0
-0.0050392080 0.0293368220 0 0
-0.0056118090 0.0298740620 0 0
-0.0061198990 0.0303108120 0 1
-0.0064963150 0.0305617360 0 1
-0.0066819820 0.0305600460 0 1
-0.0066322940 0.0302656650 0 1
-0.0063227630 0.0296709560 0 0
-0.0057526080 0.0288019960 0 0
-0.0049462150 0.0277150340 0 0
-0.0039518420 0.0264893760 0 0
-0.0028368630 0.0252187350 0 0
-0.0016799270 0.0240024800 0 0
-0.0005614920 0.0229368200 0 0
0.0004452130 0.0221056650 0 0
0.0012806670 0.0215717210 0 0
0.0019023860 0.0213694020 0 0
0.0022861190 0.0215015190 0 0
0.0024256240 0.0219407030 0 0
0.0023309670 0.0226342800 0 0
0.0020257360 0.0235100350 0 0
0.0015443550 0.0244811150 0 0
0.0009307350 0.0254506010 0 0
0.0002380760 0.0263171680 0 0
-0.0004724930 0.0269822100 0 0
-0.0011368170 0.0273581190 0 0
-0.0016957870 0.0273776240 0 0
-0.0021030150 0.0270035490 0 0
-0.0023289380 0.0262367440 0 0
-0.0023621860 0.0251193770 0 0
-0.0022111560 0.0237323290 0 0
-0.0019057250 0.0221875580 0 0
-0.0014961660 0.0206171630 0 0
-0.0010482240 0.0191603650 0 0
-0.0006364560 0.0179492830 0 0
-0.0003373530 0.0170948660 0 0
-0.0002215550 0.0166748060 0 0
-0.0003446010 0.0167249170 0 0
-0.0007376710 0.0172346720 0 0
-0.0014008120 0.0181465050 0 0
-0.0023003330 0.0193584850 0 0
-0.0033707450 0.0207314430 0 0
-0.0045207600 0.0221020620 0 0
-0.0056431820 0.0233017630 0 0
-0.0066285940 0.0241784280 0 0
-0.0073812200 0.0246164800 0 0
-0.0078337680 0.0245513260 0 0
-0.0079577270 0.0239760350 0 0
-0.0077663920 0.0229400020 0 0
-0.0073094930 0.0215405250 0 0
-0.0066606250 0.0199092240 0 0
-0.0059015570 0.0181959830 0 0
-0.0051093500 0.0165525350 0 0
-0.0043506900 0.0151167460 0 0
-0.0036825620 0.0139988030 0 0
-0.0031537340 0.0132713340 0 0
-0.0028023560 0.0129648650 0 0
-0.0026503760 0.0130686250 0 0
-0.0026992420 0.0135351950 0 0
-0.0029301910 0.0142866440 0 0
-0.0033087710 0.0152212020 0 0
-0.0037910060 0.0162213820 0 0
-0.0043285250 0.0171642390 0 0
-0.0048712190 0.0179329510 0 0
-0.0053685460 0.0184281490 0 0
-0.0057722740 0.0185774390 0 0
-0.0060421930 0.0183421550 0 0
-0.0061531510 0.0177210490 0 0
-0.0060997360 0.0167505270 0 0
-0.0058962830 0.0155011370 0 0
-0.0055730820 0.0140710230 0 0
-0.0051710120 0.0125773290 0 0
-0.0047361130 0.0111459180 0 0
-0.0043150680 0.0098998490 0 0
-0.0039522050 0.0089481400 0 0
-0.0036870960 0.0083761290 0 0
-0.0035508470 0.0082368820 0 0
-0.0035609420 0.0085427950 0 0
-0.0037170220 0.0092592300 0 0
-0.0039999690 0.0103041500 0 0
-0.0043745740 0.0115559570 0 0
-0.0047946800 0.0128682450 0 0
-0.0052094510 0.0140888670 0 0
-0.0055693200 0.0150805520 0 0
-0.0058308770 0.0157392990 0 0
-0.0059606510 0.0160065480 0 0
-0.0059371210 0.0158728550 0 0
-0.0057505660 0.0153732770 0 0
-0.0054024810 0.0145766730 0 0
-0.0049060860 0.0135724270 0 0
-0.0042866430 0.0124577940 0 0
-0.0035803080 0.0113273240 0 0
-0.0028322350 0.0102649750 0 0
-0.0020939250 0.0093395500 0 0
-0.0014186320 0.0086029330 0 0
-0.0008554660 0.0080894440 0 0
-0.0004452170 0.0078158170 0 0
-0.0002196170 0.0077823530 0 0
-0.0002013110 0.0079743920 0 0
-0.0004002110 0.0083621110 0 0
-0.0008068620 0.0088985040 0 0
-0.0013885890 0.0095181100 0 0
-0.0020924930 0.0101393750 0 0
-0.0028537070 0.0106712960 0 0
-0.0036053850 0.0110231550 0 0
-0.0042884760 0.0111161490 0 0
-0.0048596100 0.0108958400 0 0
-0.0052950660 0.0103436820 0 0
-0.0055899950 0.0094846310 0 0
-0.0057540570 0.0083876060 0 0
-0.0058066210 0.0071575380 0 0
-0.0057748120 0.0059206220 0 0
-0.0056947550 0.0048059730 0 0
-0.0056135000 0.0039275370 0 0
-0.0055888960 0.0033704550 0 0
-0.0056854230 0.0031844440 0 0
-0.0059654770 0.0033835990 0 0
-0.0064784070 0.0039500810 0 0
-0.0072506200 0.0048393200 0 0
-0.0082786340 0.0059851210 0 0
-0.0095257580 0.0073040810 0 0
-0.0109234540 0.0087001960 0 0
-0.0123782240 0.0100704770 0 0
-0.0137828940 0.0113110250 0 0
-0.0150297030 0.0123231670 0 0
-0.0160230220 0.0130207200 0 0
-0.0166901320 0.0133389110 0 0
-0.0169885880 0.0132435660 0 0
-0.0169091450 0.0127384900 0 0
-0.0164742590 0.0118691880 0 0
-0.0157330150 0.0107212170 0 0
-0.0147538290 0.0094122660 0 0
-0.0136168280 0.0080788630 0 0
-0.0124083670 0.0068602440 0 0
-0.0112177390 0.0058826120 0 0
-0.0101320930 0.0052461090 0 0
-0.0092269750 0.0050152160 0 0
-0.0085560250 0.0052128140 0 0
-0.0081451290 0.0058185280 0 0
-0.0079916250 0.0067718580 0 0
-0.0080658900 0.0079797870 0 0
-0.0083151490 0.0093273340 0 0
-0.0086715400 0.0106890230 0 0
-0.0090640720 0.0119400470 0 0
-0.0094311870 0.0129668010 0 0
-0.0097297880 0.0136766210 0 0
-0.0099376680 0.0140063510 0 0
-0.0100495580 0.0139291740 0 0
-0.0100708260 0.0134587650 0 0
-0.0100135030 0.0126493110 0 0
-0.0098954770 0.0115902060 0 0
-0.0097390650 0.0103959310 0 0
-0.0095659650 0.0091929540 0 0
-0.0093910830 0.0081055730 0 0
-0.0092203090 0.0072423530 0 0
-0.0090539310 0.0066847340 0 0
-0.0088924140 0.0064792080 0 0
-0.0087399840 0.0066336070 0 0
-0.0086048970 0.0071174400 0 0
-0.0084979130 0.0078661490 0 0
-0.0084292700 0.0087889970 0 0
-0.0084041320 0.0097798310 0 0
-0.0084181870 0.0107290650 0 0
-0.0084551000 0.0115345980 0 0
-0.0084866450 0.0121103840 0 0
-0.0084765650 0.0123928840 0 0
-0.0083885070 0.0123458080 0 0
-0.0081956610 0.0119631120 0 0
-0.0078878960 0.0112698260 0 0
-0.0074737230 0.0103197180 0 0
-0.0069779270 0.0091891280 0 0
-0.0064369870 0.0079684730 0 0
-0.0058932010 0.0067539780 0 0
-0.0053883430 0.0056410010 0 0
-0.0049587900 0.0047184230 0 0
-0.0046332280 0.0040627850 0 0
-0.0044315110 0.0037312540 0 0
-0.0043622860 0.0037532780 0 0
-0.0044193950 0.0041224050 0 0
-0.0045803590 0.0047914960 0 0
-0.0048099980 0.0056744630 0 0
-0.0050682890 0.0066556070 0 0
-0.0053186120 0.0076050960 0 0
-0.0055332040 0.0083973260 0 0
-0.0056946890 0.0089283050 0 0
-0.0057940420 0.0091287880 0 0
-0.0058263300 0.0089715500 0 0
-0.0057869090 0.0084729540 0 0
-0.0056711130 0.0076893090 0 0
-0.0054782230 0.0067083390 0 0
-0.0052174240 0.0056373500 0 0
-0.0049117100 0.0045905560 0 0
-0.0045960220 0.0036769980 0 0
-0.0043096160 0.0029894010 0 0
-0.0040876870 0.0025943350 0 0
-0.0039569990 0.0025248030 0 0
-0.0039355390 0.0027773940 0 0
-0.0040340120 0.0033154610 0 0
-0.0042575920 0.0040775420 0 0
-0.0046065290 0.0049883810 0 0
-0.0050752450 0.0059694390 0 0
-0.0056509100 0.0069463760 0 0
-0.0063118780 0.0078523350 0 0
-0.0070253840 0.0086276380 0 0
-0.0077456430 0.0092177850 0 0
-0.0084151610 0.0095722410 0 0
-0.0089712920 0.0096465490 0 0
-0.0093576490 0.0094090150 0 0
-0.0095367140 0.0088501130 0 0
-0.0094982210 0.0079903420 0 0
-0.0092601060 0.0068830570 0 0
-0.0088630420 0.0056112370 0 0
-0.0083619810 0.0042786820 0 0
-0.0078175330 0.0029973510 0 0
-0.0072877230 0.0018734060 0 0
-0.0068206420 0.0009944140 0 0
-0.0064498960 0.0004194680 0 0
-0.0061932390 0.0001737770 0 0
-0.0060527430 0.0002486660 0 0
-0.0060159000 0.0006064050 0 0
-0.0060577810 0.0011874410 0 0
-0.0061430940 0.0019169540 0 0
-0.0062279430 0.0027090630 0 0
-0.0062638250 0.0034702460 0 0
-0.0062053680 0.0041054820 0 0
-0.0060190040 0.0045285190 0 0
-0.0056885800 0.0046736960 0 0
-0.0052171760 0.0045054500 0 0
-0.0046265910 0.0040234700 0 0
-0.0039548460 0.0032634240 0 0
-0.0032513140 0.0022935440 0 0
-0.0025702760 0.0012072200 0 0
-0.0019645740 0.0001122090 0 0
-0.0014806980 -0.0008823020 0 0
-0.0011557130 -0.0016788740 0 0
-0.0010155610 -0.0022027520 0 0
-0.0010740890 -0.0024087240 0 0
-0.0013330430 -0.0022834330 0 0
-0.0017827570 -0.0018441580 0 0
-0.0024017620 -0.0011361470 0 0
-0.0031546780 -0.0002298310 0 0
-0.0039909360 0.0007830330 0 0
-0.0048475990 0.0017958790 0 0
-0.0056571650 0.0026966210 0 0
-0.0063580390 0.0033786910 0 0
-0.0069038160 0.0037523860 0 0
-0.0072684590 0.0037546220 0 0
-0.0074466530 0.0033555020 0 0
-0.0074506500 0.0025610000 0 0
-0.0073058990 0.0014118930 0 0
-0.0070471300 -0.0000204170 0 0
-0.0067156510 -0.0016407470 0 0
-0.0063581110 -0.0033396620 0 0
-0.0060255920 -0.0050049170 0 0
-0.0057712910 -0.0065329260 0 0
-0.0056464320 -0.0078384050 0 0
-0.0056946020 -0.0088610670 0 0
-0.0059446410 -0.0095691420 0 0
-0.0064042180 -0.0099602600 0 0
-0.0070570890 -0.0100605230 0 0
-0.0078643480 -0.0099218570 0 0
-0.0087677350 -0.0096167340 0 0
-0.0096940650 -0.0092299320 0 0
-0.0105616070 -0.0088487340 0 0
-0.0112884290 -0.0085533530 0 0
-0.0118008360 -0.0084087560 0 0
-0.0120410610 -0.0084589060 0 0
-0.0119751650 -0.0087242560 0 0
-0.0116013330 -0.0092021110 0 0
-0.0109554600 -0.0098687520 0 0
-0.0101090070 -0.0106826440 0 0
-0.0091579900 -0.0115880690 0 0
-0.0082081290 -0.0125186980 0 0
-0.0073618520 -0.0134018680 0 0
-0.0067084880 -0.0141649910 0 0
-0.0063158870 -0.0147444610 0 0
-0.0062228820 -0.0150955900 0 0
-0.0064342840 -0.0152008660 0 0
-0.0069202300 -0.0150735150 0 0
-0.0076206890 -0.0147548230 0 0
-0.0084552820 -0.0143064850 0 0
-0.0093366980 -0.0138011270 0 0
-0.0101833840 -0.0133135600 0 0
-0.0109268420 -0.0129134770 0 0
-0.0115124720 -0.0126595060 0 0
-0.0118972430 -0.0125948230 0 0
-0.0120483510 -0.0127441370 0 0
-0.0119452790 -0.0131115960 0 0
-0.0115851350 -0.0136797470 0 0
-0.0109881350 -0.0144101280 0 0
-0.0101996230 -0.0152464370 0 0
-0.0092877490 -0.0161209850 0 0
-0.0083373090 -0.0169629830 0 0
-0.0074403620 -0.0177053420 0 0
-0.0066858950 -0.0182880200 0 0
-0.0061509150 -0.0186594980 0 0
-0.0058927720 -0.0187798720 0 0
-0.0059413360 -0.0186273880 0 0
-0.0062916060 -0.0182061730 0 0
-0.0069003250 -0.0175506580 0 0
-0.0076905730 -0.0167241940 0 0
-0.0085641670 -0.0158128350 0 0
-0.0094180040 -0.0149157970 0 0
-0.0101607560 -0.0141330440 0 0
-0.0107270120 -0.0135512680 0 0
-0.0110850700 -0.0132312930 0 0
-0.0112365300 -0.0131999450 0 0
-0.0112099680 -0.0134479080 0 0
-0.0110516830 -0.0139334630 0 0
-0.0108146220 -0.0145905900 0 0
-0.0105469770 -0.0153387620 0 0
-0.0102831890 -0.0160917930 0 0
-0.0100403020 -0.0167646540 0 0
-0.0098221080 -0.0172790310 0 0
-0.0096303180 -0.0175691620 0 0
-0.0094760780 -0.0175885980 0 0
-0.0093838870 -0.0173167530 0 0
-0.0093865320 -0.0167633450 0 0
-0.0095156100 -0.0159692770 0 0
-0.0097917830 -0.0150029210 0 0
-0.0102164750 -0.0139514100 0 0
-0.0107663980 -0.0129087870 0 0
-0.0113926390 -0.0119646380 0 0
-0.0120247160 -0.0111960830 0 0
-0.0125779460 -0.0106634370 0 0
-0.0129626060 -0.0104079300 0 0
-0.0130951930 -0.0104498580 0 0
-0.0129117130 -0.0107871760 0 0
-0.0123800940 -0.0113954310 0 0
-0.0115078910 -0.0122291750 0 0
-0.0103432520 -0.0132244370 0 0
-0.0089694360 -0.0143027900 0 0
-0.0074949790 -0.0153775060 0 0
-0.0060425270 -0.0163609270 0 0
-0.0047383160 -0.0171718360 0 0
-0.0037016590 -0.0177423240 0 0
-0.0030329350 -0.0180241280 0 0
-0.0028009790 -0.0179940740 0 0
-0.0030332360 -0.0176575720 0 0
-0.0037120730 -0.0170488390 0 0
-0.0047788010 -0.0162277170 0 0
-0.0061445660 -0.0152742070 0 0
-0.0077053160 -0.0142820250 0 0
-0.0093563720 -0.0133516670 0 0
-0.0110020720 -0.0125822350 0 0
-0.0125592600 -0.0120612740 0 0
-0.0139569530 -0.0118537770 0 0
-0.0151360000 -0.0119930270 0 0
-0.0160517610 -0.0124756090 0 0
-0.0166793380 -0.0132611960 0 0
-0.0170171600 -0.0142764760 0 0
-0.0170864180 -0.0154227900 0 0
-0.0169285880 -0.0165870140 0 0
-0.0166037500 -0.0176539420 0 0
-0.0161883900 -0.0185176710 0 0
-0.0157689370 -0.0190902810 0 0
-0.0154299460 -0.0193077270 0 0
-0.0152406490 -0.0191341600 0 0
-0.0152453510 -0.0185659340 0 0
-0.0154603990 -0.0176349340 0 0
-0.0158761580 -0.0164091230 0 0
-0.0164601640 -0.0149880890 0 0
-0.0171594220 -0.0134935290 0 0
-0.0179028790 -0.0120572230 0 0
-0.0186059400 -0.0108092750 0 0
-0.0191779990 -0.0098671980 0 0
-0.0195327350 -0.0093252170 0 0
-0.0195996170 -0.0092445670 0 0
-0.0193334550 -0.0096467440 0 0
-0.0187186420 -0.0105106260 0 0
-0.0177679670 -0.0117729080 0 0
-0.0165193940 -0.0133319970 0 0
-0.0150338950 -0.0150568960 0 0
-0.0133944880 -0.0168014030 0 0
-0.0117036890 -0.0184211410 0 0
-0.0100752900 -0.0197897370 0 0
-0.0086190060 -0.0208111390 0 0
-0.0074224720 -0.0214263350 0 0
-0.0065380490 -0.0216144110 0 0
-0.0059784220 -0.0213894810 0 0
-0.0057197380 -0.0207960490 0 0
-0.0057091350 -0.0199048240 0 0
-0.0058746380 -0.0188089550 0 0
-0.0061361280 -0.0176188680 0 0
-0.0064153400 -0.0164538960 0 0
-0.0066430810 -0.0154307460 0 0
-0.0067636410 -0.0146506290 0 0
-0.0067373100 -0.0141871170 0 0
-0.0065416720 -0.0140767540 0 0
-0.0061729020 -0.0143145430 0 0
-0.0056480120 -0.0148551920 0 0
-0.0050066640 -0.0156190720 0 0
-0.0043097940 -0.0165012090 0 0
-0.0036340640 -0.0173828820 0 0
-0.0030636250 -0.0181460610 0 0
-0.0026809190 -0.0186890110 0 0
-0.0025567380 -0.0189393710 0 0
-0.0027398320 -0.0188620740 0 0
-0.0032479120 -0.0184618610 0 0
-0.0040624670 -0.0177812210 0 0
-0.0051288530 -0.0168947880 0 0
-0.0063620850 -0.0159014480 0 0
-0.0076574900 -0.0149150210 0 0
-0.0089040250 -0.0140534670 0 0
-0.0099971740 -0.0134268100 0 0
-0.0108487480 -0.0131248240 0 0
-0.0113926980 -0.0132060030 0 0
-0.0115878350 -0.0136898940 0 0
-0.0114194930 -0.0145543160 0 0
-0.0109022160 -0.0157370630 0 0
-0.0100833770 -0.0171407010 0 0
-0.0090441010 -0.0186399090 0 0
-0.0078927130 -0.0200916030 0 0
-0.0067500630 -0.0213478620 0 0
-0.0057317640 -0.0222711100 0 0
-0.0049329250 -0.0227503680 0 0
-0.0044173630 -0.0227165610 0 0
-0.0042122060 -0.0221540330 0 0
-0.0043100000 -0.0211050850 0 0
-0.0046781400 -0.0196656930 0 0
-0.0052702560 -0.0179736360 0 0
-0.0060332190 -0.0161920910 0 0
-0.0069085070 -0.0144910690 0 0
-0.0078318480 -0.0130287260 0 0
-0.0087352810 -0.0119350420 0 0
-0.0095526530 -0.0112995380 0 0
-0.0102272710 -0.0111636520 0 0
-0.0107193790 -0.0115181740 0 0
-0.0110109170 -0.0123057570 0 0
-0.0111062020 -0.0134284490 0 0
-0.0110295700 -0.0147599620 0 0
-0.0108221380 -0.0161609380 0 0
-0.0105379790 -0.0174940130 0 0
-0.0102376670 -0.0186362950 0 0
-0.0099779970 -0.0194886330 0 0
-0.0098004860 -0.0199817240 0 0
-0.0097243020 -0.0200791760 0 0
-0.0097469420 -0.0197778570 0 0
-0.0098496700 -0.0191059030 0 0
-0.0100028140 -0.0181188860 0 0
-0.0101699340 -0.0168950090 0 0
-0.0103119950 -0.0155293920 0 0
-0.0103918200 -0.0141266480 0 0
-0.0103784270 -0.0127917920 0 0
-0.0102512250 -0.0116207690 0 0
-0.0100046020 -0.0106917760 0 0
-0.0096520630 -0.0100580350 0 0
-0.0092270820 -0.0097428120 0 0
-0.0087788410 -0.0097373340 0 0
-0.0083639670 -0.0100017770 0 0
-0.0080372310 -0.0104694980 0 0
-0.0078442020 -0.0110545560 0 0
-0.0078165410 -0.0116619080 0 0
-0.0079685890 -0.0121989500 0 0
-0.0082954610 -0.0125867010 0 0
-0.0087752680 -0.0127686250 0 0
-0.0093759780 -0.0127157900 0 0
-0.0100624340 -0.0124281480 0 0
-0.0107993970 -0.0119324980 0 0
-0.0115518160 -0.0112781080 0 0
-0.0122850210 -0.0105309750 0 0
-0.0129642050 -0.0097674950 0 0
-0.0135522450 -0.0090683410 0 0
-0.0140086040 -0.0085130710 0 0
-0.0142921440 -0.0081750130 0 0
-0.0143662450 -0.0081152190 0 0
-0.0142028430 -0.0083749510 0 0
-0.0137855200 -0.0089678580 0 0
-0.0131137330 -0.0098738070 0 0
-0.0122073240 -0.0110364180 0 0
-0.0111078290 -0.0123661140 0 0
-0.0098749830 -0.0137487230 0 0
-0.0085799260 -0.0150576780 0 0
-0.0072977660 -0.0161677980 0 0
-0.0061010990 -0.0169689180 0 0
-0.0050538540 -0.0173771530 0 0
-0.0042042930 -0.0173420600 0 0
-0.0035783600 -0.0168500420 0 0
-0.0031761060 -0.0159257930 0 0
-0.0029726630 -0.0146324040 0 0
-0.0029232750 -0.0130688500 0 0
-0.0029706350 -0.0113635030 0 0
-0.0030522110 -0.0096638580 0 0
-0.0031060790 -0.0081235570 0 0
-0.0030761250 -0.0068870110 0 0
-0.0029185900 -0.0060722570 0 0
-0.0026097480 -0.0057550290 0 0
-0.0021518090 -0.0059580870 0 0
-0.0015739640 -0.0066483660 0 0
-0.0009275500 -0.0077424760 0 0
-0.0002773860 -0.0091187840 0 0
0.0003066040 -0.0106325150 0 0
0.0007548190 -0.0121304930 0 0
0.0010017530 -0.0134638950 0 0
0.0009903100 -0.0144990310 0 0
0.0006768020 -0.0151272260 0 0
0.0000358597 -0.0152747700 0 0
-0.0009353220 -0.0149119340 0 0
-0.0022145760 -0.0140584140 0 0
-0.0037551940 -0.0127831000 0 0
-0.0054890620 -0.0111976160 0 0
-0.0073313910 -0.0094442310 0 0
-0.0091855960 -0.0076797790 0 0
-0.0109483270 -0.0060580000 0 0
-0.0125164610 -0.0047125790 0 0
-0.0137969770 -0.0037427780 0 0
-0.0147174000 -0.0032035740 0 0
-0.0152335780 -0.0031018720 0 0
-0.0153336620 -0.0033989740 0 0
-0.0150388700 -0.0040184260 0 0
-0.0144010740 -0.0048579200 0 0
-0.0134961300 -0.0058034210 0 0
-0.0124128960 -0.0067432110 0 0
-0.0112408140 -0.0075798380 0 0
-0.0100601210 -0.0082387990 0 0
-0.0089365750 -0.0086734670 0 0
-0.0079201200 -0.0088660090 0 0
-0.0070456770 -0.0088246430 0 0
-0.0063341130 -0.0085788300 0 0
-0.0057926050 -0.0081748670 0 0
-0.0054143440 -0.0076730630 0 0
-0.0051779430 -0.0071450670 0 0
-0.0050485560 -0.0066693020 0 0
-0.0049829020 -0.0063242570 0 0
-0.0049374180 -0.0061806500 0 0
-0.0048760220 -0.0062931930 0 0
-0.0047743200 -0.0066925590 0 0
-0.0046196380 -0.0073783490 0 0
-0.0044086210 -0.0083141230 0 0
-0.0041448500 -0.0094268440 0 0
-0.0038384270 -0.0106138260 0 0
-0.0035082200 -0.0117576440 0 0
-0.0031845650 -0.0127444690 0 0
-0.0029084550 -0.0134794160 0 0
-0.0027260450 -0.0138957210 0 0
-0.0026810660 -0.0139590370 0 0
-0.0028077120 -0.0136692850 0 0
-0.0031248650 -0.0130608890 0 0
-0.0036314360 -0.0122000640 0 0
-0.0043029850 -0.0111775040 0 0
-0.0050914660 -0.0100971420 0 0
-0.0059305010 -0.0090642360 0 0
-0.0067457960 -0.0081757250 0 0
-0.0074668610 -0.0075135140 0 0
-0.0080358410 -0.0071395500 0 0
-0.0084120980 -0.0070909700 0 0
-0.0085742390 -0.0073751820 0 0
-0.0085218700 -0.0079673600 0 0
-0.0082770730 -0.0088124070 0 0
-0.0078828560 -0.0098304450 0 0
-0.0073962600 -0.0109240030 0 0
-0.0068785910 -0.0119860890 0 0
-0.0063881020 -0.0129091300 0 0
-0.0059768720 -0.0135947030 0 0
-0.0056894850 -0.0139630180 0 0
-0.0055614260 -0.0139603270 0 0
-0.0056174080 -0.0135631440 0 0
-0.0058707340 -0.0127791250 0 0
-0.0063239240 -0.0116449040 0 0
-0.0069695630 -0.0102223100 0 0
-0.0077900360 -0.0085950180 0 0
-0.0087556280 -0.0068659150 0 0
-0.0098217210 -0.0051528230 0 0
-0.0109271050 -0.0035800610 0 0
-0.0119961200 -0.0022662840 0 0
-0.0129460440 -0.0013119110 0 0
-0.0136980410 -0.0007894970 0 0
-0.0141880540 -0.0007377710 0 0
-0.0143747480 -0.0011577480 0 0
-0.0142434990 -0.0020097970 0 0
-0.0138066020 -0.0032130540 0 0
-0.0131005170 -0.0046494580 0 0
-0.0121809510 -0.0061732560 0 0
-0.0111160840 -0.0076252970 0 0
-0.0099781890 -0.0088502500 0 0
-0.0088350660 -0.0097135570 0 0
-0.0077434490 -0.0101149750 0 0
-0.0067457900 -0.0099976460 0 0
-0.0058705220 -0.0093532670 0 0
-0.0051344970 -0.0082235690 0 0
-0.0045454990 -0.0066969550 0 0
-0.0041034560 -0.0048990140 0 0
-0.0038000390 -0.0029781110 0 0
-0.0036170250 -0.0010899310 0 0
-0.0035254000 0.0006165510 0 0
-0.0034881400 0.0020125210 0 0
-0.0034672720 0.0030030480 0 0
-0.0034319230 0.0035385580 0 0
-0.0033633130 0.0036201290 0 0
-0.0032558990 0.0032975510 0 0
-0.0031164500 0.0026618200 0 0
-0.0029625800 0.0018333560 0 0
-0.0028214580 0.0009466580 0 0
-0.0027288880 0.0001333220 0 0
-0.0027275150 -0.0004934540 0 0
-0.0028626270 -0.0008501930 0 0
-0.0031756670 -0.0008892310 0 0
-0.0036969010 -0.0006002450 0 0
-0.0044385690 -0.0000088196 0 0
-0.0053889480 0.0008271190 0 0
-0.0065078290 0.0018231370 0 0
-0.0077258470 0.0028762070 0 0
-0.0089508340 0.0038739780 0 0
-0.0100806280 0.0047049660 0 0
-0.0110178540 0.0052693960 0 0
-0.0116828370 0.0054899770 0 0
-0.0120230520 0.0053211620 0 0
-0.0120182950 0.0047552320 0 0
-0.0116811370 0.0038240980 0 0
-0.0110530840 0.0025967270 0 0
-0.0101977900 0.0011731080 0 0
-0.0091927500 -0.0003245290 0 0
-0.0081203800 -0.0017636600 0 0
-0.0070596110 -0.0030163050 0 0
-0.0060791590 -0.0039743030 0 0
-0.0052325530 -0.0045617190 0 0
-0.0045553440 -0.0047422090 0 0
-0.0040659210 -0.0045205670 0 0
-0.0037699720 -0.0039387000 0 0
-0.0036659800 -0.0030675850 0 0
-0.0037476950 -0.0019982630 0 0
-0.0040013360 -0.0008342160 0 0
-0.0044004970 0.0003152620 0 0
-0.0049046090 0.0013425160 0 0
-0.0054629240 0.0021504950 0 0
-0.0060209220 0.0026622220 0 0
-0.0065256210 0.0028288790 0 0
-0.0069295450 0.0026348910 0 0
-0.0071952790 0.0020993720 0 0
-0.0073007210 0.0012737620 0 0
-0.0072423040 0.0002358220 0 0
-0.0070344310 -0.0009183460 0 0
-0.0067066780 -0.0020817500 0 0
-0.0063006120 -0.0031430740 0 0
-0.0058659000 -0.0039945610 0 0
-0.0054546180 -0.0045426030 0 0
-0.0051136950 -0.0047194020 0 0
-0.0048764910 -0.0044925860 0 0
-0.0047557480 -0.0038704050 0 0
-0.0047411580 -0.0029014920 0 0
-0.0048031490 -0.0016695880 0 0
-0.0049012680 -0.0002846480 0 0
-0.0049936730 0.0011280250 0 0
-0.0050445810 0.0024397440 0 0
-0.0050285690 0.0035309650 0 0
-0.0049324100 0.0043030870 0 0
-0.0047552760 0.0046874010 0 0
-0.0045073540 0.0046505830 0 0
-0.0042069190 0.0041978340 0 0
-0.0038770970 0.0033738410 0 0
-0.0035439950 0.0022601500 0 0
-0.0032357650 0.0009679320 0 0
-0.0029806010 -0.0003737810 0 0
-0.0028032340 -0.0016333200 0 0
-0.0027213370 -0.0026926940 0 0
-0.0027436130 -0.0034612780 0 0
-0.0028706640 -0.0038834620 0 0
-0.0030981600 -0.0039397960 0 0
-0.0034199520 -0.0036444130 0 0
-0.0038283410 -0.0030416820 0 0
-0.0043109020 -0.0022027620 0 0
-0.0048460920 -0.0012214190 0 0
-0.0054011480 -0.0002080560 0 0
-0.0059346630 0.0007194480 0 0
-0.0064031650 0.0014484860 0 0
-0.0067685080 0.0018863820 0 0
-0.0070028580 0.0019738280 0 0
-0.0070906670 0.0016936310 0 0
-0.0070292610 0.0010723220 0 0
-0.0068287690 0.0001747320 0 0
-0.0065104070 -0.0009059440 0 0
-0.0061028100 -0.0020597730 0 0
-0.0056376900 -0.0031719100 0 0
-0.0051462980 -0.0041340500 0 0
-0.0046579870 -0.0048549360 0 0
-0.0042017770 -0.0052690800 0 0
-0.0038097250 -0.0053427360 0 0
-0.0035183420 -0.0050764250 0 0
-0.0033651560 -0.0045041490 0 0
-0.0033815340 -0.0036898970 0 0
-0.0035850470 -0.0027215520 0 0
-0.0039734130 -0.0017025370 0 0
-0.0045210790 -0.0007421820 0 0
-0.0051803170 0.0000546273 0 0
-0.0058878170 0.0005985770 0 0
-0.0065746870 0.0008265050 0 0
-0.0071759240 0.0007082280 0 0
-0.0076369920 0.0002472340 0 0
-0.0079180930 -0.0005239130 0 0
-0.0079976710 -0.0015504950 0 0
-0.0078754620 -0.0027623400 0 0
-0.0075743170 -0.0040788300 0 0
-0.0071401780 -0.0054121510 0 0
-0.0066394110 -0.0066704100 0 0
-0.0061521000 -0.0077627590 0 0
-0.0057610600 -0.0086070780 0 0
-0.0055389160 -0.0091382720 0 0
-0.0055364540 -0.0093145490 0 0
-0.0057741490 -0.0091206350 0 0
-0.0062377210 -0.0085687470 0 0
-0.0068796040 -0.0076982560 0 0
-0.0076279930 -0.0065744370 0 0
-0.0084011010 -0.0052861350 0 0
-0.0091206540 -0.0039414990 0 0
-0.0097203570 -0.0026603700 0 0
-0.0101494210 -0.0015624510 0 0
-0.0103734140 -0.0007523560 0 0
-0.0103744700 -0.0003047420 0 0
-0.0101519340 -0.0002530520 0 0
-0.0097234010 -0.0005838850 0 0
-0.0091257130 -0.0012373970 0 0
-0.0084151050 -0.0021140150 0 0
-0.0076641590 -0.0030874250 0 0
-0.0069532280 -0.0040216950 0 0
-0.0063578500 -0.0047886260 0 0
-0.0059370240 -0.0052821750 0 0
-0.0057258820 -0.0054285290 0 0
-0.0057335530 -0.0051916960 0 0
-0.0059461630 -0.0045752720 0 0
-0.0063333420 -0.0036208980 0 0
-0.0068541130 -0.0024032590 0 0
-0.0074592120 -0.0010217100 0 0
-0.0080918650 0.0004103210 0 0
-0.0086914530 0.0017760020 0 0
-0.0092015990 0.0029641970 0 0
-0.0095793760 0.0038775160 0 0
-0.0098002220 0.0044405520 0 0
-0.0098565170 0.0046075680 0 0
-0.0097527470 0.0043674180 0 0
-0.0095007610 0.0037447260 0 0
-0.0091166610 0.0027977540 0 0
-0.0086208510 0.0016134100 0 0
-0.0080418210 0.0002996690 0 0
-0.0074205370 -0.0010243000 0 0
-0.0068102060 -0.0022399540 0 0
-0.0062697960 -0.0032421180 0 0
-0.0058549850 -0.0039509770 0 0
-0.0056109700 -0.0043216470 0 0
-0.0055688980 -0.0043494200 0 0
-0.0057454170 -0.0040691270 0 0
-0.0061433870 -0.0035488660 0 0
-0.0067515420 -0.0028799290 0 0
-0.0075426870 -0.0021649810 0 0
-0.0084725240 -0.0015063370 0 0
-0.0094818780 -0.0009956840 0 0
-0.0105020360 -0.0007057380 0 0
-0.0114605960 -0.0006839320 0 0
-0.0122871630 -0.0009483480 0 0
-0.0129205910 -0.0014863140 0 0
-0.0133177980 -0.0022560690 0 0
-0.0134612600 -0.0031912330 0 0
-0.0133619250 -0.0042067120 0 0
-0.0130562670 -0.0052045570 0 0
-0.0125984460 -0.0060800710 0 0
-0.0120500490 -0.0067302750 0 0
-0.0114708560 -0.0070657730 0 0
-0.0109130760 -0.0070237400 0 0
-0.0104180280 -0.0065780900 0 0
-0.0100133040 -0.0057444040 0 0
-0.0097111330 -0.0045788920 0 0
-0.0095092240 -0.0031717120 0 0
-0.0093928850 -0.0016363690 0 0
-0.0093370890 -0.0000978280 0 0
-0.0093089990 0.0013190190 0 0
-0.0092714510 0.0025005670 0 0
-0.0091872300 0.0033554310 0 0
-0.0090240790 0.0038238150 0 0
-0.0087599420 0.0038837330 0 0
-0.0083866400 0.0035536870 0 0
-0.0079107100 0.0028919530 0 0
-0.0073523760 0.0019918240 0 0
-0.0067442450 0.0009717010 0 0
-0.0061299960 -0.0000395529 0 0
-0.0055625220 -0.0009193530 0 0
-0.0050999070 -0.0015672710 0 0
-0.0047974530 -0.0019177530 0 0
-0.0046973910 -0.0019476140 0 0
-0.0048208100 -0.0016767500 0 0
-0.0051645600 -0.0011621260 0 0
-0.0057027340 -0.0004877680 0 0
-0.0063909490 0.0002457080 0 0
-0.0071712410 0.0009305440 0 0
-0.0079762640 0.0014608290 0 0
-0.0087339930 0.0017412700 0 0
-0.0093746980 0.0016954530 0 0
-0.0098394590 0.0012737170 0 0
-0.0100877450 0.0004604900 0 0
-0.0101030630 -0.0007205430 0 0
-0.0098972450 -0.0022053610 0 0
-0.0095126200 -0.0038933700 0 0
-0.0090195700 -0.0056555490 0 0
-0.0085086180 -0.0073463160 0 0
-0.0080784840 -0.0088188620 0 0
-0.0078219190 -0.0099427780 0 0
-0.0078117580 -0.0106207790 0 0
-0.0080901750 -0.0108008570 0 0
-0.0086631360 -0.0104816080 0 0
-0.0095009160 -0.0097105700 0 0
-0.0105441950 -0.0085770930 0 0
-0.0117128060 -0.0072017710 0 0
-0.0129137920 -0.0057239290 0 0
-0.0140483370 -0.0042882800 0 0
-0.0150192070 -0.0030323140 0 0
-0.0157390970 -0.0020760780 0 0
-0.0161387260 -0.0015142620 0 0
-0.0161737010 -0.0014088580 0 0
-0.0158291420 -0.0017819260 0 0
-0.0151210950 -0.0026103440 0 0
-0.0140949330 -0.0038249290 0 0
-0.0128212020 -0.0053153190 0 0
-0.0113886830 -0.0069406510 0 0
-0.0098952620 -0.0085443700 0 0
-0.0084387600 -0.0099703410 0 0
-0.0071094690 -0.0110781420 0 0
-0.0059843760 -0.0117562730 0 0
-0.0051222180 -0.0119318470 0 0
-0.0045596700 -0.0115758100 0 0
-0.0043106930 -0.0107041210 0 0
-0.0043697150 -0.0093754240 0 0
-0.0047153620 -0.0076854750 0 0
-0.0053113820 -0.0057590900 0 0
-0.0061058330 -0.0037402910 0 0
-0.0070315370 -0.0017809390 0 0
-0.0080089420 -0.0000282499 0 0
-0.0089517590 0.0013880840 0 0
-0.0097759340 0.0023679530 0 0
-0.0104103160 0.0028503090 0 0
-0.0108056020 0.0028182210 0 0
-0.0109404190 0.0022983680 0 0
-0.0108255660 0.0013553240 0 0
-0.0105050300 0.0000829354 0 0
-0.0100502330 -0.0014047070 0 0
-0.0095472830 -0.0029820900 0 0
-0.0090822780 -0.0045215300 0 0
-0.0087308150 -0.0059030080 0 0
-0.0085538550 -0.0070244660 0 0
-0.0085970450 -0.0078120550 0 0
-0.0088888210 -0.0082285930 0 0
-0.0094349240 -0.0082779870 0 0
-0.0102113710 -0.0080045270 0 0
-0.0111606570 -0.0074870560 0 0
-0.0121951260 -0.0068282130 0 0
-0.0132079340 -0.0061401410 0 0
-0.0140883450 -0.0055300760 0 0
-0.0147367400 -0.0050890380 0 0
-0.0150765090 -0.0048843840 0 0
-0.0150622300 -0.0049551060 0 0
-0.0146841420 -0.0053089830 0 0
-0.0139688230 -0.0059216390 0 0
-0.0129766370 -0.0067381180 0 0
-0.0117965480 -0.0076782060 0 0
-0.0105379570 -0.0086461840 0 0
-0.0093194150 -0.0095432630 0 0
-0.0082556810 -0.0102790540 0 0
-0.0074455550 -0.0107790470 0 0
-0.0069617960 -0.0109879600 0 0
-0.0068435600 -0.0108717250 0 0
-0.0070922240 -0.0104210250 0 0
-0.0076719670 -0.0096563990 0 0
-0.0085162400 -0.0086317170 0 0
-0.0095394540 -0.0074322910 0 0
-0.0106496330 -0.0061663950 0 0
-0.0117566160 -0.0049523430 0 0
-0.0127748440 -0.0039046400 0 0
-0.0136251690 -0.0031220380 0 0
-0.0142394070 -0.0026785260 0 0
-0.0145666570 -0.0026168050 0 0
-0.0145782300 -0.0029440240 0 0
-0.0142693270 -0.0036308400 0 0
-0.0136576540 -0.0046145580 0 0
-0.0127806630 -0.0058056610 0 0
-0.0116930950 -0.0070966440 0 0
-0.0104647700 -0.0083727760 0 0
-0.0091769030 -0.0095240530 0 0
-0.0079159570 -0.0104561180 0 0
-0.0067654730 -0.0110983150 0 0
-0.0057968100 -0.0114091420 0 0
-0.0050600480 -0.0113800940 0 0
-0.0045768550 -0.0110373780 0 0
-0.0043376140 -0.0104399380 0 0
-0.0043045490 -0.0096730850 0 0
-0.0044200790 -0.0088385390 0 0
-0.0046176790 -0.0080428800 0 0
-0.0048326620 -0.0073862970 0 0
-0.0050109330 -0.0069521340 0 0
-0.0051142240 -0.0067971910 0 0
-0.0051214730 -0.0069441880 0 0
-0.0050269730 -0.0073788180 0 0
-0.0048365380 -0.0080529270 0 0
-0.0045636340 -0.0088936390 0 0
-0.0042277350 -0.0098163210 0 0
-0.0038555810 -0.0107373530 0 0
-0.0034830440 -0.0115823840 0 0
-0.0031544370 -0.0122888180 0 0
-0.0029179010 -0.0128051860 0 0
-0.0028175720 -0.0130910870 0 0
-0.0028848000 -0.0131200010 0 0
-0.0031311140 -0.0128849930 0 0
-0.0035440810 -0.0124049980 0 0
-0.0040868110 -0.0117284620 0 0
-0.0047025880 -0.0109320910 0 0
-0.0053242430 -0.0101141640 0 0
-0.0058851620 -0.0093834890 0 0
-0.0063292800 -0.0088459260 0 0
-0.0066195540 -0.0085905260 0 0
-0.0067438800 -0.0086775960 0 0
-0.0067150720 -0.0091311790 0 0
-0.0065634980 -0.0099374160 0 0
-0.0063272120 -0.0110481730 0 0
-0.0060461340 -0.0123879610 0 0
-0.0057613390 -0.0138622460 0 0
-0.0055154290 -0.0153661720 0 0
-0.0053511980 -0.0167933050 0 0
-0.0053092940 -0.0180438830 0 0
-0.0054255600 -0.0190322770 0 0
-0.0057276720 -0.0196939250 0 0
-0.0062315490 -0.0199917410 0 0
-0.0069381350 -0.0199210630 0 0
-0.0078301960 -0.0195112450 0 0
-0.0088692270 -0.0188229240 0 0
-0.0099946800 -0.0179422290 0 0
-0.0111277890 -0.0169735680 0 0
-0.0121800170 -0.0160308750 0 0
-0.0130643770 -0.0152269580 0 0
-0.0137074580 -0.0146621740 0 0
-0.0140597110 -0.0144139730 0 0
-0.0141012730 -0.0145277500 0 0
-0.0138421340 -0.0150090980 0 0
-0.0133190260 -0.0158187110 0 0
-0.0125921170 -0.0168725570 0 0
-0.0117412720 -0.0180495700 0 0
-0.0108599940 -0.0192059310 0 0
-0.0100465840 -0.0201919780 0 0
-0.0093940230 -0.0208685680 0 0
-0.0089817250 -0.0211222550 0 0
-0.0088710890 -0.0208793590 0 0
-0.0091025820 -0.0201180310 0 0
-0.0096909670 -0.0188758020 0 0
-0.0106196440 -0.0172488270 0 0
-0.0118384490 -0.0153806430 0 0
-0.0132672560 -0.0134426790 0 0
-0.0148041800 -0.0116118560 0 0
-0.0163360140 -0.0100504670 0 0
-0.0177489190 -0.0088914050 0 0
-0.0189379870 -0.0082292220 0 0
-0.0198150230 -0.0081154450 0 0
-0.0203150600 -0.0085561890 0 0
-0.0204023370 -0.0095117080 0 0
-0.0200749520 -0.0108992390 0 0
-0.0193667520 -0.0126003740 0 0
-0.0183459110 -0.0144726980 0 0
-0.0171100380 -0.0163643220 0 0
-0.0157775500 -0.0181288540 0 0
-0.0144758360 -0.0196376770 0 0
-0.0133273530 -0.0207876770 0 0
-0.0124349470 -0.0215052520 0 0
-0.0118692470 -0.0217486890 0 0
-0.0116622690 -0.0215100120 0 0
-0.0118091300 -0.0208155910 0 0
-0.0122756120 -0.0197248020 0 0
-0.0130073810 -0.0183273330 0 0
-0.0139375360 -0.0167393300 0 0
-0.0149911290 -0.0150973680 0 0
-0.0160872570 -0.0135495030 0 0
-0.0171413270 -0.0122431260 0 0
-0.0180705480 -0.0113098720 0 0
-0.0188026140 -0.0108497070 0 0
-0.0192842720 -0.0109179490 0 0
-0.0194870500 -0.0115176460 0 0
-0.0194094360 -0.0125979320 0 0
-0.0190761150 -0.0140591030 0 0
-0.0185352530 -0.0157644680 0 0
-0.0178541150 -0.0175566970 0 0
-0.0171123930 -0.0192754790 0 0
-0.0163925860 -0.0207738910 0 0
-0.0157677040 -0.0219316120 0 0
-0.0152889000 -0.0226645380 0 0
-0.0149779540 -0.0229309680 0 0
-0.0148279880 -0.0227335850 0 0
-0.0148107240 -0.0221163630 0 0
-0.0148860510 -0.0211570450 0 0
-0.0150107270 -0.0199575510 0 0
-0.0151442290 -0.0186342500 0 0
-0.0152511470 -0.0173081420 0 0
-0.0153017130 -0.0160941890 0 0
-0.0152724170 -0.0150901740 0 0
-0.0151472380 -0.0143668230 0 0
-0.0149188210 -0.0139611980 0 0
-0.0145894070 -0.0138739520 0 0
-0.0141717100 -0.0140698230 0 0
-0.0136889490 -0.0144812610 0 0
-0.0131733050 -0.0150157880 0 0
-0.0126636240 -0.0155665060 0 0
-0.0122030050 -0.0160241330 0 0
-0.0118356340 -0.0162894490 0 0
-0.0116021090 -0.0162857610 0 0
-0.0115333310 -0.0159704770 0 0
-0.0116446160 -0.0153435310 0 0
-0.0119329500 -0.0144494340 0 0
-0.0123786780 -0.0133713050 0 0
-0.0129498840 -0.0122185140 0 0
-0.0136064110 -0.0111113740 0 0
-0.0143020130 -0.0101657520 0 0
-0.0149860330 -0.0094796080 0 0
-0.0156068930 -0.0091231990 0 0
-0.0161172230 -0.0091342430 0 0
-0.0164782160 -0.0095175800 0 0
-0.0166617750 -0.0102473580 0 0
-0.0166504790 -0.0112707880 0 0
-0.0164364420 -0.0125141370 0 0
-0.0160218650 -0.0138909590 0 0
-0.0154233800 -0.0153105390 0 0
-0.0146777890 -0.0166844850 0 0
-0.0138440680 -0.0179312350 0 0
-0.0129988620 -0.0189796570 0 0
-0.0122263230 -0.0197726530 0 0
-0.0116052890 -0.0202706410 0 0
-0.0111969940 -0.0204542580 0 0
-0.0110363530 -0.0203260520 0 0
-0.0111291310 -0.0199112540 0 0
-0.0114546310 -0.0192574340 0 0
-0.0119713620 -0.0184326360 0 0
-0.0126236320 -0.0175212770 0 0
-0.0133480360 -0.0166169690 0 0
-0.0140795470 -0.0158132120 0 0
-0.0147574770 -0.0151946510 0 0
-0.0153314620 -0.0148300340 0 0
-0.0157673070 -0.0147658610 0 0
-0.0160512550 -0.0150199630 0 0
-0.0161904800 -0.0155754520 0 0
-0.0162098180 -0.0163768810 0 0
-0.0161475550 -0.0173318010 0 0
-0.0160518480 -0.0183199010 0 0
-0.0159758550 -0.0192085730 0 0
-0.0159699300 -0.0198713990 0 0
-0.0160729690 -0.0202058960 0 0
-0.0163062860 -0.0201478880 0 0
-0.0166713200 -0.0196809710 0 0
-0.0171507370 -0.0188400690 0 0
-0.0177115910 -0.0177081300 0 0
-0.0183095120 -0.0164053090 0 0
-0.0188940770 -0.0150720760 0 0
-0.0194157140 -0.0138502240 0 0
-0.0198327430 -0.0128651560 0 0
-0.0201158000 -0.0122109480 0 0
-0.0202488050 -0.0119397310 0 0
-0.0202282640 -0.0120569430 0 0
-0.0200618980 -0.0125224980 0 0
-0.0197659230 -0.0132571260 0 0
-0.0193617080 -0.0141532570 0 0
-0.0188740870 -0.0150893220 0 0
-0.0183311910 -0.0159454900 0 0
-0.0177633260 -0.0166178870 0 0
-0.0172006130 -0.0170281680 0 0
-0.0166714830 -0.0171274180 0 0
-0.0162022690 -0.0168960240 0 0
-0.0158152820 -0.0163413790 0 0
-0.0155240540 -0.0154944180 0 0
-0.0153287760 -0.0144062290 0 0
-0.0152157800 -0.0131465640 0 0
-0.0151610840 -0.0118045570 0 0
-0.0151351150 -0.0104890660 0 0
-0.0151066950 -0.0093242670 0 0
-0.0150464420 -0.0084378120 0 0
-0.0149300450 -0.0079433750 0 0
-0.0147410730 -0.0079229680 0 0
-0.0144731150 -0.0084138750 0 0
-0.0141316960 -0.0094026340 0 0
-0.0137357080 -0.0108266230 0 0
-0.0133171200 -0.0125820070 0 0
-0.0129177630 -0.0145350300 0 0
-0.0125832430 -0.0165340860 0 0
-0.0123557530 -0.0184224210 0 0
-0.0122686890 -0.0200524240 0 0
-0.0123444750 -0.0213008460 0 0
-0.0125945440 -0.0220819350 0 0
-0.0130199000 -0.0223550650 0 0
-0.0136114390 -0.0221256850 0 0
-0.0143494050 -0.0214412750 0 0
-0.0152018210 -0.0203846940 0 0
-0.0161231370 -0.0190659250 0 0
-0.0170554900 -0.0176122190 0 0
-0.0179335770 -0.0161566560 0 0
-0.0186913470 -0.0148256520 0 0
-0.0192685710 -0.0137266950 0 0
-0.0196174810 -0.0129376240 0 0
-0.0197099040 -0.0124983670 0 0
-0.0195430780 -0.0124064220 0 0
-0.0191417420 -0.0126177530 0 0
-0.0185560180 -0.0130533100 0 0
-0.0178556570 -0.0136089990 0 0
-0.0171215100 -0.0141666960 0 0
-0.0164359570 -0.0146055940 0 0
-0.0158737690 -0.0148139320 0 0
-0.0154942800 -0.0147006110 0 0
-0.0153359270 -0.0142057250 0 0
-0.0154137880 -0.0133090160 0 0
-0.0157195620 -0.0120349970 0 0
-0.0162233630 -0.0104533220 0 0
-0.0168773490 -0.0086736110 0 0
-0.0176209550 -0.0068349780 0 0
-0.0183868980 -0.0050915300 0 0
-0.0191074340 -0.0035961340 0 0
-0.0197207110 -0.0024848020 0 0
-0.0201767190 -0.0018629160 0 0
-0.0204420020 -0.0017941930 0 0
-0.0205020310 -0.0022940720 0 0
-0.0203599880 -0.0033289910 0 0
-0.0200326850 -0.0048209940 0 0
-0.0195470290 -0.0066555480 0 0
-0.0189393140 -0.0086909970 0 0
-0.0182557140 -0.0107694470 0 0
-0.0175511640 -0.0127287130 0 0
-0.0168854130 -0.0144142170 0 0
-0.0163164620 -0.0156897680 0 0
-0.0158929250 -0.0164470260 0 0
-0.0156477410 -0.0166143700 0 0
-0.0155946080 -0.0161654960 0 0
-0.0157270010 -0.0151265280 0 0
-0.0160191270 -0.0135791000 0 0
-0.0164283130 -0.0116568700 0 0
-0.0168988590 -0.0095341470 0 0
-0.0173671220 -0.0074075690 0 0
-0.0177668260 -0.0054742510 0 0
-0.0180341400 -0.0039107510 0 0
-0.0181134140 -0.0028559360 0 0
-0.0179641440 -0.0023990000 0 0
-0.0175676970 -0.0025728380 0 0
-0.0169313950 -0.0033526250 0 0
-0.0160885960 -0.0046592040 0 0
-0.0150950800 -0.0063669840 0 0
-0.0140229150 -0.0083161500 0 0
-0.0129535370 -0.0103285390 0 0
-0.0119712170 -0.0122256690 0 0
-0.0111558090 -0.0138466470 0 0
-0.0105730780 -0.0150631680 0 0
-0.0102642800 -0.0157896980 0 0
-0.0102393600 -0.0159888850 0 0
-0.0104766970 -0.0156727080 0 0
-0.0109287530 -0.0148990230 0 0
-0.0115303280 -0.0137636590 0 0
-0.0122061960 -0.0123888980 0 0
-0.0128774130 -0.0109092380 0 0
-0.0134671480 -0.0094562380 0 0
-0.0139064200 -0.0081451290 0 0
-0.0141403240 -0.0070649140 0 0
-0.0141349580 -0.0062722900 0 0
-0.0138825450 -0.0057897920 0 0
-0.0134008610 -0.0056082940 0 0
-0.0127261990 -0.0056923220 0 0
-0.0119040650 -0.0059859960 0 0
-0.0109829390 -0.0064188620 0 0
-0.0100120800 -0.0069123030 0 0
-0.0090406550 -0.0073868430 0 0
-0.0081175510 -0.0077693020 0 0
-0.0072936880 -0.0079981470 0 0
-0.0066254870 -0.0080264370 0 0
-0.0061739370 -0.0078233740 0 0
-0.0059957190 -0.0073761950 0 0
-0.0061290710 -0.0066932830 0 0
-0.0065811490 -0.0058076430 0 0
-0.0073230830 -0.0047783720 0 0
-0.0082942680 -0.0036874910 0 0
-0.0094121030 -0.0026313110 0 0
-0.0105822090 -0.0017081810 0 0
-0.0117074680 -0.0010057880 0 0
-0.0126967270 -0.0005910760 0 0
-0.0134737190 -0.0005051430 0 0
-0.0139859440 -0.0007630980 0 0
-0.0142121260 -0.0013559900 0 0
-0.0141654150 -0.0022521570 0 0
-0.0138903910 -0.0033980970 0 0
-0.0134549800 -0.0047206570 0 0
-0.0129405990 -0.0061314540 0 0
-0.0124330110 -0.0075334490 0 0
-0.0120139340 -0.0088294380 0 0
-0.0117526590 -0.0099315070 0 0
-0.0116988590 -0.0107697050 0 0
-0.0118782970 -0.0112988400 0 0
-0.0122912410 -0.0115033520 0 0
-0.0129125430 -0.0114002280 0 0
-0.0136932060 -0.0110388650 0 0
-0.0145637380 -0.0104965820 0 0
-0.0154394640 -0.0098699000 0 0
-0.0162280640 -0.0092629260 0 0
-0.0168396630 -0.0087740410 0 0
-0.0171992480 -0.0084820550 0 0
-0.0172592980 -0.0084340380 0 0
-0.0170085520 -0.0086382420 0 0
-0.0164742100 -0.0090642050 0 0
-0.0157173800 -0.0096490790 0 0
-0.0148223590 -0.0103081530 0 0
-0.0138822720 -0.0109477320 0 0
-0.0129855490 -0.0114778580 0 0
-0.0122059190 -0.0118220770 0 0
-0.0115960100 -0.0119228650 0 0
-0.0111841240 -0.0117440110 0 0
-0.0109736990 -0.0112729710 0 0
-0.0109449350 -0.0105250410 0 0
-0.0110583470 -0.0095476500 0 0
-0.0112602860 -0.0084207420 0 0
-0.0114907430 -0.0072505370 0 0
-0.0116931490 -0.0061577400 0 0
-0.0118230540 -0.0052631350 0 0
-0.0118511070 -0.0046731790 0 0
-0.0117598960 -0.0044676620 0 0
-0.0115398780 -0.0046904870 0 0
-0.0111896360 -0.0053433740 0 0
-0.0107205010 -0.0063828830 0 0
-0.0101607530 -0.0077225620 0 0
-0.0095548980 -0.0092417800 0 0
-0.0089584440 -0.0108006570 0 0
-0.0084318600 -0.0122580170 0 0
-0.0080354920 -0.0134884710 0 0
-0.0078239520 -0.0143956770 0 0
-0.0078386130 -0.0149203420 0 0
-0.0080995980 -0.0150432380 0 0
-0.0086001600 -0.0147843350 0 0
-0.0093058110 -0.0141986470 0 0
-0.0101592350 -0.0133691240 0 0
-0.0110897890 -0.0123973580 0 0
-0.0120247230 -0.0113928600 0 0
-0.0128988090 -0.0104617340 0 0
-0.0136599990 -0.0096966300 0 0
-0.0142709950 -0.0091701330 0 0
-0.0147087170 -0.0089313770 0 0
-0.0149636760 -0.0090037030 0 0
-0.0150391940 -0.0093821470 0 0
-0.0149488520 -0.0100318290 0 0
-0.0147119790 -0.0108894820 0 0
-0.0143498340 -0.0118694860 0 0
-0.0138853110 -0.0128734570 0 0
-0.0133463160 -0.0138013820 0 0
-0.0127700900 -0.0145627720 0 0
-0.0122047480 -0.0150862010 0 0
-0.0117060360 -0.0153254720 0 0
-0.0113301550 -0.0152617710 0 0
-0.0111245440 -0.0149029270 0 0
-0.0111182000 -0.0142813350 0 0
-0.0113140420 -0.0134513000 0 0
-0.0116864970 -0.0124857290 0 0
-0.0121856650 -0.0114713680 0 0
-0.0127462120 -0.0105017030 0 0
-0.0132970120 -0.0096678430 0 0
-0.0137684240 -0.0090487100 0 0
-0.0140977890 -0.0087017780 0 0
-0.0142359860 -0.0086553940 0 0
-0.0141553240 -0.0089041400 0 0
-0.0138559960 -0.0094087880 0 0
-0.0133683440 -0.0101012460 0 0
-0.0127495830 -0.0108935260 0 0
-0.0120748200 -0.0116893430 0 0
-0.0114246370 -0.0123963240 0 0
-0.0108733110 -0.0129360210 0 0
-0.0104808240 -0.0132499410 0 0
-0.0102890660 -0.0133024130 0 0
-0.0103208610 -0.0130824220 0 0
-0.0105804880 -0.0126054240 0 0
-0.0110549860 -0.0119137070 0 0
-0.0117154350 -0.0110729200 0 0
-0.0125185300 -0.0101644500 0 0
-0.0134104440 -0.0092762670 0 0
-0.0143333500 -0.0084950830 0 0
-0.0152317020 -0.0079003460 0 0
-0.0160554380 -0.0075590540 0 0
-0.0167601320 -0.0075205560 0 0
-0.0173060520 -0.0078113790 0 0
-0.0176585300 -0.0084310350 0 0
-0.0177915940 -0.0093496570 0 0
-0.0176946300 -0.0105073400 0 0
-0.0173788950 -0.0118154660 0 0
-0.0168794960 -0.0131617540 0 0
-0.0162510100 -0.0144206530 0 0
-0.0155585690 -0.0154684040 0 0
-0.0148676030 -0.0161996360 0 0
-0.0142349860 -0.0165415440 0 0
-0.0137035570 -0.0164629590 0 0
-0.0132997920 -0.0159779440 0 0
-0.0130325010 -0.0151443770 0 0
-0.0128914080 -0.0140573710 0 0
-0.0128469090 -0.0128381740 0 0
-0.0128535570 -0.0116202660 0 0
-0.0128588140 -0.0105344970 0 0
-0.0128148260 -0.0096951420 0 0
-0.0126881800 -0.0091886060 0 0
-0.0124648150 -0.0090656190 0 0
-0.0121511030 -0.0093374280 0 0
-0.0117722290 -0.0099761590 0 0
-0.0113672800 -0.0109184720 0 0
-0.0109816110 -0.0120718410 0 0
-0.0106595070 -0.0133241210 0 0
-0.0104392730 -0.0145562550 0 0
-0.0103504010 -0.0156554640 0 0
-0.0104123160 -0.0165257960 0 0
-0.0106348780 -0.0170947660 0 0
-0.0110204190 -0.0173167230 0 0
-0.0115655880 -0.0171741000 0 0
-0.0122602410 -0.0166767850 0 0
-0.0130831340 -0.0158599830 0 0
-0.0139985030 -0.0147817420 0 0
-0.0149571620 -0.0135204130 0 0
-0.0159014950 -0.0121705550 0 0
-0.0167716940 -0.0108365770 0 0
-0.0175118790 -0.0096251000 0 0
-0.0180760460 -0.0086364900 0 0
-0.0184330190 -0.0079556310 0 0
-0.0185684070 -0.0076432460 0 0
-0.0184833400 -0.0077292210 0 0
-0.0181920620 -0.0082081370 0 0
-0.0177196590 -0.0090374240 0 0
-0.0171000470 -0.0101393670 0 0
-0.0163745110 -0.0114076150 0 0
-0.0155897690 -0.0127175900 0 0
-0.0147940360 -0.0139397000 0 0
-0.0140324830 -0.0149536010 0 0
-0.0133451710 -0.0156608840 0 0
-0.0127674200 -0.0159943300 0 0
-0.0123293750 -0.0159235590 0 0
-0.0120530340 -0.0154568540 0 0
-0.0119484810 -0.0146387280 0 0
-0.0120118490 -0.0135444470 0 0
-0.0122253930 -0.0122734780 0 0
-0.0125590680 -0.0109423130 0 0
-0.0129736170 -0.0096756510 0 0
-0.0134250240 -0.0085950830 0 0
-0.0138689990 -0.0078055000 0 0
-0.0142646440 -0.0073809660 0 0
-0.0145779020 -0.0073530320 0 0
-0.0147850810 -0.0077050360 0 0
-0.0148756180 -0.0083746320 0 0
-0.0148538010 -0.0092637080 0 0
-0.0147393990 -0.0102522670 0 0
-0.0145661960 -0.0112128310 0 0
-0.0143772230 -0.0120240470 0 0
-0.0142173590 -0.0125836240 0 0
-0.0141256400 -0.0128200430 0 0
-0.0141292390 -0.0127017560 0 0
-0.0142400960 -0.0122428560 0 0
-0.0144552370 -0.0115040160 0 0
-0.0147607980 -0.0105870000 0 0
-0.0151370990 -0.0096218340 0 0
-0.0155614040 -0.0087482050 0 0
-0.0160078250 -0.0080954420 0 0
-0.0164463260 -0.0077657100 0 0
-0.0168427640 -0.0078227640 0 0
-0.0171602840 -0.0082865660 0 0
-0.0173609040 -0.0091335980 0 0
-0.0174074940 -0.0103017940 0 0
-0.0172688770 -0.0116980450 0 0
-0.0169287900 -0.0132069810 0 0
-0.0163944270 -0.0147011750 0 0
-0.0156995890 -0.0160525490 0 0
-0.0149011640 -0.0171439810 0 0
-0.0140706320 -0.0178797800 0 0
-0.0132832540 -0.0181936970 0 0
-0.0126080800 -0.0180537820 0 0
-0.0121010340 -0.0174645050 0 0
-0.0118006260 -0.0164665790 0 0
-0.0117247670 -0.0151339510 0 0
-0.0118693400 -0.0135671630 0 0
-0.0122097580 -0.0118836270 0 0
-0.0127043510 -0.0102071400 0 0
-0.0132976120 -0.0086591390 0 0
-0.0139233060 -0.0073517750 0 0
-0.0145091070 -0.0063806150 0 0
-0.0149835270 -0.0058158270 0 0
-0.0152834980 -0.0056939890 0 0
-0.0153610610 -0.0060138890 0 0
-0.0151897420 -0.0067377090 0 0
-0.0147710340 -0.0077963930 0 0
-0.0141387930 -0.0090970060 0 0
-0.0133577790 -0.0105305530 0 0
-0.0125144090 -0.0119800240 0 0
-0.0117021760 -0.0133291350 0 0
-0.0110071460 -0.0144717610 0 0
-0.0104980340 -0.0153212520 0 0
-0.0102213800 -0.0158186200 0 0
-0.0101990630 -0.0159387030 0 0
-0.0104265410 -0.0156929180 0 0
-0.0108736640 -0.0151271700 0 0
-0.0114899570 -0.0143152820 0 0
-0.0122127020 -0.0133503460 0 0
-0.0129744360 -0.0123361180 0 0
-0.0137087690 -0.0113782160 0 0
-0.0143562150 -0.0105742430 0 0
-0.0148712600 -0.0100044340 0 0
-0.0152283140 -0.0097252130 0 0
-0.0154229500 -0.0097656030 0 0
-0.0154683560 -0.0101251620 0 0
-0.0153895120 -0.0107736210 0 0
-0.0152166530 -0.0116534830 0 0
-0.0149797030 -0.0126858260 0 0
-0.0147058860 -0.0137783760 0 0
-0.0144203770 -0.0148344670 0 0
-0.0141477160 -0.0157614670 0 0
-0.0139125600 -0.0164778450 0 0
-0.0137393980 -0.0169193670 0 0
-0.0136506300 -0.0170451000 0 0
-0.0136629260 -0.0168429860 0 0
-0.0137832300 -0.0163342380 0 0
-0.0140061830 -0.0155758030 0 0
-0.0143139910 -0.0146598590 0 0
-0.0146781870 -0.0137081840 0 0
-0.0150613320 -0.0128591620 0 0
-0.0154182610 -0.0122479980 0 0
-0.0156996010 -0.0119847890 0 0
-0.0158600030 -0.0121368850 0 0
-0.0158690690 -0.0127197440 0 0
-0.0157191940 -0.0136965370 0 0
-0.0154268730 -0.0149844540 0 0
-0.0150291250 -0.0164656310 0 0
-0.0145774050 -0.0180011630 0 0
-0.0141296500 -0.0194469940 0 0
-0.0137419220 -0.0206704360 0 0
-0.0134617150 -0.0215650890 0 0
-0.0133236090 -0.0220614990 0 0
-0.0133470530 -0.0221321970 0 0
-0.0135354040 -0.0217914730 0 0
-0.0138750220 -0.0210909540 0 0
-0.0143351390 -0.0201124290 0 0
-0.0148707620 -0.0189594540 0 0
-0.0154286170 -0.0177488910 0 0
-0.0159532840 -0.0166020170 0 0
-0.0163908770 -0.0156343750 0 0
-0.0166906330 -0.0149453000 0 0
-0.0168071660 -0.0146088690 0 0
-0.0167051880 -0.0146664260 0 0
-0.0163658420 -0.0151204700 0 0
-0.0157923490 -0.0159314370 0 0
-0.0150129900 -0.0170197430 0 0
-0.0140805080 -0.0182737930 0 0
-0.0130675550 -0.0195624980 0 0
-0.0120586490 -0.0207496230 0 0
-0.0111408830 -0.0217073660 0 0
-0.0103958780 -0.0223281530 0 0
-0.0098930740 -0.0225347770 0 0
-0.0096827960 -0.0222880680 0 0
-0.0097887750 -0.0215905740 0 0
-0.0102019280 -0.0204861000 0 0
-0.0108777510 -0.0190565400 0 0
-0.0117389710 -0.0174171110 0 0
-0.0126843200 -0.0157089000 0 0
-0.0136022120 -0.0140864660 0 0
-0.0143853320 -0.0127007590 0 0
-0.0149429940 -0.0116807350 0 0
-0.0152113620 -0.0111176360 0 0
-0.0151616520 -0.0110549720 0 0
-0.0148038010 -0.0114856010 0 0
-0.0141824560 -0.0123553810 0 0
-0.0133652840 -0.0135715170 0 0
-0.0124288490 -0.0150132480 0 0
-0.0114488980 -0.0165426290 0 0
-0.0104969310 -0.0180143530 0 0
-0.0096399590 -0.0192848740 0 0
-0.0089407370 -0.0202218120 0 0
-0.0084569800 -0.0207149030 0 0
-0.0082377620 -0.0206887170 0 0
-0.0083170520 -0.0201147830 0 0
-0.0087068540 -0.0190192250 0 0
-0.0093923040 -0.0174830160 0 0
-0.0103298000 -0.0156346720 0 0
-0.0114488130 -0.0136377340 0 0
-0.0126573390 -0.0116752290 0 0
-0.0138501360 -0.0099314910 0 0
-0.0149188190 -0.0085720870 0 0
-0.0157637390 -0.0077248320 0 0
-0.0163073570 -0.0074658890 0 0
-0.0165065430 -0.0078136600 0 0
-0.0163600530 -0.0087305410 0 0
-0.0159088920 -0.0101305050 0 0
-0.0152290850 -0.0118898600 0 0
-0.0144181050 -0.0138592660 0 0
-0.0135790750 -0.0158765240 0 0
-0.0128077270 -0.0177802500 0 0
-0.0121839350 -0.0194234770 0 0
-0.0117667930 -0.0206856750 0 0
-0.0115926630 -0.0214829980 0 0
-0.0116756090 -0.0217766280 0 0
-0.0120080980 -0.0215774630 0 0
-0.0125608910 -0.0209450460 0 0
-0.0132842710 -0.0199800380 0 0
-0.0141127390 -0.0188112320 0 0
-0.0149720260 -0.0175796670 0 0
-0.0157857980 -0.0164227800 0 0
-0.0164809520 -0.0154603800 0 0
-0.0169919460 -0.0147837120 0 0
-0.0172654410 -0.0144492970 0 0
-0.0172659300 -0.0144781610 0 0
-0.0169801460 -0.0148587360 0 0
-0.0164175180 -0.0155512340 0 0
-0.0156078170 -0.0164926170 0 0
-0.0145982200 -0.0176018780 0 0
-0.0134495240 -0.0187851570 0 0
-0.0122311460 -0.0199413940 0 0
-0.0110164710 -0.0209703510 0 0
-0.0098793830 -0.0217828780 0 0
-0.0088907050 -0.0223105060 0 0
-0.0081132540 -0.0225117110 0 0
-0.0075950960 -0.0223744980 0 0
-0.0073619330 -0.0219163570 0 0
-0.0074111930 -0.0211825940 0 0
-0.0077100670 -0.0202434810 0 0
-0.0081977640 -0.0191901650 0 0
-0.0087913370 -0.0181286640 0 0
-0.0093946710 -0.0171708090 0 0
-0.0099100860 -0.0164217320 0 0
-0.0102511210 -0.0159656180 0 0
-0.0103543850 -0.0158531110 0 0
-0.0101882390 -0.0160934650 0 0
-0.0097565520 -0.0166530920 0 0
-0.0090969730 -0.0174605060 0 0
-0.0082752370 -0.0184162290 0 0
-0.0073779930 -0.0194054660 0 0
-0.0065052910 -0.0203112600 0 0
-0.0057619580 -0.0210256910 0 0
-0.0052476180 -0.0214575920 0 0
-0.0050462670 -0.0215379510 0 0
-0.0052160690 -0.0212255510 0 0
-0.0057808410 -0.0205134210 0 0
-0.0067261140 -0.0194339800 0 0
-0.0080011680 -0.0180600680 0 0
-0.0095252350 -0.0165004720 0 0
-0.0111957860 -0.0148900160 0 0
-0.0128982640 -0.0133748920 0 0
-0.0145165550 -0.0120952370 0 0
-0.0159433790 -0.0111686740 0 0
-0.0170904000 -0.0106782770 0 0
-0.0178968180 -0.0106659870 0 0
-0.0183340950 -0.0111303090 0 0
-0.0184059490 -0.0120266810 0 0
-0.0181449900 -0.0132702430 0 0
-0.0176077680 -0.0147425540 0 0
-0.0168692370 -0.0163035120 0 0
-0.0160162340 -0.0178072240 0 0
-0.0151385120 -0.0191183840 0 0
-0.0143173870 -0.0201259710 0 0
-0.0136151460 -0.0207527920 0 0
-0.0130691860 -0.0209604510 0 0
-0.0126923870 -0.0207495950 0 0
-0.0124782160 -0.0201560800 0 0
-0.0124075210 -0.0192450840 0 0
-0.0124545870 -0.0181050390 0 0
-0.0125915420 -0.0168414040 0 0
-0.0127902800 -0.0155692140 0 0
-0.0130214990 -0.0144041740 0 0
-0.0132533790 -0.0134529920 0 0
-0.0134530210 -0.0128039050 0 0
-0.0135903860 -0.0125181400 0 0
-0.0136430520 -0.0126225310 0 0
-0.0136012080 -0.0131039250 0 0
-0.0134716110 -0.0139073080 0 0
-0.0132782840 -0.0149396970 0 0
-0.0130594050 -0.0160798690 0 0
-0.0128624640 -0.0171923220 0 0
-0.0127393710 -0.0181436310 0 0
-0.0127406880 -0.0188194580 0 0
-0.0129076140 -0.0191395820 0 0
-0.0132626960 -0.0190675480 0 0
-0.0138022000 -0.0186129070 0 0
-0.0144929130 -0.0178270460 0 0
-0.0152748380 -0.0167950370 0 0
-0.0160695430 -0.0156248650 0 0
-0.0167909710 -0.0144344640 0 0
-0.0173549310 -0.0133381560 0 0
-0.0176876410 -0.0124350630 0 0
-0.0177352780 -0.0118008390 0 0
-0.0174721280 -0.0114823480 0 0
-0.0169040640 -0.0114947090 0 0
-0.0160681600 -0.0118203750 0 0
-0.0150293320 -0.0124101110 0 0
-0.0138725020 -0.0131865780 0 0
-0.0126916830 -0.0140514990 0 0
-0.0115804170 -0.0148952640 0 0
-0.0106249950 -0.0156059900 0 0
-0.0098990460 -0.0160767640 0 0
-0.0094595190 -0.0162125400 0 0
-0.0093440290 -0.0159385550 0 0
-0.0095673880 -0.0152108670 0 0
-0.0101166480 -0.0140279720 0 0
-0.0109476220 -0.0124403910 0 0
-0.0119859120 -0.0105544980 0 0
-0.0131334150 -0.0085277570 0 0
-0.0142805170 -0.0065534340 0 0
-0.0153223510 -0.0048357410 0 0
-0.0161735830 -0.0035611990 0 0
-0.0167756000 -0.0028733940 0 0
-0.0170948310 -0.0028553480 0 0
-0.0171169310 -0.0035211680 0 0
-0.0168436840 -0.0048171780 0 0
-0.0162952780 -0.0066310150 0 0
-0.0155136440 -0.0088062030 0 0
-0.0145612280 -0.0111599590 0 0
-0.0135144880 -0.0135021980 0 0
-0.0124550220 -0.0156540860 0 0
-0.0114605550 -0.0174648370 0 0
-0.0105965280 -0.0188250780 0 0
-0.0099096000 -0.0196750130 0 0
-0.0094253890 -0.0200068510 0 0
-0.0091511070 -0.0198621990 0 0
-0.0090805120 -0.0193247380 0 0
-0.0091980450 -0.0185080370 0 0
-0.0094812770 -0.0175400480 0 0
-0.0099024540 -0.0165478220 0 0
-0.0104296100 -0.0156452950 0 0
-0.0110271100 -0.0149247880 0 0
-0.0116550650 -0.0144512210 0 0
-0.0122683010 -0.0142574250 0 0
-0.0128180640 -0.0143398220 0 0
-0.0132593380 -0.0146562780 0 0
-0.0135621000 -0.0151292290 0 0
-0.0137211870 -0.0156551970 0 0
-0.0137601390 -0.0161191250 0 0
-0.0137271240 -0.0164112430 0 0
-0.0136843900 -0.0164436040 0 0
-0.0136953790 -0.0161627040 0 0
-0.0138128370 -0.0155554790 0 0
-0.0140688210 -0.0146484850 0 0
-0.0144682430 -0.0135022640 0 0
-0.0149887680 -0.0122032810 0 0
-0.0155870100 -0.0108545010 0 0
-0.0162073020 -0.0095646140 0 0
-0.0167895620 -0.0084368790 0 0
-0.0172754820 -0.0075603130 0 0
-0.0176143650 -0.0070049460 0 0
-0.0177697700 -0.0068196070 0 0
-0.0177252890 -0.0070291990 0 0
-0.0174860090 -0.0076303560 0 0
-0.0170751090 -0.0085874680 0 0
-0.0165285040 -0.0098328160 0 0
-0.0158898260 -0.0112731780 0 0
-0.0152059630 -0.0128008970 0 0
-0.0145234840 -0.0143048500 0 0
-0.0138863880 -0.0156788630 0 0
-0.0133348030 -0.0168279760 0 0
-0.0129039550 -0.0176732730 0 0
-0.0126227970 -0.0181556280 0 0
-0.0125119250 -0.0182387160 0 0
-0.0125809850 -0.0179109660 0 0
-0.0128259480 -0.0171861100 0 0
-0.0132263940 -0.0161030740 0 0
-0.0137434820 -0.0147257710 0 0
-0.0143204470 -0.0131411210 0 0
-0.0148878490 -0.0114535750 0 0
-0.0153739180 -0.0097774220 0 0
-0.0157169260 -0.0082293710 0 0
-0.0158746810 -0.0069215800 0 0
-0.0158280380 -0.0059535160 0 0
-0.0155783860 -0.0054019210 0 0
-0.0151416410 -0.0053099460 0 0
-0.0145431480 -0.0056782520 0 0
-0.0138165690 -0.0064609320 0 0
-0.0130054340 -0.0075675250 0 0
-0.0121641250 -0.0088712120 0 0
-0.0113567180 -0.0102227230 0 0
-0.0106531990 -0.0114684560 0 0
-0.0101223920 -0.0124700440 0 0
-0.0098219890 -0.0131219640 0 0
-0.0097884710 -0.0133643530 0 0
-0.0100310390 -0.0131893880 0 0
-0.0105311800 -0.0126404930 0 0
-0.0112461240 -0.0118048160 0 0
-0.0121141690 -0.0108005720 0 0
-0.0130613150 -0.0097613060 0 0
-0.0140094180 -0.0088192440 0 0
-0.0148855290 -0.0080896640 0 0
-0.0156303740 -0.0076576990 0 0
-0.0162032180 -0.0075690880 0 0
-0.0165819950 -0.0078261770 0 0
-0.0167604020 -0.0083889540 0 0
-0.0167456770 -0.0091798240 0 0
-0.0165595040 -0.0100916450 0 0
-0.0162401630 -0.0109997250 0 0
-0.0158413810 -0.0117773590 0 0
-0.0154255730 -0.0123126400 0 0
-0.0150532680 -0.0125239740 0 0
-0.0147728030 -0.0123721160 0 0
-0.0146144140 -0.0118660250 0 0
-0.0145912460 -0.0110601330 0 0
-0.0147061030 -0.0100431350 0 0
-0.0149591040 -0.0089213800 0 0
-0.0153514460 -0.0078013670 0 0
-0.0158842980 -0.0067759290 0 0
-0.0165552510 -0.0059176910 0 0
-0.0173548740 -0.0052805780 0 0
-0.0182644920 -0.0049059960 0 0
-0.0192564920 -0.0048286270 0 0
-0.0202989390 -0.0050786910 0 0
-0.0213645470 -0.0056799720 0 0
-0.0224417240 -0.0066441260 0 0
-0.0235436730 -0.0079630960 0 0
-0.0247104510 -0.0096025330 0 0
-0.0260013550 -0.0114989250 0 0
-0.0274812350 -0.0135620540 0 0
-0.0292078190 -0.0156829570 0 0
-0.0312243870 -0.0177463070 -1 0
-0.0335579120 -0.0196452070 -1 0
-0.0362203140 -0.0212957110 -1 0
-0.0392093360 -0.0226484120 -1 0
-0.0425070770 -0.0236957470 -1 0
-0.0460781100 -0.0244747120 -1 0
-0.0498705290 -0.0250645410 -1 0
-0.0538208100 -0.0255785570 -1 0
-0.0578610010 -0.0261503650 -1 0
-0.0619263460 -0.0269169430 -1 0
-0.0659616550 -0.0280021810 -1 0
-0.0699250500 -0.0295030840 -1 0
-0.0737887170 -0.0314796620 -1 -1
-0.0775376920 -0.0339493070 -1 -1
-0.0811679600 -0.0368859470 -1 -1
-0.0846840330 -0.0402232310 -1 -1
-0.0880960590 -0.0438607810 -1 -1
-0.0914175570 -0.0476729320 -1 -1
-0.0946642060 -0.0515192850 -1 -1
-0.0978525210 -0.0552561300 -1 -1
-0.1009976390 -0.0587479320 -1 -1
-0.1041101660 -0.0618785410 -1 -1
-0.1071926200 -0.0645619400 -1 -1
-0.1102372710 -0.0667512480 -1 -1
-0.1132267840 -0.0684433250 -1 -1
-0.1161361610 -0.0696772120 -1 -1
-0.1189336720 -0.0705268790 -1 -1
-0.1215814730 -0.0710900590 -1 -1
-0.1240385100 -0.0714754050 -1 -1
-0.1262662900 -0.0717903810 -1 -1
-0.1282351370 -0.0721315200 -1 -1
-0.1299279670 -0.0725773120 -1 -1
-0.1313404160 -0.0731830610 -1 -1
-0.1324784880 -0.0739773070 -1 -1
-0.1333563350 -0.0749599310 -1 -1
-0.1339967520 -0.0761024110 -1 -1
-0.1344345380 -0.0773508790 -1 -1
-0.1347190940 -0.0786325150 -1 -1
-0.1349116690 -0.0798649440 -1 -1
-0.1350764830 -0.0809666790 -1 -1
-0.1352694620 -0.0818658490 -1 -1
-0.1355295560 -0.0825062560 -1 -1
-0.1358752810 -0.0828522300 -1 -1
-0.1363060460 -0.0828936860 -1 -1
-0.1368062020 -0.0826504670 -1 -1
-0.1373495890 -0.0821735110 -1 -1
-0.1379034370 -0.0815411170 -1 -1
-0.1384318610 -0.0808503920 -1 -1
-0.1388990030 -0.0802050120 -1 -1
-0.1392710920 -0.0797014760 -1 -1
-0.1395174000 -0.0794175030 -1 -1
-0.1396116790 -0.0794053470 -1 -1
-0.1395356600 -0.0796894330 -1 -1
-0.1392838230 -0.0802659050 -1 -1
-0.1388666000 -0.0811025730 -1 -1
-0.1383104530 -0.0821394480 -1 -1
-0.1376555480 -0.0832914380 -1 -1
-0.1369516760 -0.0844548120 -1 -1
-0.1362523190 -0.0855171040 -1 -1
-0.1356075510 -0.0863682010 -1 -1
-0.1350576680 -0.0869107640 -1 -1
-0.1346295810 -0.0870696840 -1 -1
-0.1343370570 -0.0868003670 -1 -1
-0.1341845380 -0.0860947860 -1 -1
-0.1341722100 -0.0849845960 -1 -1
-0.1342988810 -0.0835411530 -1 -1
-0.1345608160 -0.0818720220 -1 -1
-0.1349474210 -0.0801133370 -1 -1
-0.1354362030 -0.0784175270 -1 -1
-0.1359897580 -0.0769364990 -1 -1
-0.1365574740 -0.0758023590 -1 -1
-0.1370826000 -0.0751094530 -1 -1
-0.1375115820 -0.0749014190 -1 -1
-0.1378012890 -0.0751655950 -1 -1
-0.1379231610 -0.0758353960 -1 -1
-0.1378662700 -0.0768000270 -1 -1
-0.1376394390 -0.0779200450 -1 -1
-0.1372701850 -0.0790462930 -1 -1
-0.1368000520 -0.0800393930 -1 -1
-0.1362785860 -0.0807870490 -1 -1
-0.1357578940 -0.0812161620 -1 -1
-0.1352884120 -0.0812974780 -1 -1
-0.1349155500 -0.0810426660 -1 -1
-0.1346757730 -0.0804959930 -1 -1
-0.1345912310 -0.0797239420 -1 -1
-0.1346642360 -0.0788055950 -1 -1
-0.1348740950 -0.0778246150 -1 -1
-0.1351781750 -0.0768619850 -1 -1
-0.1355174520 -0.0759885990 -1 -1
-0.1358254890 -0.0752582680 -1 -1
-0.1360394670 -0.0747028470 -1 -1
-0.1361113450 -0.0743305870 -1 -1
-0.1360160420 -0.0741278840 -1 -1
-0.1357538060 -0.0740642530 -1 -1
-0.1353464210 -0.0740993570 -1 -1
-0.1348297240 -0.0741902310 -1 -1
-0.1342459430 -0.0742974200 -1 -1
-0.1336381120 -0.0743890660 -1 -1
-0.1330468900 -0.0744416670 -1 -1
-0.1325089230 -0.0744376940 -1 -1
-0.1320555910 -0.0743623450 -1 -1
-0.1317117780 -0.0742017260 -1 -1
-0.1314950630 -0.0739433900 -1 -1
-0.1314148470 -0.0735792270 -1 -1
-0.1314707850 -0.0731102520 -1 -1
-0.1316518310 -0.0725518990 -1 -1
-0.1319376150 -0.0719370910 -1 -1
-0.1323017730 -0.0713145220 -1 -1
-0.1327156370 -0.0707419110 -1 -1
-0.1331506830 -0.0702759440 -1 -1
-0.1335787430 -0.0699614980 -1 -1
-0.1339715740 -0.0698231510 -1 -1
-0.1343030400 -0.0698614390 -1 -1
-0.1345544600 -0.0700538610 -1 -1
-0.1347200020 -0.0703582930 -1 -1
-0.1348098160 -0.0707171970 -1 -1
-0.1348509510 -0.0710633920 -1 -1
-0.1348856900 -0.0713280480 -1 -1
-0.1349661510 -0.0714492360 -1 -1
-0.1351451030 -0.0713780770 -1 -1
-0.1354653980 -0.0710805410 -1 -1
-0.1359518730 -0.0705355390 -1 -1
-0.1366081590 -0.0697324590 -1 -1
-0.1374180280 -0.0686714780 -1 -1
-0.1383492370 -0.0673679040 -1 -1
-0.1393578120 -0.0658593600 -1 -1
-0.1403913820 -0.0642121020 -1 -1
-0.1413910140 -0.0625217330 -1 -1
-0.1422922060 -0.0609061670 -1 -1
-0.1430269290 -0.0594925390 -1 -1
-0.1435288090 -0.0584016890 -1 -1
-0.1437415550 -0.0577336160 -1 -1
-0.1436276450 -0.0575558050 -1 -1
-0.1431737970 -0.0578949190 -1 -1
-0.1423928480 -0.0587323050 -1 -1
-0.1413235150 -0.0600045110 -1 -1
-0.1400277160 -0.0616093230 -1 -1
-0.1385845670 -0.0634156360 -1 -1
-0.1370823080 -0.0652747990 -1 -1
-0.1356103600 -0.0670329270 -1 -1
-0.1342521710 -0.0685449000 -1 -1
-0.1330788690 -0.0696891510 -1 -1
-0.1321444210 -0.0703800930 -1 -1
-0.1314821930 -0.0705756700 -1 -1
-0.1311015110 -0.0702802210 -1 -1
-0.1309847940 -0.0695435710 -1 -1
-0.1310882830 -0.0684559730 -1 -1
-0.1313477940 -0.0671384390 -1 -1
-0.1316872830 -0.0657294470 -1 -1
-0.1320268420 -0.0643697840 -1 -1
-0.1322894400 -0.0631869390 -1 -1
-0.1324081730 -0.0622803200 -1 -1
-0.1323346110 -0.0617096290 -1 -1
-0.1320461850 -0.0614896310 -1 -1
-0.1315501720 -0.0615928060 -1 -1
-0.1308828540 -0.0619579340 -1 -1
-0.1301035090 -0.0625011670 -1 -1
-0.1292848890 -0.0631269920 -1 -1
-0.1285036070 -0.0637374050 -1 -1
-0.1278327270 -0.0642385450 -1 -1
-0.1273360280 -0.0645455150 -1 -1
-0.1270630320 -0.0645872750 -1 -1
-0.1270452930 -0.0643127580 -1 -1
-0.1272947070 -0.0636975090 -1 -1
-0.1278032700 -0.0627491030 -1 -1
-0.1285429280 -0.0615094350 -1 -1
-0.1294652420 -0.0600525500 -1 -1
-0.1305023560 -0.0584779930 -1 -1
-0.1315707370 -0.0569006960 -1 -1
-0.1325784940 -0.0554389740 -1 -1
-0.1334366920 -0.0542026390 -1 -1
-0.1340726200 -0.0532825770 -1 -1
-0.1344400610 -0.0527415250 -1 -1
-0.1345231330 -0.0526059550 -1 -1
-0.1343346680 -0.0528608840 -1 -1
-0.1339114880 -0.0534503070 -1 -1
-0.1333078710 -0.0542846990 -1 -1
-0.1325889970 -0.0552544050 -1 -1
-0.1318262090 -0.0562452840 -1 -1
-0.1310930530 -0.0571529220 -1 -1
-0.1304598750 -0.0578933590 -1 -1
-0.1299872740 -0.0584092980 -1 -1
-0.1297201800 -0.0586716640 -1 -1
-0.1296827820 -0.0586783400 -1 -1
-0.1298738170 -0.0584523640 -1 -1
-0.1302635350 -0.0580396870 -1 -1
-0.1307953930 -0.0575049690 -1 -1
-0.1313948020 -0.0569246430 -1 -1
-0.1319839930 -0.0563780280 -1 -1
-0.1324981350 -0.0559377330 -1 -1
-0.1328974200 -0.0556607840 -1 -1
-0.1331730510 -0.0555820730 -1 -1
-0.1333467550 -0.0557113150 -1 -1
-0.1334640070 -0.0560339550 -1 -1
-0.1335832480 -0.0565158160 -1 -1
-0.1337649570 -0.0571101870 -1 -1
-0.1340633500 -0.0577646790 -1 -1
-0.1345222650 -0.0584255880 -1 -1
-0.1351754530 -0.0590403180 -1 -1
-0.1360495940 -0.0595603150 -1 -1
-0.1371676970 -0.0599454560 -1 -1
-0.1385509800 -0.0601689210 -1 -1
-0.1402172170 -0.0602215760 -1 -1
-0.1421746810 -0.0601153890 -1 -1
-0.1444134680 -0.0598847260 -1 -1
-0.1468977880 -0.0595841820 -1 -1
-0.1495634790 -0.0592828780 -1 -1
-0.1523234130 -0.0590569930 -1 -1
-0.1550788530 -0.0589827730 -1 -1
-0.1577315960 -0.0591306590 -1 -1
-0.1601933930 -0.0595592860 -1 -1
-0.1623923920 -0.0603084620 -1 -1
-0.1642780980 -0.0613924150 -1 -1
-0.1658256430 -0.0627955330 -1 -1
-0.1670379080 -0.0644719820 -1 -1
-0.1679436080 -0.0663492800 -1 -1
-0.1685919690 -0.0683348860 -1 -1
-0.1690460260 -0.0703245140 -1 -1
-0.1693755380 -0.0722110320 -1 -1
-0.1696495200 -0.0738927480 -1 -1
-0.1699286670 -0.0752804400 -1 -1
-0.1702589640 -0.0763037060 -1 -1
-0.1706681720 -0.0769177380 -1 -1
-0.1711652750 -0.0771102240 -1 -1
-0.1717416360 -0.0769060410 -1 -1
-0.1723727080 -0.0763667360 -1 -1
-0.1730198490 -0.0755834710 -1 -1
-0.1736328590 -0.0746648380 -1 -1
-0.1741546180 -0.0737226030 -1 -1
-0.1745280860 -0.0728587630 -1 -1
-0.1747043770 -0.0721563920 -1 -1
-0.1746498090 -0.0716748880 -1 -1
-0.1743496010 -0.0714484540 -1 -1
-0.1738077470 -0.0714859690 -1 -1
-0.1730456350 -0.0717709240 -1 -1
-0.1721012890 -0.0722614970 -1 -1
-0.1710276530 -0.0728921620 -1 -1
-0.1698878200 -0.0735779680 -1 -1
-0.1687478040 -0.0742217970 -1 -1
-0.1676694810 -0.0747246870 -1 -1
-0.1667056020 -0.0749986290 -1 -1
-0.1658970450 -0.0749794580 -1 -1
-0.1652716720 -0.0746366240 -1 -1
-0.1648435620 -0.0739779500 -1 -1
-0.1646105920 -0.0730491150 -1 -1
-0.1645499200 -0.0719280900 -1 -1
-0.1646144200 -0.0707154440 -1 -1
-0.1647343670 -0.0695224340 -1 -1
-0.1648260110 -0.0684588580 -1 -1
-0.1648049840 -0.0676221030 -1 -1
-0.1645998950 -0.0670886140 -1 -1
-0.1641618190 -0.0669082600 -1 -1
-0.1634691180 -0.0671011690 -1 -1
-0.1625296750 -0.0676567600 -1 -1
-0.1613806300 -0.0685351210 -1 -1
-0.1600838690 -0.0696701850 -1 -1
-0.1587181010 -0.0709742660 -1 -1
-0.1573706210 -0.0723450610 -1 -1
-0.1561298000 -0.0736757620 -1 -1
-0.1550774060 -0.0748657410 -1 -1
-0.1542811690 -0.0758278340 -1 -1
-0.1537899570 -0.0764910430 -1 -1
-0.1536328470 -0.0768013370 -1 -1
-0.1538201060 -0.0767242860 -1 -1
-0.1543429050 -0.0762504710 -1 -1
-0.1551711210 -0.0754011300 -1 -1
-0.1562517930 -0.0742312870 -1 -1
-0.1575113410 -0.0728295230 -1 -1
-0.1588623040 -0.0713134870 -1 -1
-0.1602132490 -0.0698195710 -1 -1
-0.1614799830 -0.0684870890 -1 -1
-0.1625955990 -0.0674404030 -1 -1
-0.1635163240 -0.0667735540 -1 -1
-0.1642220740 -0.0665404620 -1 -1
-0.1647135980 -0.0667513110 -1 -1
-0.1650090990 -0.0673742720 -1 -1
-0.1651414580 -0.0683413460 -1 -1
-0.1651546840 -0.0695570780 -1 -1
-0.1650985930 -0.0709087840 -1 -1
-0.1650230390 -0.0722774540 -1 -1
-0.1649726130 -0.0735489710 -1 -1
-0.1649812370 -0.0746249640 -1 -1
-0.1650671910 -0.0754321720 -1 -1
-0.1652309380 -0.0759295300 -1 -1
-0.1654573260 -0.0761122160 -1 -1
-0.1657210150 -0.0760117420 -1 -1
-0.1659923230 -0.0756916120 -1 -1
-0.1662416050 -0.0752389460 -1 -1
-0.1664417290 -0.0747532340 -1 -1
-0.1665686550 -0.0743333420 -1 -1
-0.1666009160 -0.0740638160 -1 -1
-0.1665202860 -0.0740026020 -1 -1
-0.1663152330 -0.0741728320 -1 -1
-0.1659854780 -0.0745595210 -1 -1
-0.1655445610 -0.0751104170 -1 -1
-0.1650191560 -0.0757414410 -1 -1
-0.1644461890 -0.0763480910 -1 -1
-0.1638693840 -0.0768218900 -1 -1
-0.1633358560 -0.0770679890 -1 -1
-0.1628927860 -0.0770196490 -1 -1
-0.1625845070 -0.0766469710 -1 -1
-0.1624495410 -0.0759592270 -1 -1
-0.1625159660 -0.0750017130 -1 -1
-0.1627943030 -0.0738488300 -1 -1
-0.1632703200 -0.0725948010 -1 -1
-0.1639025470 -0.0713429600 -1 -1
-0.1646273620 -0.0701948090 -1 -1
-0.1653693850 -0.0692402980 -1 -1
-0.1660523140 -0.0685502750 -1 -1
-0.1666071370 -0.0681712880 -1 -1
-0.1669776440 -0.0681228260 -1 -1
-0.1671242320 -0.0683973810 -1 -1
-0.1670259600 -0.0689633420 -1 -1
-0.1666804120 -0.0697695770 -1 -1
-0.1661022930 -0.0707498410 -1 -1
-0.1653218990 -0.0718259040 -1 -1
-0.1643832570 -0.0729100290 -1 -1
-0.1633412820 -0.0739085520 -1 -1
-0.1622578680 -0.0747281080 -1 -1
-0.1611973190 -0.0752842930 -1 -1
-0.1602222430 -0.0755111150 -1 -1
-0.1593908530 -0.0753694080 -1 -1
-0.1587545500 -0.0748523420 -1 -1
-0.1583535560 -0.0739863840 -1 -1
-0.1582101050 -0.0728279560 -1 -1
-0.1583213350 -0.0714576990 -1 -1
-0.1586556170 -0.0699735150 -1 -1
-0.1591556500 -0.0684821700 -1 -1
-0.1597475940 -0.0670896250 -1 -1
-0.1603520350 -0.0658909590 -1 -1
-0.1608941630 -0.0649604700 -1 -1
-0.1613132790 -0.0643429450 -1 -1
-0.1615709180 -0.0640485400 -1 -1
-0.1616551050 -0.0640538170 -1 -1
-0.1615793770 -0.0643094680 -1 -1
-0.1613777540 -0.0647522660 -1 -1
-0.1610975850 -0.0653168570 -1 -1
-0.1607915130 -0.0659436700 -1 -1
-0.1605102810 -0.0665816470 -1 -1
-0.1602978780 -0.0671866180 -1 -1
-0.1601883650 -0.0677178890 -1 -1
-0.1602022470 -0.0681366700 -1 -1
-0.1603420280 -0.0684087460 -1 -1
-0.1605893530 -0.0685108960 -1 -1
-0.1609067780 -0.0684381980 -1 -1
-0.1612449940 -0.0682087460 -1 -1
-0.1615528460 -0.0678636190 -1 -1
-0.1617858060 -0.0674625050 -1 -1
-0.1619105120 -0.0670764900 -1 -1
-0.1619063950 -0.0667787020 -1 -1
-0.1617663430 -0.0666335410 -1 -1
-0.1614964320 -0.0666863180 -1 -1
-0.1611136920 -0.0669550690 -1 -1
-0.1606429360 -0.0674256500 -1 -1
-0.1601151620 -0.0680513580 -1 -1
-0.1595676500 -0.0687577080 -1 -1
-0.1590434110 -0.0694513270 -1 -1
-0.1585886310 -0.0700306430 -1 -1
-0.1582487980 -0.0703961390 -1 -1
-0.1580639780 -0.0704592460 -1 -1
-0.1580628100 -0.0701507320 -1 -1
-0.1582557140 -0.0694298660 -1 -1
-0.1586290490 -0.0682937260 -1 -1
-0.1591421680 -0.0667835920 -1 -1
-0.1597295270 -0.0649853440 -1 -1
-0.1603095790 -0.0630226350 -1 -1
-0.1607993480 -0.0610435580 -1 -1
-0.1611300240 -0.0592033600 -1 -1
-0.1612582120 -0.0576468510 -1 -1
-0.1611696120 -0.0564936780 -1 -1
-0.1608756620 -0.0558275520 -1 -1
-0.1604071650 -0.0556889330 -1 -1
-0.1598087410 -0.0560710360 -1 -1
-0.1591339090 -0.0569202300 -1 -1
-0.1584385450 -0.0581421060 -1 -1
-0.1577736080 -0.0596131420 -1 -1
-0.1571806820 -0.0611956710 -1 -1
-0.1566912290 -0.0627527170 -1 -1
-0.1563274670 -0.0641601210 -1 -1
-0.1561039280 -0.0653151010 -1 -1
-0.1560296900 -0.0661417820 -1 -1
-0.1561101950 -0.0665947310 -1 -1
-0.1563472450 -0.0666611260 -1 -1
-0.1567372120 -0.0663616550 -1 -1
-0.1572685770 -0.0657496780 -1 -1
-0.1579204350 -0.0649071970 -1 -1
-0.1586631380 -0.0639364030 -1 -1
-0.1594604530 -0.0629478310 -1 -1
-0.1602713810 -0.0620484670 -1 -1
-0.1610505780 -0.0613327620 -1 -1
-0.1617484980 -0.0608765490 -1 -1
-0.1623138030 -0.0607321140 -1 -1
-0.1626993770 -0.0609237210 -1 -1
-0.1628706850 -0.0614442680 -1 -1
-0.1628141830 -0.0622540010 -1 -1
-0.1625430350 -0.0632820680 -1 -1
-0.1620969370 -0.0644314720 -1 -1
-0.1615348120 -0.0655876660 -1 -1
-0.1609232370 -0.0666303230 -1 -1
-0.1603246170 -0.0674463590 -1 -1
-0.1597873230 -0.0679417510 -1 -1
-0.1593396570 -0.0680510360 -1 -1
-0.1589892280 -0.0677446520 -1 -1
-0.1587267870 -0.0670337060 -1 -1
-0.1585316330 -0.0659709540 -1 -1
-0.1583765340 -0.0646467830 -1 -1
-0.1582318360 -0.0631795060 -1 -1
-0.1580690750 -0.0617006020 -1 -1
-0.1578641070 -0.0603379930 -1 -1
-0.1575998210 -0.0592015600 -1 -1
-0.1572679180 -0.0583731970 -1 -1
-0.1568677660 -0.0579016290 -1 -1
-0.1564018540 -0.0578020940 -1 -1
-0.1558712900 -0.0580604480 -1 -1
-0.1552756010 -0.0586392860 -1 -1
-0.1546171780 -0.0594827630 -1 -1
-0.1539069770 -0.0605184840 -1 -1
-0.1531680370 -0.0616579000 -1 -1
-0.1524355240 -0.0627987030 -1 -1
-0.1517539230 -0.0638318630 -1 -1
-0.1511722860 -0.0646529350 -1 -1
-0.1507378050 -0.0651746390 -1 -1
-0.1504887370 -0.0653374660 -1 -1
-0.1504491690 -0.0651164780 -1 -1
-0.1506274900 -0.0645237090 -1 -1
-0.1510175520 -0.0636063820 -1 -1
-0.1515996060 -0.0624419980 -1 -1
-0.1523397060 -0.0611320640 -1 -1
-0.1531893950 -0.0597950170 -1 -1
-0.1540881710 -0.0585568600 -1 -1
-0.1549694400 -0.0575387420 -1 -1
-0.1557682040 -0.0568436650 -1 -1
-0.1564274820 -0.0565453740 -1 -1
-0.1569026510 -0.0566807880 -1 -1
-0.1571657690 -0.0572459720 -1 -1
-0.1572109660 -0.0581956500 -1 -1
-0.1570583880 -0.0594466800 -1 -1
-0.1567529740 -0.0608856000 -1 -1
-0.1563572400 -0.0623795910 -1 -1
-0.1559412210 -0.0637898580 -1 -1
-0.1555737440 -0.0649859160 -1 -1
-0.1553164610 -0.0658586430 -1 -1
-0.1552187010 -0.0663302000 -1 -1
-0.1553111770 -0.0663601900 -1 -1
-0.1555998580 -0.0659486820 -1 -1
-0.1560631650 -0.0651368530 -1 -1
-0.1566540710 -0.0640045900 -1 -1
-0.1573061890 -0.0626635260 -1 -1
-0.1579422100 -0.0612453580 -1 -1
-0.1584834170 -0.0598874910 -1 -1
-0.1588588590 -0.0587184170 -1 -1
-0.1590135600 -0.0578443670 -1 -1
-0.1589163680 -0.0573381830 -1 -1
-0.1585660400 -0.0572308550 -1 -1
-0.1579916740 -0.0575065050 -1 -1
-0.1572461320 -0.0581028880 -1 -1
-0.1563957260 -0.0589195050 -1 -1
-0.1555104060 -0.0598330250 -1 -1
-0.1546564370 -0.0607167200 -1 -1
-0.1538916430 -0.0614589000 -1 -1
-0.1532626960 -0.0619761010 -1 -1
-0.1528035430 -0.0622195230 -1 -1
-0.1525338300 -0.0621757940 -1 -1
-0.1524571530 -0.0618641010 -1 -1
-0.1525603280 -0.0613310940 -1 -1
-0.1528144940 -0.0606443110 -1 -1
-0.1531777680 -0.0598851590 -1 -1
-0.1535992740 -0.0591423410 -1 -1
-0.1540250680 -0.0585053890 -1 -1
-0.1544054500 -0.0580572550 -1 -1
-0.1547010190 -0.0578662970 -1 -1
-0.1548851640 -0.0579796830 -1 -1
-0.1549433230 -0.0584195040 -1 -1
-0.1548708640 -0.0591805730 -1 -1
-0.1546707830 -0.0602289270 -1 -1
-0.1543517010 -0.0615021940 -1 -1
-0.1539267280 -0.0629132470 -1 -1
-0.1534135420 -0.0643565560 -1 -1
-0.1528352600 -0.0657163530 -1 -1
-0.1522215000 -0.0668770180 -1 -1
-0.1516088300 -0.0677352610 -1 -1
-0.1510393850 -0.0682114720 -1 -1
-0.1505567220 -0.0682580070 -1 -1
-0.1501993500 -0.0678644950 -1 -1
-0.1499930920 -0.0670606390 -1 -1
-0.1499434430 -0.0659151540 -1 -1
-0.1500300870 -0.0645287730 -1 -1
-0.1502071090 -0.0630213410 -1 -1
-0.1504108590 -0.0615162130 -1 -1
-0.1505730680 -0.0601263080 -1 -1
-0.1506340290 -0.0589442050 -1 -1
-0.1505518010 -0.0580365580 -1 -1
-0.1503067110 -0.0574424330 -1 -1
-0.1499023150 -0.0571745460 -1 -1
-0.1493634350 -0.0572217980 -1 -1
-0.1487317730 -0.0575523070 -1 -1
-0.1480605620 -0.0581165290 -1 -1
-0.1474092800 -0.0588497950 -1 -1
-0.1468378840 -0.0596748050 -1 -1
-0.1463997410 -0.0605062240 -1 -1
-0.1461337650 -0.0612587320 -1 -1
-0.1460586920 -0.0618570150 -1 -1
-0.1461730910 -0.0622449440 -1 -1
-0.1464608890 -0.0623925120 -1 -1
-0.1468980370 -0.0623003230 -1 -1
-0.1474568190 -0.0620006000 -1 -1
-0.1481071460 -0.0615531720 -1 -1
-0.1488151670 -0.0610368590 -1 -1
-0.1495405590 -0.0605385730 -1 -1
-0.1502349650 -0.0601419900 -1 -1
-0.1508435120 -0.0599166810 -1 -1
-0.1513100570 -0.0599087070 -1 -1
-0.1515855290 -0.0601343530 -1 -1
-0.1516371370 -0.0605787120 -1 -1
-0.1514556980 -0.0611994380 -1 -1
-0.1510594730 -0.0619339760 -1 -1
-0.1504931360 -0.0627076530 -1 -1
-0.1498210500 -0.0634410480 -1 -1
-0.1491167500 -0.0640563550 -1 -1
-0.1484524400 -0.0644830900 -1 -1
-0.1478913340 -0.0646637320 -1 -1
-0.1474834430 -0.0645593100 -1 -1
-0.1472635350 -0.0641537900 -1 -1
-0.1472491670 -0.0634562110 -1 -1
-0.1474377480 -0.0625010950 -1 -1
-0.1478040270 -0.0613479930 -1 -1
-0.1483008580 -0.0600795470 -1 -1
-0.1488642280 -0.0587964680 -1 -1
-0.1494207730 -0.0576084010 -1 -1
-0.1498961970 -0.0566207240 -1 -1
-0.1502245150 -0.0559189400 -1 -1
-0.1503572590 -0.0555548050 -1 -1
-0.1502697000 -0.0555393950 -1 -1
-0.1499612380 -0.0558454320 -1 -1
-0.1494503710 -0.0564171200 -1 -1
-0.1487681490 -0.0571829040 -1 -1
-0.1479538820 -0.0580658620 -1 -1
-0.1470537540 -0.0589891150 -1 -1
-0.1461206440 -0.0598778860 -1 -1
-0.1452129240 -0.0606613320 -1 -1
-0.1443906770 -0.0612761910 -1 -1
-0.1437095760 -0.0616726940 -1 -1
-0.1432140530 -0.0618213590 -1 -1
-0.1429308930 -0.0617182960 -1 -1
-0.1428639160 -0.0613875240 -1 -1
-0.1429911710 -0.0608799500 -1 -1
-0.1432665530 -0.0602684750 -1 -1
-0.1436264040 -0.0596389890 -1 -1
-0.1439995630 -0.0590787490 -1 -1
-0.1443181290 -0.0586651140 -1 -1
-0.1445264400 -0.0584572930 -1 -1
-0.1445869110 -0.0584918460 -1 -1
-0.1444824220 -0.0587812610 -1 -1
-0.1442155480 -0.0593148200 -1 -1
-0.1438052830 -0.0600609390 -1 -1
-0.1432827310 -0.0609697050 -1 -1
-0.1426877360 -0.0619752800 -1 -1
-0.1420671650 -0.0629996470 -1 -1
-0.1414736990 -0.0639588210 -1 -1
-0.1409636230 -0.0647702060 -1 -1
-0.1405929860 -0.0653592880 -1 -1
-0.1404120820 -0.0656654100 -1 -1
-0.1404583970 -0.0656470490 -1 -1
-0.1407489040 -0.0652865810 -1 -1
-0.1412736960 -0.0645942580 -1 -1
-0.1419939170 -0.0636107640 -1 -1
-0.1428461070 -0.0624067950 -1 -1
-0.1437523890 -0.0610781550 -1 -1
-0.1446328820 -0.0597369900 -1 -1
-0.1454159030 -0.0585014540 -1 -1
-0.1460439620 -0.0574854420 -1 -1
-0.1464767200 -0.0567882370 -1 -1
-0.1466923110 -0.0564837360 -1 -1
-0.1466870700 -0.0566105740 -1 -1
-0.1464735450 -0.0571660090 -1 -1
-0.1460773660 -0.0581052840 -1 -1
-0.1455339700 -0.0593461570 -1 -1
-0.1448862890 -0.0607776890 -1 -1
-0.1441834030 -0.0622724220 -1 -1
-0.1434779610 -0.0637003380 -1 -1
-0.1428201860 -0.0649422560 -1 -1
-0.1422502660 -0.0659006630 -1 -1
-0.1417936220 -0.0665067720 -1 -1
-0.1414603490 -0.0667232810 -1 -1
-0.1412464210 -0.0665435760 -1 -1
-0.1411349510 -0.0659901000 -1 -1
-0.1410979100 -0.0651140600 -1 -1
-0.1410989870 -0.0639949800 -1 -1
-0.1410978490 -0.0627366540 -1 -1
-0.1410550510 -0.0614582460 -1 -1
-0.1409358910 -0.0602822990 -1 -1
-0.1407128050 -0.0593220570 -1 -1
-0.1403678170 -0.0586695380 -1 -1
-0.1398956850 -0.0583853160 -1 -1
-0.1393063350 -0.0584916430 -1 -1
-0.1386249120 -0.0589705100 -1 -1
-0.1378895240 -0.0597668610 -1 -1
-0.1371480860 -0.0607955180 -1 -1
-0.1364546970 -0.0619496800 -1 -1
-0.1358647130 -0.0631097130 -1 -1
-0.1354283820 -0.0641526690 -1 -1
-0.1351839570 -0.0649633390 -1 -1
-0.1351517070 -0.0654467530 -1 -1
-0.1353301700 -0.0655412460 -1 -1
-0.1356948090 -0.0652299830 -1 -1
-0.1361987000 -0.0645473730 -1 -1
-0.1367764600 -0.0635768990 -1 -1
-0.1373524330 -0.0624395020 -1 -1
-0.1378507900 -0.0612754110 -1 -1
-0.1382035820 -0.0602238770 -1 -1
-0.1383548480 -0.0594045990 -1 -1
-0.1382622640 -0.0589037390 -1 -1
-0.1379007880 -0.0587666470 -1 -1
-0.1372708890 -0.0589970840 -1 -1
-0.1364068680 -0.0595604880 -1 -1
-0.1353777230 -0.0603892580 -1 -1
-0.1342782790 -0.0613900970 -1 -1
-0.1332147310 -0.0624536480 -1 -1
-0.1322900100 -0.0634652520 -1 -1
-0.1315919180 -0.0643153930 -1 -1
-0.1311847960 -0.0649093440 -1 -1
-0.1311045450 -0.0651756550 -1 -1
-0.1313569220 -0.0650725790 -1 -1
-0.1319194900 -0.0645915680 -1 -1
-0.1327464750 -0.0637577430 -1 -1
-0.1337739820 -0.0626274580 -1 -1
-0.1349243100 -0.0612830040 -1 -1
-0.1361107810 -0.0598253260 -1 -1
-0.1372442610 -0.0583660520 -1 -1
-0.1382402220 -0.0570187730 -1 -1
-0.1390247700 -0.0558891750 -1 -1
-0.1395391890 -0.0550651780 -1 -1
-0.1397436230 -0.0546085750 -1 -1
-0.1396211620 -0.0545486890 -1 -1
-0.1391827350 -0.0548779340 -1 -1
-0.1384710490 -0.0555495460 -1 -1
-0.1375600940 -0.0564789920 -1 -1
-0.1365476190 -0.0575512470 -1 -1
-0.1355418000 -0.0586344010 -1 -1
-0.1346465310 -0.0595970100 -1 -1
-0.1339492200 -0.0603251850 -1 -1
-0.1335124480 -0.0607356810 -1 -1
-0.1333694260 -0.0607828280 -1 -1
-0.1335224550 -0.0604599300 -1 -1
-0.1339435460 -0.0597976790 -1 -1
-0.1345775050 -0.0588609380 -1 -1
-0.1353484420 -0.0577430170 -1 -1
-0.1361690080 -0.0565560350 -1 -1
-0.1369497940 -0.0554176260 -1 -1
-0.1376073060 -0.0544369970 -1 -1
-0.1380708980 -0.0537039040 -1 -1
-0.1382891790 -0.0532814320 -1 -1
-0.1382356090 -0.0532013730 -1 -1
-0.1379116730 -0.0534615060 -1 -1
-0.1373454800 -0.0540250960 -1 -1
-0.1365862420 -0.0548228360 -1 -1
-0.1356971470 -0.0557574340 -1 -1
-0.1347473540 -0.0567118180 -1 -1
-0.1338026220 -0.0575616910 -1 -1
-0.1329163750 -0.0581913520 -1 -1
-0.1321244480 -0.0585100580 -1 -1
-0.1314448780 -0.0584654280 -1 -1
-0.1308821950 -0.0580507360 -1 -1
-0.1304349380 -0.0573044920 -1 -1
-0.1301030340 -0.0563031300 -1 -1
-0.1298901070 -0.0551497560 -1 -1
-0.1297989620 -0.0539625880 -1 -1
-0.1298239480 -0.0528647770 -1 -1
-0.1299451100 -0.0519750220 -1 -1
-0.1301260460 -0.0513979120 -1 -1
-0.1303151200 -0.0512137040 -1 -1
-0.1304508040 -0.0514684720 -1 -1
-0.1304719530 -0.0521665920 -1 -1
-0.1303301800 -0.0532675380 -1 -1
-0.1299993930 -0.0546885540 -1 -1
-0.1294798730 -0.0563135570 -1 -1
-0.1287975670 -0.0580062900 -1 -1
-0.1280005270 -0.0596238740 -1 -1
-0.1271536610 -0.0610282460 -1 -1
-0.1263319680 -0.0620960750 -1 -1
-0.1256128320 -0.0627284290 -1 -1
-0.1250682900 -0.0628597120 -1 -1
-0.1247571340 -0.0624640720 -1 -1
-0.1247170610 -0.0615580100 -1 -1
-0.1249590130 -0.0601989500 -1 -1
-0.1254654160 -0.0584801420 -1 -1
-0.1261915790 -0.0565224730 -1 -1
-0.1270696680 -0.0544642520 -1 -1
-0.1280159500 -0.0524499810 -1 -1
-0.1289406730 -0.0506188770 -1 -1
-0.1297582960 -0.0490939770 -1 -1
-0.1303967700 -0.0479729270 -1 -1
-0.1308054940 -0.0473211800 -1 -1
-0.1309609580 -0.0471675510 -1 -1
-0.1308685890 -0.0475018440 -1 -1
-0.1305604990 -0.0482749560 -1 -1
-0.1300904090 -0.0494024910 -1 -1
-0.1295269950 -0.0507727580 -1 -1
-0.1289459080 -0.0522586380 -1 -1
-0.1284209840 -0.0537310140 -1 -1
-0.1280163590 -0.0550708520 -1 -1
-0.1277814840 -0.0561780620 -1 -1
-0.1277490650 -0.0569770660 -1 -1
-0.1279332000 -0.0574204320 -1 -1
-0.1283258640 -0.0574922230 -1 -1
-0.1288941880 -0.0572111530 -1 -1
-0.1295823530 -0.0566310490 -1 -1
-0.1303185640 -0.0558360210 -1 -1
-0.1310245220 -0.0549309930 -1 -1
-0.1316248490 -0.0540303410 -1 -1
-0.1320550900 -0.0532460800 -1 -1
-0.1322682750 -0.0526756170 -1 -1
-0.1322401610 -0.0523898480 -1 -1
-0.1319711390 -0.0524239270 -1 -1
-0.1314827760 -0.0527732590 -1 -1
-0.1308116690 -0.0533957980 -1 -1
-0.1300057920 -0.0542197610 -1 -1
-0.1291244970 -0.0551542890 -1 -1
-0.1282386600 -0.0561001990 -1 -1
-0.1274270980 -0.0569595200 -1 -1
-0.1267679610 -0.0576442940 -1 -1
