-0.0672029280 -0.0356405330 -1 -1
-0.0657442550 -0.0358767290 -1 -1
-0.0640370810 -0.0360034990 -1 -1
-0.0621155990 -0.0360092890 -1 -1
-0.0600277030 -0.0359013470 -1 -1
-0.0578311830 -0.0357023500 -1 -1
-0.0555885600 -0.0354438580 -1 -1
-0.0533643190 -0.0351609430 -1 -1
-0.0512233830 -0.0348911520 -1 -1
-0.0492256740 -0.0346764270 -1 -1
-0.0474157220 -0.0345638740 -1 -1
-0.0458121930 -0.0346031200 -1 -1
-0.0444036300 -0.0348410510 -1 -1
-0.0431532070 -0.0353160100 -1 -1
-0.0420099540 -0.0360531100 -1 -1
-0.0409213480 -0.0370609150 -1 -1
-0.0398435130 -0.0383290090 -1 -1
-0.0387474210 -0.0398265230 -1 -1
-0.0376206240 -0.0415025290 -1 -1
-0.0364650280 -0.0432891430 -1 -1
-0.0352932950 -0.0451070040 -1 -1
-0.0341264610 -0.0468716810 -1 -1
-0.0329923140 -0.0484999150 -1 -1
-0.0319225410 -0.0499158300 -1 -1
-0.0309484700 -0.0510576200 -1 -1
-0.0300971140 -0.0518843790 -1 -1
-0.0293893560 -0.0523818120 0 -1
-0.0288403350 -0.0525652390 0 -1
-0.0284596940 -0.0524783250 0 -1
-0.0282498240 -0.0521864010 0 -1
-0.0282040290 -0.0517650440 0 -1
-0.0283079180 -0.0512869880 0 -1
-0.0285434320 -0.0508116750 0 -1
-0.0288914580 -0.0503806210 0 -1
-0.0293308840 -0.0500186070 0 -1
-0.0298361470 -0.0497377960 0 -1
-0.0303768900 -0.0495412480 -1 -1
-0.0309214040 -0.0494237600 -1 -1
-0.0314417310 -0.0493704740 -1 -1
-0.0319171630 -0.0493557020 -1 -1
-0.0323358500 -0.0493445550 -1 -1
-0.0326952880 -0.0492984350 -1 -1
-0.0330008960 -0.0491833070 -1 -1
-0.0332632670 -0.0489775430 -1 -1
-0.0334964940 -0.0486759160 -1 -1
-0.0337174310 -0.0482887410 -1 -1
-0.0339437900 -0.0478378480 -1 -1
-0.0341907320 -0.0473519560 -1 -1
-0.0344673780 -0.0468632750 -1 -1
-0.0347749990 -0.0464056320 -1 -1
-0.0351086300 -0.0460135110 -1 -1
-0.0354611080 -0.0457211860 -1 -1
-0.0358251710 -0.0455607840 -1 -1
-0.0361915710 -0.0455583770 -1 -1
-0.0365463240 -0.0457286990 -1 -1
-0.0368702780 -0.0460701420 -1 -1
-0.0371410830 -0.0465617100 -1 -1
-0.0373368170 -0.0471629500 -1 -1
-0.0374403540 -0.0478170720 -1 -1
-0.0374423080 -0.0484564410 -1 -1
-0.0373408230 -0.0490089990 -1 -1
-0.0371390850 -0.0494048840 -1 -1
-0.0368431320 -0.0495833740 -1 -1
-0.0364623370 -0.0494997470 -1 -1
-0.0360128000 -0.0491305750 -1 -1
-0.0355209990 -0.0484763600 -1 -1
-0.0350236140 -0.0475614390 -1 -1
-0.0345616060 -0.0464319120 -1 -1
-0.0341711500 -0.0451525390 -1 -1
-0.0338751660 -0.0438030690 -1 -1
-0.0336771970 -0.0424737600 -1 -1
-0.0335599780 -0.0412595330 -1 -1
-0.0334909860 -0.0402519350 -1 -1
-0.0334326450 -0.0395285480 -1 -1
-0.0333525690 -0.0391412570 -1 -1
-0.0332317270 -0.0391071510 -1 -1
-0.0330691510 -0.0394062200 -1 -1
-0.0328810490 -0.0399865580 -1 -1
-0.0326947050 -0.0407740560 -1 -1
-0.0325403830 -0.0416832640 -1 -1
-0.0324441670 -0.0426272830 -1 -1
-0.0324239060 -0.0435250180 -1 -1
-0.0324897180 -0.0443051370 -1 -1
-0.0326474960 -0.0449082170 -1 -1
-0.0329012180 -0.0452894770 -1 -1
-0.0332516130 -0.0454234170 -1 -1
-0.0336926000 -0.0453090980 -1 -1
-0.0342076880 -0.0449728020 -1 -1
-0.0347674980 -0.0444656640 -1 -1
-0.0353299280 -0.0438568710 -1 -1
-0.0358442630 -0.0432247260 -1 -1
-0.0362583840 -0.0426477800 -1 -1
-0.0365267490 -0.0421974090 -1 -1
-0.0366166560 -0.0419320580 -1 -1
-0.0365110050 -0.0418925660 -1 -1
-0.0362075910 -0.0420981010 -1 -1
-0.0357166200 -0.0425423950 -1 -1
-0.0350582370 -0.0431911060 -1 -1
-0.0342607710 -0.0439830060 -1 -1
-0.0333602240 -0.0448367870 -1 -1
-0.0324013510 -0.0456613320 -1 -1
-0.0314385780 -0.0463656540 -1 -1
-0.0305333740 -0.0468672880 -1 -1
-0.0297472460 -0.0471000790 0 -1
-0.0291338630 -0.0470216110 0 -1
-0.0287337450 -0.0466190890 0 -1
-0.0285716270 -0.0459115850 0 -1
-0.0286547840 -0.0449468360 0 -1
-0.0289712050 -0.0437930600 0 -1
-0.0294879980 -0.0425286900 0 -1
-0.0301518470 -0.0412328450 -1 -1
-0.0308931830 -0.0399776740 -1 -1
-0.0316340580 -0.0388228990 -1 -1
-0.0322981160 -0.0378131620 -1 -1
-0.0328203150 -0.0369783610 -1 -1
-0.0331546680 -0.0363355400 -1 -1
-0.0332800820 -0.0358901270 -1 -1
-0.0332050820 -0.0356360810 -1 -1
-0.0329695280 -0.0355566110 -1 -1
-0.0326390210 -0.0356269620 -1 -1
-0.0322911370 -0.0358183320 -1 -1
-0.0319984440 -0.0361006770 -1 -1
-0.0318141200 -0.0364437980 -1 -1
-0.0317637140 -0.0368182870 -1 -1
-0.0318450610 -0.0371974350 -1 -1
-0.0320359690 -0.0375594030 -1 -1
-0.0323058110 -0.0378889750 -1 -1
-0.0326261530 -0.0381793260 -1 -1
-0.0329773210 -0.0384337010 -1 -1
-0.0333497690 -0.0386658190 -1 -1
-0.0337410950 -0.0388980050 -1 -1
-0.0341513090 -0.0391573670 -1 -1
-0.0345787680 -0.0394713190 -1 -1
-0.0350171140 -0.0398636570 -1 -1
-0.0354522310 -0.0403512560 -1 -1
-0.0358592160 -0.0409410590 -1 -1
-0.0362016010 -0.0416278770 -1 -1
-0.0364350310 -0.0423943130 -1 -1
-0.0365150870 -0.0432127470 -1 -1
-0.0364069720 -0.0440471110 -1 -1
-0.0360944640 -0.0448526220 -1 -1
-0.0355860410 -0.0455749000 -1 -1
-0.0349155930 -0.0461518670 -1 -1
-0.0341356260 -0.0465202960 -1 -1
-0.0333059650 -0.0466261130 -1 -1
-0.0324855160 -0.0464360260 -1 -1
-0.0317299880 -0.0459472720 -1 -1
-0.0310903480 -0.0451915730 -1 -1
-0.0306069080 -0.0442307280 -1 -1
-0.0303007350 -0.0431455470 -1 -1
-0.0301679950 -0.0420235200 -1 -1
-0.0301805980 -0.0409493690 -1 -1
-0.0302922510 -0.0399981980 -1 -1
-0.0304466340 -0.0392290300 -1 -1
-0.0305846130 -0.0386790620 -1 -1
-0.0306500780 -0.0383614190 -1 -1
-0.0305966920 -0.0382679170 -1 -1
-0.0303960130 -0.0383755740 -1 -1
-0.0300433000 -0.0386536760 -1 -1
-0.0295575400 -0.0390680370 0 -1
-0.0289765850 -0.0395814630 0 -1
-0.0283507580 -0.0401520440 0 -1
-0.0277366990 -0.0407313100 0 -1
-0.0271907300 -0.0412641390 0 -1
-0.0267613230 -0.0416918520 0 -1
-0.0264828860 -0.0419584210 0 -1
-0.0263733940 -0.0420184540 0 -1
-0.0264354290 -0.0418458060 0 -1
-0.0266586280 -0.0414414930 0 -1
-0.0270226020 -0.0408386250 0 -1
-0.0274998540 -0.0401016210 0 -1
-0.0280578810 -0.0393184720 0 -1
-0.0286609250 -0.0385876990 0 -1
-0.0292729490 -0.0380032990 0 -1
-0.0298616990 -0.0376407140 0 -1
-0.0304024670 -0.0375463660 -1 -1
-0.0308813020 -0.0377329830 -1 -1
-0.0312973400 -0.0381814860 -1 -1
-0.0316622230 -0.0388478770 -1 -1
-0.0319953960 -0.0396724000 -1 -1
-0.0323170260 -0.0405886030 -1 -1
-0.0326417070 -0.0415306500 -1 -1
-0.0329756220 -0.0424376900 -1 -1
-0.0333178420 -0.0432548540 -1 -1
-0.0336632930 -0.0439321390 -1 -1
-0.0340046010 -0.0444241720 -1 -1
-0.0343335000 -0.0446932630 -1 -1
-0.0346430360 -0.0447150730 -1 -1
-0.0349281630 -0.0444843440 -1 -1
-0.0351824220 -0.0440191800 -1 -1
-0.0353931620 -0.0433632500 -1 -1
-0.0355396820 -0.0425845420 -1 -1
-0.0355957180 -0.0417691170 -1 -1
-0.0355340350 -0.0410096770 -1 -1
-0.0353309350 -0.0403906980 -1 -1
-0.0349707880 -0.0399737780 -1 -1
-0.0344509100 -0.0397877570 -1 -1
-0.0337848810 -0.0398265920 -1 -1
-0.0330020860 -0.0400545170 -1 -1
-0.0321434520 -0.0404156410 -1 -1
-0.0312549950 -0.0408452130 -1 -1
-0.0303808910 -0.0412805720 -1 -1
-0.0295570950 -0.0416695120 0 -1
-0.0288067250 -0.0419734070 0 -1
-0.0281404350 -0.0421644390 0 -1
-0.0275626920 -0.0422203420 0 -1
-0.0270781130 -0.0421216290 0 -1
-0.0266920450 -0.0418538050 0 -1
-0.0264070450 -0.0414133300 0 -1
-0.0262200790 -0.0408139480 0 -1
-0.0261225540 -0.0400903140 0 -1
-0.0261027550 -0.0392976660 0 -1
-0.0261488720 -0.0385077020 0 -1
-0.0262510470 -0.0378009850 0 -1
-0.0264028610 -0.0372564920 0 -1
-0.0266026240 -0.0369398150 0 -1
-0.0268526740 -0.0368928240 0 -1
-0.0271549120 -0.0371274030 0 -1
-0.0275046830 -0.0376232050 0 -1
-0.0278886090 -0.0383278900 0 -1
-0.0282892760 -0.0391606220 0 -1
-0.0286927960 -0.0400213930 0 -1
-0.0290939740 -0.0408055200 0 -1
-0.0294979460 -0.0414183810 0 -1
-0.0299182720 -0.0417857550 0 -1
-0.0303710870 -0.0418591660 -1 -1
-0.0308679400 -0.0416186620 -1 -1
-0.0314109080 -0.0410752340 -1 -1
-0.0319900060 -0.0402728420 -1 -1
-0.0325814180 -0.0392877670 -1 -1
-0.0331474230 -0.0382224810 -1 -1
-0.0336398040 -0.0371929760 -1 -1
-0.0340068410 -0.0363113740 -1 -1
-0.0342018990 -0.0356683390 -1 -1
-0.0341906250 -0.0353205640 -1 -1
-0.0339551190 -0.0352860570 -1 -1
-0.0334954970 -0.0355458250 -1 -1
-0.0328294520 -0.0360488090 -1 -1
-0.0319901360 -0.0367186610 -1 -1
-0.0310235530 -0.0374629090 -1 -1
-0.0299865100 -0.0381844040 0 -1
-0.0289443520 -0.0387929380 0 -1
-0.0279665370 -0.0392146370 0 -1
-0.0271191660 -0.0393979790 0 -1
-0.0264554260 -0.0393168500 0 -1
-0.0260067010 -0.0389716070 0 -1
-0.0257784640 -0.0383885510 0 -1
-0.0257539410 -0.0376168990 0 -1
-0.0259038750 -0.0367219140 0 -1
-0.0261968960 -0.0357747280 0 -1
-0.0266060490 -0.0348424550 0 -1
-0.0271103790 -0.0339826150 0 -1
-0.0276919040 -0.0332423490 0 -1
-0.0283287690 -0.0326591830 0 -1
-0.0289880380 -0.0322599780 0 -1
-0.0296238410 -0.0320576010 0 -1
-0.0301833290 -0.0320476910 -1 -1
-0.0306167860 -0.0322085520 -1 -1
-0.0308862300 -0.0325054770 -1 -1
-0.0309697370 -0.0328978060 -1 -1
-0.0308623240 -0.0333453990 -1 -1
-0.0305749980 -0.0338125560 -1 -1
-0.0301328580 -0.0342694630 -1 -1
-0.0295727510 -0.0346920060 0 -1
-0.0289400420 -0.0350611420 0 -1
-0.0282828120 -0.0353636320 0 -1
-0.0276436700 -0.0355949140 0 -1
-0.0270536840 -0.0357623440 0 -1
-0.0265326350 -0.0358864290 0 -1
-0.0260928630 -0.0359993520 0 -1
-0.0257408920 -0.0361412040 0 -1
-0.0254763380 -0.0363545730 0 -1
-0.0252920210 -0.0366786590 0 -1
-0.0251771700 -0.0371442550 0 -1
-0.0251225450 -0.0377699460 0 -1
-0.0251254310 -0.0385585360 0 -1
-0.0251919810 -0.0394933760 0 -1
-0.0253346420 -0.0405365220 0 -1
-0.0255663890 -0.0416305920 0 -1
-0.0258966390 -0.0427039700 0 -1
-0.0263303920 -0.0436778170 0 -1
-0.0268677370 -0.0444736770 0 -1
-0.0275020500 -0.0450208320 0 -1
-0.0282183610 -0.0452625310 0 -1
-0.0289938280 -0.0451606210 0 -1
-0.0298010070 -0.0446988620 0 -1
-0.0306132960 -0.0438853420 -1 -1
-0.0314107630 -0.0427534730 -1 -1
-0.0321832460 -0.0413607230 -1 -1
-0.0329279110 -0.0397849930 -1 -1
-0.0336419740 -0.0381190850 -1 -1
-0.0343150540 -0.0364634600 -1 -1
-0.0349256530 -0.0349178590 -1 -1
-0.0354430520 -0.0335729490 -1 -1
-0.0358330020 -0.0325027870 -1 -1
-0.0360645550 -0.0317580770 -1 -1
-0.0361152230 -0.0313609330 -1 -1
-0.0359725940 -0.0313028270 -1 -1
-0.0356332560 -0.0315464080 -1 -1
-0.0351023390 -0.0320300900 -1 -1
-0.0343960660 -0.0326748020 -1 -1
-0.0335464240 -0.0333938960 -1 -1
-0.0326049800 -0.0341055820 -1 -1
-0.0316424500 -0.0347432930 -1 -1
-0.0307421350 -0.0352596800 -1 -1
-0.0299889570 -0.0356250860 0 -1
-0.0294575510 -0.0358244170 0 -1
-0.0292015020 -0.0358551570 0 -1
-0.0292449970 -0.0357272150 0 -1
-0.0295790840 -0.0354639180 0 -1
-0.0301644350 -0.0351020980 -1 -1
-0.0309399460 -0.0346890140 -1 -1
-0.0318333010 -0.0342751810 -1 -1
-0.0327691280 -0.0339045780 -1 -1
-0.0336733370 -0.0336058800 -1 -1
-0.0344755170 -0.0333881450 -1 -1
-0.0351124530 -0.0332418540 -1 -1
-0.0355345030 -0.0331439320 -1 -1
-0.0357126790 -0.0330645700 -1 -1
-0.0356414290 -0.0329737950 -1 -1
-0.0353358080 -0.0328462970 -1 -1
-0.0348272030 -0.0326641570 -1 -1
-0.0341606340 -0.0324181310 -1 -1
-0.0333921160 -0.0321081200 -1 -1
-0.0325839270 -0.0317426300 -1 -1
-0.0317970670 -0.0313367150 -1 -1
-0.0310818780 -0.0309088420 -1 -1
-0.0304706800 -0.0304775360 -1 -1
-0.0299763880 -0.0300582650 0 -1
-0.0295974490 -0.0296614020 0 0
-0.0293263640 -0.0292925640 0 0
-0.0291572920 -0.0289555620 0 0
-0.0290878630 -0.0286564060 0 0
-0.0291140720 -0.0284062280 0 0
-0.0292234500 -0.0282217170 0 0
-0.0293936360 -0.0281227760 0 0
-0.0295981200 -0.0281280130 0 0
-0.0298145810 -0.0282488550 0 0
-0.0300305660 -0.0284835200 -1 0
-0.0302441440 -0.0288131280 -1 0
-0.0304592380 -0.0292019140 -1 0
-0.0306776520 -0.0296010370 -1 0
-0.0308934090 -0.0299539390 -1 0
-0.0310951500 -0.0302024110 -1 -1
-0.0312752330 -0.0302943750 -1 -1
-0.0314369550 -0.0301937000 -1 -1
-0.0315931640 -0.0298899690 -1 0
-0.0317574360 -0.0294050850 -1 0
-0.0319345410 -0.0287942740 -1 0
-0.0321162180 -0.0281402100 -1 0
-0.0322831790 -0.0275410620 -1 0
-0.0324101980 -0.0270956340 -1 0
-0.0324708310 -0.0268891000 -1 0
-0.0324404570 -0.0269812500 -1 0
-0.0322988240 -0.0273983040 -1 0
-0.0320341180 -0.0281294300 -1 0
-0.0316483010 -0.0291286290 -1 0
-0.0311606420 -0.0303210090 -1 -1
-0.0306066850 -0.0316112010 -1 -1
-0.0300328580 -0.0328922700 -1 -1
-0.0294895580 -0.0340548380 0 -1
-0.0290256120 -0.0349967720 0 -1
-0.0286850480 -0.0356332240 0 -1
-0.0285053360 -0.0359060540 0 -1
-0.0285157610 -0.0357915930 0 -1
-0.0287351210 -0.0353049860 0 -1
-0.0291690450 -0.0344982730 0 -1
-0.0298079640 -0.0334513290 0 -1
-0.0306263000 -0.0322589500 -1 -1
-0.0315826560 -0.0310184410 -1 -1
-0.0326214800 -0.0298196950 -1 0
-0.0336775290 -0.0287385940 -1 0
-0.0346832100 -0.0278348700 -1 0
-0.0355768510 -0.0271540710 -1 0
-0.0363091030 -0.0267309750 -1 0
-0.0368455980 -0.0265915770 -1 0
-0.0371663260 -0.0267525540 -1 0
-0.0372640370 -0.0272190660 -1 0
-0.0371436130 -0.0279820920 -1 0
-0.0368227740 -0.0290157150 -1 0
-0.0363331210 -0.0302744150 -1 -1
-0.0357196280 -0.0316912670 -1 -1
-0.0350368210 -0.0331791950 -1 -1
-0.0343420730 -0.0346374340 -1 -1
-0.0336889900 -0.0359631350 -1 -1
-0.0331235430 -0.0370653510 -1 -1
-0.0326830790 -0.0378773680 -1 -1
-0.0323958530 -0.0383637530 -1 -1
-0.0322784580 -0.0385204670 -1 -1
-0.0323311790 -0.0383694790 -1 -1
-0.0325340180 -0.0379510250 -1 -1
-0.0328467050 -0.0373159810 -1 -1
-0.0332144410 -0.0365199440 -1 -1
-0.0335779650 -0.0356200250 -1 -1
-0.0338839130 -0.0346736420 -1 -1
-0.0340917990 -0.0337369480 -1 -1
-0.0341764500 -0.0328609370 -1 -1
-0.0341275130 -0.0320852440 -1 -1
-0.0339487980 -0.0314316690 -1 -1
-0.0336580070 -0.0309003020 -1 -1
-0.0332852150 -0.0304700640 -1 -1
-0.0328691510 -0.0301034100 -1 -1
-0.0324511900 -0.0297536830 -1 0
-0.0320665800 -0.0293737040 -1 0
-0.0317346160 -0.0289243050 -1 0
-0.0314540290 -0.0283815400 -1 0
-0.0312084350 -0.0277415500 -1 0
-0.0309775910 -0.0270226440 -1 0
-0.0307450240 -0.0262645400 -1 0
-0.0304983480 -0.0255247320 -1 0
-0.0302272250 -0.0248718440 -1 0
-0.0299245330 -0.0243763880 0 0
-0.0295898950 -0.0241006540 0 0
-0.0292308290 -0.0240901890 0 0
-0.0288598040 -0.0243681210 0 0
-0.0284898730 -0.0249316120 0 0
-0.0281314290 -0.0257498050 0 0
-0.0277905830 -0.0267647920 0 0
-0.0274697480 -0.0278974260 0 0
-0.0271709900 -0.0290572970 0 0
-0.0269005020 -0.0301537880 0 -1
-0.0266711630 -0.0311053630 0 -1
-0.0265013750 -0.0318460850 0 -1
-0.0264104560 -0.0323295310 0 -1
-0.0264124090 -0.0325312190 0 -1
-0.0265108690 -0.0324506420 0 -1
-0.0266980550 -0.0321120520 0 -1
-0.0269586070 -0.0315620990 0 -1
-0.0272755850 -0.0308648100 0 -1
-0.0276344460 -0.0300963230 0 -1
-0.0280242380 -0.0293399830 0 0
-0.0284382480 -0.0286798510 0 0
-0.0288743130 -0.0281918870 0 0
-0.0293325920 -0.0279351680 0 0
-0.0298107430 -0.0279458740 0 0
-0.0302988930 -0.0282344120 -1 0
-0.0307764270 -0.0287842850 -1 0
-0.0312123410 -0.0295520170 -1 0
-0.0315708780 -0.0304690640 -1 -1
-0.0318205630 -0.0314475360 -1 -1
-0.0319420060 -0.0323908940 -1 -1
-0.0319323650 -0.0332081340 -1 -1
-0.0318065580 -0.0338271450 -1 -1
-0.0315948750 -0.0342030800 -1 -1
-0.0313377400 -0.0343207250 -1 -1
-0.0310802450 -0.0341929760 -1 -1
-0.0308678510 -0.0338578600 -1 -1
-0.0307421890 -0.0333745490 -1 -1
-0.0307357240 -0.0328172490 -1 -1
-0.0308655830 -0.0322666310 -1 -1
-0.0311287350 -0.0318003050 -1 -1
-0.0315020540 -0.0314847250 -1 -1
-0.0319484740 -0.0313701630 -1 -1
-0.0324258700 -0.0314889190 -1 -1
-0.0328940500 -0.0318556960 -1 -1
-0.0333185780 -0.0324685610 -1 -1
-0.0336732150 -0.0333091750 -1 -1
-0.0339425140 -0.0343422690 -1 -1
-0.0341236530 -0.0355159560 -1 -1
-0.0342256020 -0.0367643470 -1 -1
-0.0342647770 -0.0380120370 -1 -1
-0.0342586750 -0.0391790200 -1 -1
-0.0342215570 -0.0401855250 -1 -1
-0.0341650370 -0.0409575590 -1 -1
-0.0341007610 -0.0414338560 -1 -1
-0.0340405000 -0.0415736030 -1 -1
-0.0339937650 -0.0413626860 -1 -1
-0.0339662420 -0.0408160930 -1 -1
-0.0339598140 -0.0399761960 -1 -1
-0.0339714330 -0.0389080530 -1 -1
-0.0339884110 -0.0376921850 -1 -1
-0.0339823030 -0.0364152950 -1 -1
-0.0339079600 -0.0351612170 -1 -1
-0.0337113360 -0.0340043830 -1 -1
-0.0333423140 -0.0330051310 -1 -1
-0.0327662410 -0.0322045880 -1 -1
-0.0319709980 -0.0316194840 -1 -1
-0.0309707030 -0.0312400440 -1 -1
-0.0298080710 -0.0310324440 0 -1
-0.0285546320 -0.0309441030 0 -1
-0.0273066690 -0.0309101210 0 -1
-0.0261757760 -0.0308609240 0 -1
-0.0252739470 -0.0307314420 0 -1
-0.0246957000 -0.0304704130 0 -1
-0.0245027370 -0.0300472430 0 -1
-0.0247155480 -0.0294549620 0 0
-0.0253125770 -0.0287093800 0 0
-0.0262358550 -0.0278449790 0 0
-0.0274015950 -0.0269087340 0 0
-0.0287129260 -0.0259535100 0 0
-0.0300713720 -0.0250324910 -1 0
-0.0313853050 -0.0241957110 -1 0
-0.0325762320 -0.0234890150 -1 0
-0.0335849240 -0.0229542270 -1 0
-0.0343763910 -0.0226283580 -1 0
-0.0349392280 -0.0225403370 -1 0
-0.0352778960 -0.0227057770 -1 0
-0.0354032220 -0.0231219320 -1 0
-0.0353272910 -0.0237651510 -1 0
-0.0350634320 -0.0245921440 -1 0
-0.0346277390 -0.0255449580 -1 0
-0.0340392190 -0.0265580300 -1 0
-0.0333186470 -0.0275650940 -1 0
-0.0324877590 -0.0285043650 -1 0
-0.0315701970 -0.0293214610 -1 0
-0.0305940090 -0.0299706540 -1 0
-0.0295935700 -0.0304164990 0 -1
-0.0286083700 -0.0306376950 0 -1
-0.0276786460 -0.0306325220 0 -1
-0.0268405280 -0.0304227250 0 -1
-0.0261228260 -0.0300528170 0 -1
-0.0255452090 -0.0295843400 0 0
-0.0251165660 -0.0290873880 0 0
-0.0248334570 -0.0286324510 0 0
-0.0246798200 -0.0282841770 0 0
-0.0246290180 -0.0280966940 0 0
-0.0246479490 -0.0281092370 0 0
-0.0247019120 -0.0283411170 0 0
-0.0247591210 -0.0287866350 0 0
-0.0247947770 -0.0294123240 0 0
-0.0247947690 -0.0301587250 0 -1
-0.0247583780 -0.0309472800 0 -1
-0.0246988850 -0.0316915210 0 -1
-0.0246412720 -0.0323102700 0 -1
-0.0246174580 -0.0327392020 0 -1
-0.0246609370 -0.0329378610 0 -1
-0.0248015310 -0.0328921100 0 -1
-0.0250590960 -0.0326139000 0 -1
-0.0254371970 -0.0321393120 0 -1
-0.0259199760 -0.0315242770 0 -1
-0.0264728150 -0.0308376570 0 -1
-0.0270449820 -0.0301526590 0 -1
-0.0275742550 -0.0295379810 0 0
-0.0279949690 -0.0290499190 0 0
-0.0282488910 -0.0287265110 0 0
-0.0282961440 -0.0285845540 0 0
-0.0281233430 -0.0286195080 0 0
-0.0277460830 -0.0288073590 0 0
-0.0272041750 -0.0291074480 0 0
-0.0265526520 -0.0294663770 0 0
-0.0258541910 -0.0298236850 0 0
-0.0251748180 -0.0301190110 0 -1
-0.0245798220 -0.0302993400 0 -1
-0.0241273000 -0.0303245050 0 -1
-0.0238607700 -0.0301693140 0 -1
-0.0238037280 -0.0298222240 0 0
-0.0239570630 -0.0292825310 0 0
-0.0242992320 -0.0285585200 0 0
-0.0247903910 -0.0276678380 0 0
-0.0253814810 -0.0266402110 0 0
-0.0260253380 -0.0255206340 0 0
-0.0266842180 -0.0243695200 0 0
-0.0273302590 -0.0232577420 0 0
-0.0279401180 -0.0222580900 0 0
-0.0284884330 -0.0214359440 0 0
-0.0289445410 -0.0208409240 0 0
-0.0292741740 -0.0205011680 0 0
-0.0294453210 -0.0204221220 0 0
-0.0294360710 -0.0205897130 0 0
-0.0292417060 -0.0209752510 0 0
-0.0288786640 -0.0215391530 0 0
-0.0283847550 -0.0222324570 0 0
-0.0278166500 -0.0229973330 0 0
-0.0272443000 -0.0237687270 0 0
-0.0267407320 -0.0244786820 0 0
-0.0263684060 -0.0250635550 0 0
-0.0261670130 -0.0254725350 0 0
-0.0261470860 -0.0256746270 0 0
-0.0262892850 -0.0256621290 0 0
-0.0265470370 -0.0254505720 0 0
-0.0268519940 -0.0250756660 0 0
-0.0271225110 -0.0245876410 0 0
-0.0272740440 -0.0240441520 0 0
-0.0272303300 -0.0235037330 0 0
-0.0269345730 -0.0230212660 0 0
-0.0263594270 -0.0226453230 0 0
-0.0255136270 -0.0224158890 0 0
-0.0244426350 -0.0223608200 0 0
-0.0232225120 -0.0224907620 0 0
-0.0219496340 -0.0227948010 0 0
-0.0207290800 -0.0232400350 0 0
-0.0196623300 -0.0237760320 0 0
-0.0188350920 -0.0243425390 0 0
-0.0183074840 -0.0248784660 0 0
-0.0181078630 -0.0253306200 0 0
-0.0182302140 -0.0256605640 0 0
-0.0186355790 -0.0258482230 0 0
-0.0192590650 -0.0258921750 0 0
-0.0200219040 -0.0258076050 0 0
-0.0208441900 -0.0256226080 0 0
-0.0216535720 -0.0253730520 0 0
-0.0223889080 -0.0250971290 0 0
-0.0230011270 -0.0248316790 0 0
-0.0234540470 -0.0246107050 0 0
-0.0237261160 -0.0244638210 0 0
-0.0238113260 -0.0244124050 0 0
-0.0237167620 -0.0244642250 0 0
-0.0234569130 -0.0246099920 0 0
-0.0230478690 -0.0248244430 0 0
-0.0225050110 -0.0250707410 0 0
-0.0218452510 -0.0253047870 0 0
-0.0210914430 -0.0254778270 0 0
-0.0202755230 -0.0255385640 0 0
-0.0194397390 -0.0254363950 0 0
-0.0186373870 -0.0251262000 0 0
-0.0179323090 -0.0245749160 0 0
-0.0173942290 -0.0237702020 0 0
-0.0170891120 -0.0227292380 0 0
-0.0170672730 -0.0215028870 0 0
-0.0173530370 -0.0201719050 0 0
-0.0179386470 -0.0188366970 0 0
-0.0187834420 -0.0176048920 0 0
-0.0198185820 -0.0165799090 0 0
-0.0209571130 -0.0158509410 0 0
-0.0221074540 -0.0154833890 0 0
-0.0231862680 -0.0155099500 0 0
-0.0241268680 -0.0159249530 0 0
-0.0248821880 -0.0166847130 0 0
-0.0254247790 -0.0177137390 0 0
-0.0257482080 -0.0189143150 0 0
-0.0258712550 -0.0201778710 0 0
-0.0258403440 -0.0213975010 0 0
-0.0257249010 -0.0224797060 0 0
-0.0256053630 -0.0233529710 0 0
-0.0255577450 -0.0239725020 0 0
-0.0256397680 -0.0243215420 0 0
-0.0258825500 -0.0244092990 0 0
-0.0262895530 -0.0242658020 0 0
-0.0268415740 -0.0239352170 0 0
-0.0275035580 -0.0234699380 0 0
-0.0282288390 -0.0229270460 0 0
-0.0289610750 -0.0223666420 0 0
-0.0296375550 -0.0218496230 0 0
-0.0301960440 -0.0214324470 -1 0
-0.0305844080 -0.0211592950 -1 0
-0.0307704420 -0.0210552200 -1 0
-0.0307476530 -0.0211240080 -1 0
-0.0305333570 -0.0213511870 -1 0
-0.0301604040 -0.0217093310 -1 0
-0.0296680250 -0.0221625740 0 0
-0.0290961740 -0.0226700240 0 0
-0.0284841730 -0.0231896760 0 0
-0.0278720180 -0.0236832430 0 0
-0.0273012450 -0.0241200770 0 0
-0.0268121750 -0.0244780600 0 0
-0.0264373790 -0.0247419200 0 0
-0.0261950280 -0.0249021010 0 0
-0.0260858620 -0.0249563220 0 0
-0.0260946350 -0.0249127040 0 0
-0.0261950780 -0.0247923270 0 0
-0.0263564060 -0.0246295840 0 0
-0.0265483970 -0.0244686370 0 0
-0.0267435030 -0.0243555230 0 0
-0.0269164440 -0.0243283680 0 0
-0.0270419330 -0.0244093510 0 0
-0.0270921440 -0.0246009150 0 0
-0.0270367050 -0.0248865740 0 0
-0.0268463850 -0.0252348680 0 0
-0.0264993280 -0.0256041970 0 0
-0.0259877970 -0.0259467950 0 0
-0.0253233590 -0.0262116200 0 0
-0.0245390160 -0.0263473900 0 0
-0.0236876350 -0.0263066580 0 0
-0.0228363010 -0.0260502620 0 0
-0.0220562880 -0.0255516790 0 0
-0.0214090910 -0.0248021350 0 0
-0.0209319350 -0.0238167060 0 0
-0.0206286260 -0.0226395380 0 0
-0.0204697960 -0.0213454080 0 0
-0.0204021500 -0.0200352430 0 0
-0.0203630920 -0.0188246950 0 0
-0.0202953790 -0.0178280600 0 0
-0.0201573590 -0.0171422350 0 0
-0.0199275900 -0.0168341900 0 0
-0.0196045090 -0.0169332170 0 0
-0.0192017470 -0.0174286660 0 0
-0.0187411530 -0.0182734120 0 0
-0.0182469300 -0.0193917390 0 0
-0.0177422510 -0.0206892350 0 0
-0.0172475460 -0.0220626510 0 0
-0.0167801060 -0.0234083520 0 0
-0.0163552660 -0.0246285300 0 0
-0.0159883510 -0.0256347390 0 0
-0.0156962390 -0.0263493850 0 0
-0.0154980290 -0.0267077530 0 0
-0.0154134310 -0.0266628770 0 0
-0.0154573370 -0.0261924640 0 0
-0.0156318860 -0.0253052810 0 0
-0.0159196970 -0.0240447500 0 0
-0.0162812420 -0.0224877240 0 0
-0.0166577570 -0.0207377710 0 0
-0.0169800250 -0.0189146380 0 0
-0.0171813500 -0.0171425080 0 0
-0.0172117030 -0.0155395460 0 0
-0.0170505880 -0.0142104270 0 0
-0.0167155830 -0.0132406670 0 0
-0.0162624570 -0.0126895810 0 0
-0.0157755620 -0.0125816560 0 0
-0.0153515670 -0.0129005340 0 0
-0.0150817670 -0.0135895110 0 0
-0.0150377470 -0.0145581920 0 0
-0.0152631440 -0.0156930850 0 0
-0.0157721210 -0.0168710710 0 0
-0.0165528630 -0.0179745230 0 0
-0.0175724740 -0.0189046520 0 0
-0.0187805140 -0.0195895250 0 0
-0.0201124740 -0.0199867040 0 0
-0.0214971090 -0.0200839700 0 0
-0.0228683170 -0.0199006300 0 0
-0.0241764050 -0.0194880150 0 0
-0.0253919750 -0.0189262050 0 0
-0.0265002690 -0.0183159410 0 0
-0.0274907140 -0.0177671980 0 0
-0.0283488130 -0.0173870110 0 0
-0.0290532220 -0.0172683090 0 0
-0.0295765380 -0.0174798570 0 0
-0.0298885210 -0.0180570770 0 0
-0.0299614670 -0.0189953690 0 0
-0.0297768310 -0.0202485270 0 0
-0.0293312950 -0.0217328880 0 0
-0.0286402880 -0.0233358730 0 0
-0.0277378200 -0.0249278040 0 0
-0.0266737630 -0.0263763850 0 0
-0.0255109710 -0.0275622100 0 0
-0.0243225170 -0.0283923950 0 0
-0.0231865880 -0.0288097470 0 0
-0.0221781800 -0.0287965820 0 0
-0.0213602890 -0.0283738760 0 0
-0.0207770430 -0.0275968430 0 0
-0.0204485480 -0.0265475610 0 0
-0.0203674440 -0.0253250140 0 0
-0.0204989330 -0.0240330910 0 0
-0.0207851890 -0.0227679440 0 0
-0.0211529670 -0.0216068970 0 0
-0.0215227970 -0.0206008170 0 0
-0.0218190400 -0.0197707120 0 0
-0.0219801810 -0.0191091600 0 0
-0.0219676700 -0.0185872840 0 0
-0.0217711690 -0.0181661420 0 0
-0.0214083000 -0.0178083910 0 0
-0.0209181810 -0.0174858790 0 0
-0.0203509020 -0.0171822640 0 0
-0.0197569510 -0.0168929230 0 0
-0.0191794310 -0.0166238830 0 0
-0.0186500580 -0.0163892550 0 0
-0.0181890430 -0.0162064840 0 0
-0.0178077800 -0.0160903760 0 0
-0.0175118080 -0.0160474680 0 0
-0.0173019730 -0.0160723280 0 0
-0.0171739550 -0.0161477880 0 0
-0.0171172860 -0.0162500040 0 0
-0.0171143110 -0.0163563470 0 0
-0.0171398370 -0.0164524130 0 0
-0.0171632390 -0.0165352170 0 0
-0.0171536890 -0.0166116220 0 0
-0.0170864000 -0.0166935710 0 0
-0.0169469660 -0.0167928040 0 0
-0.0167326840 -0.0169167260 0 0
-0.0164517910 -0.0170659260 0 0
-0.0161225020 -0.0172339730 0 0
-0.0157729250 -0.0174099920 0 0
-0.0154405690 -0.0175834130 0 0
-0.0151689450 -0.0177486760 0 0
-0.0150009870 -0.0179072650 0 0
-0.0149721900 -0.0180660920 0 0
-0.0151070130 -0.0182336200 0 0
-0.0154188350 -0.0184159790 0 0
-0.0159093830 -0.0186150280 0 0
-0.0165644550 -0.0188293820 0 0
-0.0173491030 -0.0190576790 0 0
-0.0182078730 -0.0193020420 0 0
-0.0190713860 -0.0195693700 0 0
-0.0198665370 -0.0198685420 0 0
-0.0205279920 -0.0202038760 0 0
-0.0210095680 -0.0205684610 0 0
-0.0212924230 -0.0209410280 0 0
-0.0213862300 -0.0212873440 0 0
-0.0213233070 -0.0215655050 0 0
-0.0211496260 -0.0217332270 0 0
-0.0209166010 -0.0217537920 0 0
-0.0206749030 -0.0215988310 0 0
-0.0204689630 -0.0212496850 0 0
-0.0203306880 -0.0206999950 0 0
-0.0202737980 -0.0199604320 0 0
-0.0202917230 -0.0190641920 0 0
-0.0203603130 -0.0180695020 0 0
-0.0204443640 -0.0170553280 0 0
-0.0205058170 -0.0161101330 0 0
-0.0205114390 -0.0153176770 0 0
-0.0204384880 -0.0147445170 0 0
-0.0202774340 -0.0144318540 0 0
-0.0200313530 -0.0143923050 0 0
-0.0197125850 -0.0146110530 0 0
-0.0193383320 -0.0150504030 0 0
-0.0189268780 -0.0156569460 0 0
-0.0184951670 -0.0163703510 0 0
-0.0180576360 -0.0171320880 0 0
-0.0176259690 -0.0178922050 0 0
-0.0172096580 -0.0186128170 0 0
-0.0168177600 -0.0192679430 0 0
-0.0164620740 -0.0198405810 0 0
-0.0161606330 -0.0203188100 0 0
-0.0159399620 -0.0206923360 0 0
-0.0158352000 -0.0209499320 0 0
-0.0158874840 -0.0210775730 0 0
-0.0161383120 -0.0210575020 0 0
-0.0166208970 -0.0208689970 0 0
-0.0173493290 -0.0204910790 0 0
-0.0183097570 -0.0199070480 0 0
-0.0194600260 -0.0191110880 0 0
-0.0207387590 -0.0181162630 0 0
-0.0220768560 -0.0169611950 0 0
-0.0234043900 -0.0157126310 0 0
-0.0246526060 -0.0144625820 0 0
-0.0257555840 -0.0133194160 0 0
-0.0266552270 -0.0123929810 0 0
-0.0273090020 -0.0117760790 0 0
-0.0276967470 -0.0115271660 0 0
-0.0278227220 -0.0116595840 0 0
-0.0277116000 -0.0121400250 0 0
-0.0274008190 -0.0128952510 0 0
-0.0269336730 -0.0138242750 0 0
-0.0263558570 -0.0148131500 0 0
-0.0257151210 -0.0157498090 0 0
-0.0250617760 -0.0165372870 0 0
-0.0244472450 -0.0171044370 0 0
-0.0239192070 -0.0174129140 0 0
-0.0235147700 -0.0174588330 0 0
-0.0232549600 -0.0172695740 0 0
-0.0231427600 -0.0168984610 0 0
-0.0231647020 -0.0164189070 0 0
-0.0232944200 -0.0159170360 0 0
-0.0234960450 -0.0154816730 0 0
-0.0237263620 -0.0151926800 0 0
-0.0239372290 -0.0151101520 0 0
-0.0240804500 -0.0152670610 0 0
-0.0241143470 -0.0156672020 0 0
-0.0240089700 -0.0162878400 0 0
-0.0237484280 -0.0170842800 0 0
-0.0233310370 -0.0179947120 0 0
-0.0227684550 -0.0189457250 0 0
-0.0220849010 -0.0198582110 0 0
-0.0213167030 -0.0206528170 0 0
-0.0205107870 -0.0212556420 0 0
-0.0197213280 -0.0216050150 0 0
-0.0190056650 -0.0216577730 0 0
-0.0184198380 -0.0213924260 0 0
-0.0180130230 -0.0208087550 0 0
-0.0178214300 -0.0199262500 0 0
-0.0178626190 -0.0187843900 0 0
-0.0181301900 -0.0174447960 0 0
-0.0185898620 -0.0159917360 0 0
-0.0191799730 -0.0145275620 0 0
-0.0198183220 -0.0131629370 0 0
-0.0204136580 -0.0120042460 0 0
-0.0208786200 -0.0111406970 0 0
-0.0211426730 -0.0106330030 0 0
-0.0211641510 -0.0105056740 0 0
-0.0209380880 -0.0107446440 0 0
-0.0204958710 -0.0113002580 0 0
-0.0198971470 -0.0120936550 0 0
-0.0192190730 -0.0130246950 0 0
-0.0185469440 -0.0139816620 0 0
-0.0179659230 -0.0148535760 0 0
-0.0175520900 -0.0155432780 0 0
-0.0173625980 -0.0159773900 0 0
-0.0174266220 -0.0161114340 0 0
-0.0177400340 -0.0159320230 0 0
-0.0182656480 -0.0154580260 0 0
-0.0189384600 -0.0147401050 0 0
-0.0196749860 -0.0138567320 0 0
-0.0203863760 -0.0129053970 0 0
-0.0209932050 -0.0119895420 0 0
-0.0214366110 -0.0112044280 0 0
-0.0216813200 -0.0106263620 0 0
-0.0217119150 -0.0103073110 0 0
-0.0215278520 -0.0102731340 0 0
-0.0211405350 -0.0105227230 0 0
-0.0205711970 -0.0110277180 0 0
-0.0198473120 -0.0117348660 0 0
-0.0189984860 -0.0125731400 0 0
-0.0180555780 -0.0134651260 0 0
-0.0170549170 -0.0143389950 0 0
-0.0160444650 -0.0151371900 0 0
-0.0150861620 -0.0158207020 0 0
-0.0142506710 -0.0163696180 0 0
-0.0136052770 -0.0167808380 0 0
-0.0132003210 -0.0170646710 0 0
-0.0130612810 -0.0172429980 0 0
-0.0131893920 -0.0173493650 0 0
-0.0135670450 -0.0174272220 0 0
-0.0141625150 -0.0175226030 0 0
-0.0149321630 -0.0176727200 0 0
-0.0158221010 -0.0178961940 0 0
-0.0167721970 -0.0181893420 0 0
-0.0177228810 -0.0185288100 0 0
-0.0186221290 -0.0188784970 0 0
-0.0194300850 -0.0191983130 0 0
-0.0201215160 -0.0194522270 0 0
-0.0206870910 -0.0196136730 0 0
-0.0211325920 -0.0196672220 0 0
-0.0214739370 -0.0196066450 0 0
-0.0217286040 -0.0194310760 0 0
-0.0219089160 -0.0191420670 0 0
-0.0220224950 -0.0187429960 0 0
-0.0220777840 -0.0182402440 0 0
-0.0220873350 -0.0176452980 0 0
-0.0220652290 -0.0169775360 0 0
-0.0220211930 -0.0162668620 0 0
-0.0219564750 -0.0155541220 0 0
-0.0218646470 -0.0148875520 0 0
-0.0217364470 -0.0143158220 0 0
-0.0215654220 -0.0138804960 0 0
-0.0213520780 -0.0136109990 0 0
-0.0211057720 -0.0135230020 0 0
-0.0208441950 -0.0136190680 0 0
-0.0205907040 -0.0138897660 0 0
-0.0203709460 -0.0143143470 0 0
-0.0202107290 -0.0148613030 0 0
-0.0201356860 -0.0154894300 0 0
-0.0201708720 -0.0161496490 0 0
-0.0203377050 -0.0167880050 0 0
-0.0206478420 -0.0173500190 0 0
-0.0210966660 -0.0177860500 0 0
-0.0216598460 -0.0180568480 0 0
-0.0222947570 -0.0181382110 0 0
-0.0229469210 -0.0180236420 0 0
-0.0235606140 -0.0177247220 0 0
-0.0240905190 -0.0172699930 0 0
-0.0245093840 -0.0167029870 0 0
-0.0248087290 -0.0160787970 0 0
-0.0249939490 -0.0154584350 0 0
-0.0250768310 -0.0149017310 0 0
-0.0250680310 -0.0144609990 0 0
-0.0249716160 -0.0141774580 0 0
-0.0247832530 -0.0140804130 0 0
-0.0244926590 -0.0141873410 0 0
-0.0240899840 -0.0145029080 0 0
-0.0235743160 -0.0150162290 0 0
-0.0229614710 -0.0156974110 0 0
-0.0222884210 -0.0164959320 0 0
-0.0216121850 -0.0173433380 0 0
-0.0210019480 -0.0181609270 0 0
-0.0205264810 -0.0188704740 0 0
-0.0202422280 -0.0194039870 0 0
-0.0201864670 -0.0197094930 0 0
-0.0203760570 -0.0197533240 0 0
-0.0208089420 -0.0195207450 0 0
-0.0214656140 -0.0190153690 0 0
-0.0223104540 -0.0182575930 0 0
-0.0232941840 -0.0172836670 0 0
-0.0243570970 -0.0161464070 0 0
-0.0254319810 -0.0149158640 0 0
-0.0264474530 -0.0136772150 0 0
-0.0273331000 -0.0125247760 0 0
-0.0280264070 -0.0115526790 0 0
-0.0284805530 -0.0108427700 0 0
-0.0286721570 -0.0104510650 0 0
-0.0286064200 -0.0103964680 0 0
-0.0283160090 -0.0106559540 0 0
-0.0278540060 -0.0111680420 0 0
-0.0272858610 -0.0118439340 0 0
-0.0266827610 -0.0125839440 0 0
-0.0261137700 -0.0132948300 0 0
-0.0256356770 -0.0139030850 0 0
-0.0252847070 -0.0143618810 0 0
-0.0250748740 -0.0146527500 0 0
-0.0250032100 -0.0147838050 0 0
-0.0250575250 -0.0147854120 0 0
-0.0252215160 -0.0147045720 0 0
-0.0254756590 -0.0145992900 0 0
-0.0257968650 -0.0145321680 0 0
-0.0261603020 -0.0145612720 0 0
-0.0265431140 -0.0147291750 0 0
-0.0269269960 -0.0150543990 0 0
-0.0272979710 -0.0155291950 0 0
-0.0276450020 -0.0161246380 0 0
-0.0279595420 -0.0168008540 0 0
-0.0282356000 -0.0175176230 0 0
-0.0284690430 -0.0182406380 0 0
-0.0286566000 -0.0189415420 0 0
-0.0287953490 -0.0195934690 0 0
-0.0288826200 -0.0201659920 0 0
-0.0289171900 -0.0206229750 0 0
-0.0289024450 -0.0209244560 0 0
-0.0288487350 -0.0210315690 0 0
-0.0287720920 -0.0209129180 0 0
-0.0286907180 -0.0205509040 0 0
-0.0286220000 -0.0199463940 0 0
-0.0285801840 -0.0191202190 0 0
-0.0285728890 -0.0181116850 0 0
-0.0285960950 -0.0169761600 0 0
-0.0286307270 -0.0157827090 0 0
-0.0286440470 -0.0146102170 0 0
-0.0285950210 -0.0135401380 0 0
-0.0284417810 -0.0126460750 0 0
-0.0281512130 -0.0119822820 0 0
-0.0277089660 -0.0115741080 0 0
-0.0271251600 -0.0114132070 0 0
-0.0264331020 -0.0114584590 0 0
-0.0256825450 -0.0116415800 0 0
-0.0249305640 -0.0118768560 0 0
-0.0242331490 -0.0120757170 0 0
-0.0236401880 -0.0121647480 0 0
-0.0231937810 -0.0121018050 0 0
-0.0229272000 -0.0118843270 0 0
-0.0228625570 -0.0115471980 0 0
-0.0230076320 -0.0111516120 0 0
-0.0233535400 -0.0107693030 0 0
-0.0238748820 -0.0104673130 0 0
-0.0245326340 -0.0102968070 0 0
-0.0252779920 -0.0102866070 0 0
-0.0260552800 -0.0104404470 0 0
-0.0268041430 -0.0107377760 0 0
-0.0274623860 -0.0111392690 0 0
-0.0279702150 -0.0115974130 0 0
-0.0282762120 -0.0120692160 0 0
-0.0283449490 -0.0125255930 0 0
-0.0281640750 -0.0129532450 0 0
-0.0277475900 -0.0133486590 0 0
-0.0271345570 -0.0137078040 0 0
-0.0263846610 -0.0140174220 0 0
-0.0255714180 -0.0142527160 0 0
-0.0247741870 -0.0143824040 0 0
-0.0240715420 -0.0143778240 0 0
-0.0235366600 -0.0142212650 0 0
-0.0232321150 -0.0139110540 0 0
-0.0232024150 -0.0134638450 0 0
-0.0234660740 -0.0129145320 0 0
-0.0240106990 -0.0123131730 0 0
-0.0247937910 -0.0117187480 0 0
-0.0257493420 -0.0111908800 0 0
-0.0267973770 -0.0107815510 0 0
-0.0278533630 -0.0105290470 0 0
-0.0288364040 -0.0104554680 0 0
-0.0296765470 -0.0105670980 0 0
-0.0303211680 -0.0108560010 -1 0
-0.0307391270 -0.0113018870 -1 0
-0.0309215070 -0.0118738480 -1 0
-0.0308796900 -0.0125310840 -1 0
-0.0306427640 -0.0132220220 -1 0
-0.0302546510 -0.0138839570 -1 0
-0.0297691320 -0.0144466030 0 0
-0.0292429110 -0.0148398630 0 0
-0.0287308110 -0.0150033780 0 0
-0.0282846460 -0.0148959870 0 0
-0.0279512210 -0.0145042110 0 0
-0.0277661320 -0.0138483570 0 0
-0.0277460520 -0.0129842000 0 0
-0.0278840820 -0.0119990320 0 0
-0.0281500550 -0.0110029790 0 0
-0.0284944120 -0.0101174130 0 0
-0.0288531410 -0.0094614480 0 0
-0.0291530230 -0.0091370830 0 0
-0.0293188480 -0.0092146110 0 0
-0.0292845860 -0.0097218310 0 0
-0.0290069920 -0.0106407540 0 0
-0.0284756470 -0.0119128090 0 0
-0.0277141220 -0.0134499630 0 0
-0.0267723670 -0.0151471300 0 0
-0.0257146400 -0.0168921410 0 0
-0.0246074690 -0.0185727710 0 0
-0.0235101230 -0.0200829540 0 0
-0.0224689770 -0.0213302170 0 0
-0.0215172070 -0.0222445510 0 0
-0.0206791820 -0.0227873140 0 0
-0.0199752580 -0.0229581970 0 0
-0.0194228330 -0.0227978350 0 0
-0.0190338780 -0.0223835550 0 0
-0.0188113970 -0.0218176540 0 0
-0.0187466050 -0.0212109150 0 0
-0.0188182150 -0.0206662270 0 0
-0.0189939600 -0.0202665740 0 0
-0.0192328020 -0.0200688770 0 0
-0.0194872350 -0.0201029390 0 0
-0.0197067840 -0.0203738970 0 0
-0.0198429960 -0.0208667210 0 0
-0.0198548050 -0.0215518330 0 0
-0.0197135300 -0.0223910410 0 0
-0.0194069880 -0.0233428520 0 0
-0.0189415410 -0.0243660590 0 0
-0.0183414480 -0.0254204300 0 0
-0.0176465500 -0.0264644570 0 0
-0.0169103570 -0.0274521560 0 0
-0.0161987600 -0.0283317450 0 0
-0.0155857950 -0.0290480770 0 0
-0.0151422090 -0.0295486940 0 0
-0.0149173780 -0.0297913830 0 0
-0.0149212170 -0.0297511430 0 0
-0.0151148720 -0.0294261320 0 0
-0.0154163010 -0.0288421870 0 0
-0.0157208870 -0.0280534360 0 0
-0.0159295350 -0.0271359570 0 0
-0.0159726010 -0.0261744460 0 0
-0.0158217120 -0.0252459180 0 0
-0.0154895520 -0.0244062380 0 0
-0.0150221070 -0.0236841990 0 0
-0.0144871480 -0.0230843050 0 0
-0.0139608920 -0.0225954050 0 0
-0.0135153900 -0.0222002490 0 0
-0.0132098780 -0.0218818470 0 0
-0.0130868120 -0.0216254430 0 0
-0.0131700660 -0.0214176980 0 0
-0.0134631920 -0.0212451720 0 0
-0.0139483150 -0.0210932030 0 0
-0.0145876150 -0.0209459960 0 0
-0.0153282660 -0.0207889840 0 0
-0.0161091170 -0.0206133340 0 0
-0.0168665110 -0.0204205870 0 0
-0.0175394540 -0.0202249770 0 0
-0.0180777720 -0.0200522450 0 0
-0.0184540390 -0.0199354340 0 0
-0.0186721340 -0.0199090110 0 0
-0.0187643760 -0.0200030000 0 0
-0.0187780620 -0.0202388020 0 0
-0.0187590130 -0.0206274670 0 0
-0.0187390700 -0.0211693020 0 0
-0.0187306240 -0.0218532800 0 0
-0.0187284660 -0.0226564780 0 0
-0.0187174650 -0.0235445280 0 0
-0.0186823650 -0.0244726820 0 0
-0.0186147340 -0.0253872220 0 0
-0.0185145000 -0.0262283250 0 0
-0.0183881890 -0.0269347660 0 0
-0.0182476470 -0.0274496740 0 0
-0.0181099460 -0.0277267980 0 0
-0.0179954240 -0.0277369080 0 0
-0.0179215780 -0.0274737400 0 0
-0.0178947080 -0.0269584320 0 0
-0.0179043280 -0.0262402990 0 0
-0.0179243700 -0.0253914990 0 0
-0.0179213450 -0.0244952700 0 0
-0.0178652070 -0.0236309000 0 0
-0.0177368340 -0.0228608220 0 0
-0.0175289970 -0.0222245130 0 0
-0.0172427000 -0.0217400130 0 0
-0.0168828200 -0.0214100660 0 0
-0.0164555680 -0.0212288270 0 0
-0.0159680300 -0.0211867150 0 0
-0.0154291560 -0.0212726700 0 0
-0.0148520230 -0.0214732750 0 0
-0.0142568510 -0.0217681910 0 0
-0.0136721650 -0.0221238060 0 0
-0.0131316090 -0.0224895960 0 0
-0.0126678090 -0.0228007280 0 0
-0.0123077800 -0.0229870100 0 0
-0.0120727300 -0.0229859060 0 0
-0.0119802010 -0.0227563380 0 0
-0.0120439270 -0.0222897970 0 0
-0.0122690330 -0.0216161840 0 0
-0.0126444400 -0.0208034170 0 0
-0.0131372540 -0.0199505970 0 0
-0.0136934560 -0.0191743540 0 0
-0.0142457170 -0.0185897480 0 0
-0.0147257710 -0.0182906240 0 0
-0.0150773980 -0.0183357680 0 0
-0.0152658630 -0.0187443820 0 0
-0.0152809470 -0.0194993150 0 0
-0.0151347060 -0.0205531300 0 0
-0.0148574700 -0.0218330990 0 0
-0.0144932580 -0.0232453150 0 0
-0.0140936410 -0.0246805150 0 0
-0.0137106850 -0.0260230530 0 0
-0.0133903550 -0.0271619630 0 0
-0.0131663840 -0.0280015180 0 0
-0.0130554880 -0.0284694180 0 0
-0.0130566640 -0.0285233360 0 0
-0.0131552430 -0.0281572360 0 0
-0.0133288040 -0.0274062150 0 0
-0.0135522050 -0.0263464120 0 0
-0.0138012770 -0.0250875360 0 0
-0.0140555880 -0.0237584580 0 0
-0.0142995070 -0.0224889770 0 0
-0.0145207600 -0.0213920730 0 0
-0.0147081970 -0.0205505110 0 0
-0.0148510070 -0.0200100770 0 0
-0.0149392700 -0.0197798940 0 0
-0.0149645250 -0.0198382030 0 0
-0.0149198490 -0.0201407610 0 0
-0.0147997830 -0.0206294550 0 0
-0.0146010920 -0.0212397910 0 0
-0.0143252400 -0.0219065440 0 0
-0.0139817420 -0.0225674930 0 0
-0.0135894480 -0.0231659010 0 0
-0.0131737340 -0.0236526610 0 0
-0.0127623390 -0.0239885100 0 0
-0.0123842860 -0.0241462150 0 0
-0.0120712670 -0.0241124130 0 0
-0.0118564720 -0.0238887640 0 0
-0.0117682970 -0.0234924900 0 0
-0.0118216490 -0.0229568010 0 0
-0.0120113840 -0.0223305720 0 0
-0.0123107690 -0.0216754370 0 0
-0.0126758360 -0.0210594520 0 0
-0.0130542960 -0.0205484340 0 0
-0.0133954570 -0.0201970890 0 0
-0.0136585260 -0.0200413400 0 0
-0.0138191650 -0.0200918170 0 0
-0.0138741080 -0.0203289870 0 0
-0.0138418010 -0.0207027650 0 0
-0.0137570930 -0.0211393360 0 0
-0.0136604930 -0.0215542520 0 0
-0.0135857280 -0.0218678940 0 0
-0.0135507930 -0.0220192920 0 0
-0.0135559760 -0.0219755840 0 0
-0.0135887890 -0.0217356370 0 0
-0.0136326330 -0.0213276070 0 0
-0.0136750880 -0.0208016350 0 0
-0.0137123480 -0.0202199010 0 0
-0.0137477160 -0.0196464380 0 0
-0.0137846440 -0.0191383370 0 0
-0.0138179360 -0.0187392330 0 0
-0.0138275700 -0.0184759300 0 0
-0.0137785920 -0.0183580100 0 0
-0.0136292890 -0.0183786040 0 0
-0.0133459610 -0.0185152510 0 0
-0.0129174020 -0.0187318180 0 0
-0.0123620160 -0.0189822860 0 0
-0.0117251980 -0.0192160000 0 0
-0.0110696580 -0.0193839600 0 0
-0.0104637370 -0.0194460070 0 0
-0.0099721970 -0.0193775550 0 0
-0.0096512850 -0.0191734150 0 0
-0.0095467210 -0.0188464320 0 0
-0.0096916750 -0.0184205560 0 0
-0.0101037810 -0.0179208230 0 0
-0.0107825050 -0.0173655500 0 0
-0.0117072690 -0.0167654760 0 0
-0.0128355060 -0.0161295950 0 0
-0.0141016650 -0.0154724950 0 0
-0.0154201400 -0.0148190500 0 0
-0.0166935070 -0.0142062020 0 0
-0.0178241820 -0.0136827250 0 0
-0.0187260260 -0.0133066200 0 0
-0.0193335530 -0.0131393820 0 0
-0.0196083680 -0.0132370810 0 0
-0.0195421420 -0.0136390050 0 0
-0.0191551430 -0.0143559540 0 0
-0.0184912980 -0.0153615710 0 0
-0.0176121180 -0.0165901840 0 0
-0.0165905150 -0.0179428660 0 0
-0.0155044470 -0.0193006050 0 0
-0.0144312810 -0.0205409680 0 0
-0.0134443850 -0.0215538270 0 0
-0.0126116850 -0.0222531940 0 0
-0.0119937490 -0.0225845610 0 0
-0.0116400250 -0.0225278640 0 0
-0.0115841430 -0.0220959190 0 0
-0.0118392480 -0.0213293270 0 0
-0.0123939050 -0.0202904130 0 0
-0.0132101810 -0.0190579110 0 0
-0.0142259200 -0.0177214930 0 0
-0.0153614970 -0.0163743750 0 0
-0.0165292740 -0.0151040680 0 0
-0.0176443430 -0.0139835750 0 0
-0.0186361750 -0.0130658200 0 0
-0.0194584610 -0.0123826090 0 0
-0.0200925130 -0.0119467960 0 0
-0.0205431100 -0.0117549870 0 0
-0.0208305440 -0.0117896550 0 0
-0.0209837380 -0.0120214800 0 0
-0.0210368010 -0.0124122070 0 0
-0.0210272060 -0.0129170380 0 0
-0.0209919100 -0.0134859140 0 0
-0.0209610850 -0.0140642910 0 0
-0.0209530720 -0.0145949220 0 0
-0.0209730330 -0.0150220570 0 0
-0.0210140160 -0.0152984230 0 0
-0.0210591270 -0.0153936780 0 0
-0.0210857320 -0.0153015470 0 0
-0.0210717470 -0.0150422650 0 0
-0.0210015890 -0.0146583640 0 0
-0.0208690100 -0.0142050380 0 0
-0.0206757060 -0.0137392740 0 0
-0.0204266510 -0.0133120470 0 0
-0.0201247020 -0.0129650800 0 0
-0.0197679140 -0.0127304460 0 0
-0.0193523440 -0.0126300370 0 0
-0.0188792970 -0.0126728420 0 0
-0.0183620640 -0.0128503530 0 0
-0.0178280920 -0.0131327900 0 0
-0.0173156780 -0.0134694890 0 0
-0.0168656770 -0.0137947370 0 0
-0.0165107460 -0.0140368000 0 0
-0.0162680590 -0.0141267120 0 0
-0.0161400540 -0.0140060890 0 0
-0.0161218130 -0.0136358260 0 0
-0.0162098740 -0.0130060340 0 0
-0.0164070540 -0.0121443530 0 0
-0.0167199960 -0.0111188660 0 0
-0.0171509700 -0.0100333290 0 0
-0.0176887990 -0.0090147410 0 0
-0.0183028000 -0.0081952810 0 0
-0.0189421050 -0.0076919330 0 0
-0.0195414700 -0.0075878940 0 0
-0.0200314800 -0.0079203010 0 0
-0.0203494980 -0.0086767600 0 0
-0.0204495440 -0.0097992430 0 0
-0.0203107180 -0.0111924040 0 0
-0.0199428000 -0.0127346450 0 0
-0.0193867740 -0.0142919180 0 0
-0.0187096700 -0.0157343040 0 0
-0.0179958860 -0.0169526870 0 0
-0.0173368840 -0.0178701950 0 0
-0.0168192580 -0.0184452900 0 0
-0.0165118730 -0.0186686730 0 0
-0.0164547130 -0.0185587070 0 0
-0.0166520680 -0.0181581450 0 0
-0.0170713410 -0.0175317140 0 0
-0.0176478060 -0.0167628370 0 0
-0.0182942870 -0.0159477710 0 0
-0.0189136240 -0.0151859120 0 0
-0.0194118160 -0.0145674890 0 0
-0.0197105670 -0.0141624140 0 0
-0.0197584080 -0.0140132890 0 0
-0.0195389230 -0.0141324780 0 0
-0.0190731430 -0.0145019020 0 0
-0.0184142030 -0.0150755740 0 0
-0.0176360000 -0.0157855660 0 0
-0.0168202990 -0.0165504630 0 0
-0.0160462780 -0.0172842610 0 0
-0.0153836230 -0.0179045790 0 0
-0.0148877710 -0.0183399520 0 0
-0.0145969790 -0.0185353780 0 0
-0.0145326220 -0.0184549620 0 0
-0.0147026140 -0.0180820600 0 0
-0.0151050550 -0.0174194510 0 0
-0.0157291650 -0.0164908420 0 0
-0.0165534470 -0.0153416260 0 0
-0.0175437260 -0.0140364930 0 0
-0.0186537760 -0.0126544790 0 0
-0.0198286700 -0.0112830450 0 0
-0.0210082440 -0.0100112130 0 0
-0.0221285200 -0.0089212230 0 0
-0.0231233720 -0.0080794770 0 0
-0.0239312500 -0.0075289980 0 0
-0.0245066220 -0.0072857050 0 0
-0.0248289210 -0.0073391670 0 0
-0.0249031500 -0.0076561790 0 0
-0.0247535820 -0.0081847390 0 0
-0.0244158020 -0.0088578490 0 0
-0.0239313800 -0.0095986650 0 0
-0.0233458430 -0.0103280580 0 0
-0.0227073370 -0.0109737400 0 0
-0.0220640140 -0.0114788280 0 0
-0.0214609330 -0.0118080350 0 0
-0.0209377380 -0.0119504820 0 0
-0.0205269780 -0.0119187260 0 0
-0.0202522590 -0.0117447280 0 0
-0.0201261320 -0.0114749140 0 0
-0.0201487090 -0.0111652340 0 0
-0.0203076840 -0.0108741430 0 0
-0.0205784920 -0.0106518050 0 0
-0.0209231840 -0.0105277220 0 0
-0.0212895120 -0.0105019590 0 0
-0.0216143830 -0.0105443770 0 0
-0.0218339230 -0.0106026470 0 0
-0.0218964940 -0.0106150670 0 0
-0.0217720310 -0.0105218950 0 0
-0.0214550270 -0.0102711300 0 0
-0.0209635400 -0.0098193060 0 0
-0.0203367170 -0.0091309720 0 0
-0.0196306730 -0.0081801480 0 0
-0.0189114470 -0.0069539170 0 0
-0.0182460400 -0.0054550710 0 0
-0.0176946430 -0.0037005260 0 0
-0.0173052120 -0.0017158570 0 0
-0.0171093340 0.0004695530 0 0
-0.0171192700 0.0028220160 0 0
-0.0173266650 0.0052974290 0 0
-0.0177034060 0.0078339130 0 0
-0.0182061850 0.0103483480 0 0
-0.0187847780 0.0127396470 0 0
-0.0193903730 0.0148985170 0 0
-0.0199798720 0.0167212850 0 0
-0.0205145840 0.0181247730 0 0
-0.0209552340 0.0190598800 0 0
-0.0212590910 0.0195222100 0 0
-0.0213846340 0.0195577930 0 0
-0.0213030140 0.0192614780 0 0
-0.0210101120 0.0187664170 0 0
-0.0205326690 0.0182261280 0 0
-0.0199260300 0.0177942490 0 0
-0.0192653050 0.0176084430 0 0
-0.0186321470 0.0177818610 0 0
-0.0180992330 0.0184009990 0 0
-0.0177167040 0.0195261370 0 0
-0.0175047110 0.0211907810 0 0
-0.0174524170 0.0233998840 0 0
-0.0175219490 0.0261302970 0 0
-0.0176563620 0.0293371420 0 0
-0.0177903720 0.0329664810 0 1
-0.0178620820 0.0369708170 0 1
-0.0178233860 0.0413216660 0 1
-0.0176462530 0.0460131840 0 1
-0.0173236440 0.0510534340 0 1
-0.0168670020 0.0564458100 0 1
-0.0163024890 0.0621690040 0 1
-0.0156651340 0.0681641070 0 1
-0.0149900650 0.0743323730 0 1
-0.0143041790 0.0805428710 0 1
-0.0136226670 0.0866480850 0 1
-0.0129505990 0.0925049770 0 1
-0.0122865920 0.0979975040 0 1
-0.0116267920 0.1030550480 0 1
-0.0109689330 0.1076622640 0 1
-0.0103148760 0.1118591900 0 1
-0.0096693610 0.1157325770 0 1
-0.0090359330 0.1193993810 0 1
-0.0084131870 0.1229847100 0 1
-0.0077922700 0.1265993900 0 1
-0.0071569180 0.1303232540 0 1
-0.0064890680 0.1341981580 0 1
-0.0057781400 0.1382311020 0 1
-0.0050264490 0.1424047380 0 1
-0.0042473670 0.1466909710 0 1
-0.0034603830 0.1510634700 0 1
-0.0026879730 0.1555062860 0 1
-0.0019553620 0.1600175560 0 1
-0.0012910010 0.1646086000 0 1
-0.0007246160 0.1692993520 0 1
-0.0002825050 0.1741116560 0 1
0.0000161499 0.1790623120 0 1
0.0001594040 0.1841582280 0 1
0.0001412910 0.1893956450 0 1
-0.0000380138 0.1947632760 0 1
-0.0003712460 0.2002469910 0 1
-0.0008435910 0.2058330090 0 1
-0.0014316640 0.2115068190 0 1
-0.0021017400 0.2172466160 0 1
-0.0028096740 0.2230138710 0 1
-0.0035036950 0.2287468560 0 1
-0.0041292310 0.2343609240 0 1
-0.0046353790 0.2397543110 0 1
-0.0049823030 0.2448165520 0 1
-0.0051473560 0.2494387480 0 1
-0.0051282310 0.2535261570 0 1
-0.0049421890 0.2570117870 0 1
-0.0046200890 0.2598678540 0 1
-0.0041955390 0.2621123020 0 1
-0.0036931190 0.2638086440 0 1
-0.0031212360 0.2650579220 0 1
-0.0024727510 0.2659830220 0 1
-0.0017326080 0.2667086730 0 1
-0.0008882850 0.2673430850 0 1
0.0000617923 0.2679658550 0 1
0.0011036020 0.2686228730 0 1
0.0022056770 0.2693270940 0 1
0.0033202410 0.2700641320 0 1
0.0043886820 0.2708006300 0 1
0.0053504120 0.2714924450 0 1
0.0061513210 0.2720908760 0 1
0.0067492680 0.2725473880 0 1
0.0071176360 0.2728178140 0 1
0.0072481500 0.2728657580 0 1
0.0071514740 0.2726647210 0 1
0.0068539700 0.2721997320 0 1
0.0063922440 0.2714692040 0 1
0.0058084420 0.2704864470 0 1
0.0051468250 0.2692796960 0 1
0.0044502850 0.2678896020 0 1
0.0037570160 0.2663633340 0 1
0.0030984710 0.2647457230 0 1
0.0024979770 0.2630701810 0 1
0.0019686280 0.2613530240 0 1
0.0015111140 0.2595934960 0 1
0.0011141430 0.2577790050 0 1
0.0007595150 0.2558922720 0 1
0.0004296220 0.2539169490 0 1
0.0001120380 0.2518409200 0 1
-0.0002014020 0.2496579970 0 1
-0.0005183460 0.2473682050 0 1
-0.0008482120 0.2449764940 0 1
-0.0012006070 0.2424905300 0 1
-0.0015810250 0.2399186350 0 1
-0.0019874100 0.2372687820 0 1
-0.0024098780 0.2345493040 0 1
-0.0028329750 0.2317711710 0 1
-0.0032392860 0.2289506670 0 1
-0.0036137900 0.2261110470 0 1
-0.0039483670 0.2232818020 0 1
-0.0042465110 0.2204945290 0 1
-0.0045275540 0.2177766660 0 1
-0.0048266540 0.2151466650 0 1
-0.0051878650 0.2126131900 0 1
-0.0056535480 0.2101773940 0 1
-0.0062551950 0.2078355230 0 1
-0.0070074470 0.2055801990 0 1
-0.0079055690 0.2034003370 0 1
-0.0089270330 0.2012801460 0 1
-0.0100355640 0.1991972310 0 1
-0.0111842150 0.1971196010 0 1
-0.0123176640 0.1950030590 0 1
-0.0133768600 0.1927925300 0 1
-0.0143058530 0.1904293560 0 1
-0.0150583550 0.1878627700 0 1
-0.0156032780 0.1850620300 0 1
-0.0159284760 0.1820263670 0 1
-0.0160409810 0.1787902740 0 1
-0.0159636810 0.1754218680 0 1
-0.0157296540 0.1720138900 0 1
-0.0153756310 0.1686691410 0 1
-0.0149381190 0.1654837780 0 1
-0.0144560490 0.1625326070 0 1
-0.0139770500 0.1598599920 0 1
-0.0135581680 0.1574780810 0 1
-0.0132565520 0.1553710830 0 1
-0.0131152350 0.1535022050 0 1
-0.0131515820 0.1518200320 0 1
-0.0133519530 0.1502626820 0 1
-0.0136735920 0.1487604480 0 1
-0.0140542740 0.1472393620 0 1
-0.0144270230 0.1456271430 0 1
-0.0147340700 0.1438604390 0 1
-0.0149355650 0.1418913710 0 1
-0.0150122410 0.1396929730 0 1
-0.0149640620 0.1372636760 0 1
-0.0148070340 0.1346292130 0 1
-0.0145687910 0.1318397710 0 1
-0.0142837020 0.1289626020 0 1
-0.0139892150 0.1260730340 0 1
-0.0137238250 0.1232474370 0 1
-0.0135250700 0.1205595690 0 1
-0.0134263300 0.1180786450 0 1
-0.0134528980 0.1158662180 0 1
-0.0136190630 0.1139703650 0 1
-0.0139277270 0.1124179590 0 1
-0.0143717850 0.1112075430 0 1
-0.0149348490 0.1103058380 0 1
-0.0155910860 0.1096496060 0 1
-0.0163063200 0.1091524410 0 1
-0.0170410850 0.1087147550 0 1
-0.0177539680 0.1082352000 0 1
-0.0184036870 0.1076219760 0 1
-0.0189501620 0.1068024230 0 1
-0.0193561220 0.1057295520 0 1
-0.0195898110 0.1043852340 0 1
-0.0196282470 0.1027802600 0 1
-0.0194608660 0.1009514470 0 1
-0.0190931200 0.0989564280 0 1
-0.0185479520 0.0968671210 0 1
-0.0178629800 0.0947621230 0 1
-0.0170834640 0.0927180120 0 1
-0.0162541500 0.0908007390 0 1
-0.0154145810 0.0890594800 0 1
-0.0146000110 0.0875244290 0 1
-0.0138447370 0.0862077520 0 1
-0.0131833470 0.0851056240 0 1
-0.0126486130 0.0841996050 0 1
-0.0122674630 0.0834569590 0 1
-0.0120572900 0.0828313540 0 1
-0.0120246210 0.0822664440 0 1
-0.0121663970 0.0817030870 0 1
-0.0124716800 0.0810874150 0 1
-0.0129212680 0.0803760730 0 1
-0.0134850510 0.0795377730 0 1
-0.0141197610 0.0785528590 0 1
-0.0147704360 0.0774127290 0 1
-0.0153762710 0.0761205070 0 1
-0.0158786720 0.0746935660 0 1
-0.0162293670 0.0731666350 0 1
-0.0163969620 0.0715927890 0 1
-0.0163700600 0.0700399180 0 1
-0.0161562340 0.0685821370 0 1
-0.0157789970 0.0672879560 0 1
-0.0152757910 0.0662087210 0 1
-0.0146966020 0.0653704860 0 1
-0.0141001970 0.0647707980 0 1
-0.0135475660 0.0643801870 0 1
-0.0130951430 0.0641471630 0 1
-0.0127894120 0.0640055080 0 1
-0.0126625050 0.0638826220 0 1
-0.0127281300 0.0637074760 0 1
-0.0129784190 0.0634169070 0 1
-0.0133836110 0.0629600100 0 1
-0.0138958210 0.0623016380 0 1
-0.0144557700 0.0614261400 0 1
-0.0150006990 0.0603409480 0 1
-0.0154730990 0.0590782330 0 1
-0.0158293530 0.0576935360 0 1
-0.0160456340 0.0562616480 0 1
-0.0161192100 0.0548700590 0 1
-0.0160648760 0.0536103070 0 1
-0.0159067800 0.0525687600 0 1
-0.0156679170 0.0518188420 0 1
-0.0153625490 0.0514147730 0 1
-0.0149954180 0.0513848240 0 1
-0.0145663720 0.0517239400 0 1
-0.0140768330 0.0523895630 0 1
-0.0135358350 0.0533043450 0 1
-0.0129632820 0.0543651940 0 1
-0.0123875850 0.0554553720 0 1
-0.0118378910 0.0564563530 0 1
-0.0113354100 0.0572573240 0 1
-0.0108887110 0.0577619500 0 1
-0.0104943680 0.0578936290 0 1
-0.0101410380 0.0576007300 0 1
-0.0098139730 0.0568619340 0 1
-0.0094983280 0.0556904680 0 1
-0.0091821440 0.0541359890 0 1
-0.0088604200 0.0522828820 0 1
-0.0085386550 0.0502437800 0 1
-0.0082320870 0.0481486330 0 1
-0.0079603520 0.0461313340 0 1
-0.0077417180 0.0443158920 0 1
-0.0075898930 0.0428034710 0 1
-0.0075120240 0.0416613180 0 1
-0.0075061670 0.0409149040 0 1
-0.0075597050 0.0405457330 0 1
-0.0076510020 0.0404970180 0 1
-0.0077536460 0.0406859800 0 1
-0.0078405590 0.0410182840 0 1
-0.0078866430 0.0414004820 0 1
-0.0078709830 0.0417492980 0 1
-0.0077798010 0.0419989850 0 1
-0.0076102320 0.0421071170 0 1
-0.0073739860 0.0420570530 0 1
-0.0070988850 0.0418558880 0 1
-0.0068261150 0.0415293040 0 1
-0.0066033490 0.0411157180 0 1
-0.0064763600 0.0406611830 0 1
-0.0064817470 0.0402149570 0 1
-0.0066424530 0.0398251000 0 1
-0.0069665640 0.0395341500 0 1
-0.0074486370 0.0393755170 0 1
-0.0080723150 0.0393705240 0 1
-0.0088130970 0.0395253020 0 1
-0.0096402590 0.0398267590 0 1
-0.0105184450 0.0402381470 0 1
-0.0114105070 0.0406966990 0 1
-0.0122812270 0.0411167320 0 1
-0.0130997760 0.0414003100 0 1
-0.0138400740 0.0414539320 0 1
-0.0144796950 0.0412058130 0 1
-0.0149982430 0.0406177170 0 1
-0.0153767390 0.0396888180 0 1
-0.0155994660 0.0384530840 0 1
-0.0156573850 0.0369734350 0 1
-0.0155504920 0.0353355400 0 1
-0.0152885680 0.0336420180 0 1
-0.0148925000 0.0320051290 0 1
-0.0143962880 0.0305360970 0 1
-0.0138461430 0.0293323120 0 0
-0.0132949290 0.0284661090 0 0
-0.0127945090 0.0279783880 0 0
-0.0123889060 0.0278779520 0 0
-0.0121093450 0.0281445170 0 0
-0.0119713130 0.0287327180 0 0
-0.0119736570 0.0295762230 0 0
-0.0121001140 0.0305921050 0 1
-0.0123234450 0.0316857170 0 1
-0.0126114210 0.0327567730 0 1
-0.0129332190 0.0337064660 0 1
-0.0132645420 0.0344439830 0 1
-0.0135897800 0.0348921460 0 1
-0.0139004410 0.0349936860 0 1
-0.0141910500 0.0347179040 0 1
-0.0144549390 0.0340648920 0 1
-0.0146819630 0.0330654460 0 1
-0.0148592220 0.0317772420 0 1
-0.0149746930 0.0302790810 0 1
-0.0150223950 0.0286648940 0 0
-0.0150070840 0.0270382420 0 0
-0.0149452790 0.0255066060 0 0
-0.0148609530 0.0241741570 0 0
-0.0147804680 0.0231321350 0 0
-0.0147326530 0.0224473010 0 0
-0.0147514610 0.0221512840 0 0
-0.0148733490 0.0222347440 0 0
-0.0151272720 0.0226481920 0 0
-0.0155231250 0.0233081190 0 0
-0.0160458150 0.0241061970 0 0
-0.0166571660 0.0249203750 0 0
-0.0173020300 0.0256274100 0 0
-0.0179146900 0.0261161850 0 0
-0.0184266350 0.0263003070 0 0
-0.0187781970 0.0261277530 0 0
-0.0189314500 0.0255857200 0 0
-0.0188780120 0.0247004790 0 0
-0.0186388110 0.0235329880 0 0
-0.0182588060 0.0221704710 0 0
-0.0178000610 0.0207144120 0 0
-0.0173331950 0.0192671460 0 0
-0.0169271320 0.0179202090 0 0
-0.0166394670 0.0167462230 0 0
-0.0165099360 0.0157941840 0 0
-0.0165579990 0.0150873190 0 0
-0.0167836300 0.0146225310 0 0
-0.0171693430 0.0143709750 0 0
-0.0176821060 0.0142809590 0 0
-0.0182756040 0.0142844350 0 0
-0.0188944610 0.0143063060 0 0
-0.0194804990 0.0142744510 0 0
-0.0199787740 0.0141285040 0 0
-0.0203422900 0.0138257000 0 0
-0.0205367170 0.0133431060 0 0
-0.0205451680 0.0126775770 0 0
-0.0203696720 0.0118454630 0 0
-0.0200267610 0.0108818920 0 0
-0.0195397140 0.0098378910 0 0
-0.0189319730 0.0087750130 0 0
-0.0182228180 0.0077590430 0 0
-0.0174247450 0.0068541790 0 0
-0.0165440550 0.0061175090 0 0
-0.0155862550 0.0055931430 0 0
-0.0145642010 0.0053072190 0 0
-0.0135036090 0.0052665280 0 0
-0.0124416410 0.0054614610 0 0
-0.0114191430 0.0058705080 0 0
-0.0104709040 0.0064626070 0 0
-0.0096180170 0.0071965720 0 0
-0.0088643850 0.0080204790 0 0
-0.0081978610 0.0088741360 0 0
-0.0075949930 0.0096946570 0 0
-0.0070278140 0.0104230710 0 0
-0.0064714970 0.0110104520 0 0
-0.0059106430 0.0114230480 0 0
-0.0053420740 0.0116460160 0 0
-0.0047748020 0.0116849790 0 0
-0.0042293850 0.0115640660 0 0
-0.0037376920 0.0113203170 0 0
-0.0033420350 0.0109966460 0 0
-0.0030908170 0.0106351720 0 0
-0.0030286440 0.0102713540 0 0
-0.0031833900 0.0099302900 0 0
-0.0035567910 0.0096266030 0 0
-0.0041236840 0.0093666320 0 0
-0.0048393570 0.0091504700 0 0
-0.0056502400 0.0089730310 0 0
-0.0065027240 0.0088246280 0 0
-0.0073474530 0.0086912360 0 0
-0.0081399590 0.0085543440 0 0
-0.0088402820 0.0083910590 0 0
-0.0094138290 0.0081757220 0 0
-0.0098342530 0.0078829400 0 0
-0.0100873590 0.0074906620 0 0
-0.0101741890 0.0069830700 0 0
-0.0101114970 0.0063540250 0 0
-0.0099283110 0.0056108670 0 0
-0.0096598830 0.0047772460 0 0
-0.0093432780 0.0038931500 0 0
-0.0090163130 0.0030107840 0 0
-0.0087165310 0.0021871100 0 0
-0.0084784500 0.0014755440 0 0
-0.0083325050 0.0009189230 0 0
-0.0083079870 0.0005452060 0 0
-0.0084359200 0.0003668750 0 0
-0.0087461310 0.0003833470 0 0
-0.0092574320 0.0005834150 0 0
-0.0099660040 0.0009452980 0 0
-0.0108394950 0.0014351100 0 0
-0.0118210600 0.0020066210 0 0
-0.0128416530 0.0026044500 0 0
-0.0138344960 0.0031708860 0 0
-0.0147452880 0.0036547870 0 0
-0.0155357770 0.0040200170 0 0
-0.0161825120 0.0042512250 0 0
-0.0166731290 0.0043553730 0 0
-0.0170017550 0.0043578960 0 0
-0.0171659560 0.0042940110 0 0
-0.0171677430 0.0041981720 0 0
-0.0170178020 0.0040958780 0 0
-0.0167390300 0.0040008450 0 0
-0.0163669390 0.0039175340 0 0
-0.0159471330 0.0038459720 0 0
-0.0155301380 0.0037852840 0 0
-0.0151637860 0.0037341480 0 0
-0.0148857390 0.0036886770 0 0
-0.0147194120 0.0036396430 0 0
-0.0146726530 0.0035709910 0 0
-0.0147363070 0.0034602140 0 0
-0.0148834080 0.0032801720 0 0
-0.0150728200 0.0030023610 0 0
-0.0152576790 0.0026019080 0 0
-0.0153939740 0.0020631410 0 0
-0.0154451630 0.0013833940 0 0
-0.0153837110 0.0005739120 0 0
-0.0151931200 -0.0003412050 0 0
-0.0148719230 -0.0013268200 0 0
-0.0144373970 -0.0023391640 0 0
-0.0139255830 -0.0033288810 0 0
-0.0133857650 -0.0042440070 0 0
-0.0128705950 -0.0050322430 0 0
-0.0124255700 -0.0056434970 0 0
-0.0120816120 -0.0060346450 0 0
-0.0118521530 -0.0061766030 0 0
-0.0117343500 -0.0060610940 0 0
-0.0117138680 -0.0057037670 0 0
-0.0117724820 -0.0051420020 0 0
-0.0118961160 -0.0044286860 0 0
-0.0120789010 -0.0036254220 0 0
-0.0123199340 -0.0027983540 0 0
-0.0126149310 -0.0020166700 0 0
-0.0129492150 -0.0013511440 0 0
-0.0132967900 -0.0008702580 0 0
-0.0136254130 -0.0006330240 0 0
-0.0139046260 -0.0006793620 0 0
-0.0141128940 -0.0010212190 0 0
-0.0142407690 -0.0016385420 0 0
-0.0142893340 -0.0024813930 0 0
-0.0142655250 -0.0034757030 0 0
-0.0141774720 -0.0045299320 0 0
-0.0140330910 -0.0055432050 0 0
-0.0138422930 -0.0064168050 0 0
-0.0136204460 -0.0070675980 0 0
-0.0133906140 -0.0074390080 0 0
-0.0131822920 -0.0075066860 0 0
-0.0130244480 -0.0072795220 0 0
-0.0129344550 -0.0067977170 0 0
-0.0129099290 -0.0061278650 0 0
-0.0129297140 -0.0053539920 0 0
-0.0129633080 -0.0045656380 0 0
-0.0129833940 -0.0038461660 0 0
-0.0129752410 -0.0032631820 0 0
-0.0129378620 -0.0028613900 0 0
-0.0128770380 -0.0026591010 0 0
-0.0127968160 -0.0026494300 0 0
-0.0126959190 -0.0028048850 0 0
-0.0125699840 -0.0030830730 0 0
-0.0124171690 -0.0034327210 0 0
-0.0122447860 -0.0038003380 0 0
-0.0120744270 -0.0041368530 0 0
-0.0119418140 -0.0044025100 0 0
-0.0118892210 -0.0045694000 0 0
-0.0119538120 -0.0046226580 0 0
-0.0121580450 -0.0045613990 0 0
-0.0125054100 -0.0043992900 0 0
-0.0129810390 -0.0041632050 0 0
-0.0135551370 -0.0038884740 0 0
-0.0141868870 -0.0036116190 0 0
-0.0148276240 -0.0033635410 0 0
-0.0154247840 -0.0031652400 0 0
-0.0159292300 -0.0030265260 0 0
-0.0163040200 -0.0029476250 0 0
-0.0165287690 -0.0029229240 0 0
-0.0165986510 -0.0029451180 0 0
-0.0165231410 -0.0030075500 0 0
-0.0163265590 -0.0031035780 0 0
-0.0160471320 -0.0032242050 0 0
-0.0157320970 -0.0033563400 0 0
-0.0154295450 -0.0034828320 0 0
-0.0151792490 -0.0035836850 0 0
-0.0150054660 -0.0036376340 0 0
-0.0149140810 -0.0036237790 0 0
-0.0148946200 -0.0035234600 0 0
-0.0149266930 -0.0033228210 0 0
-0.0149891410 -0.0030160370 0 0
-0.0150683190 -0.0026083060 0 0
-0.0151616600 -0.0021181430 0 0
-0.0152750020 -0.0015787480 0 0
-0.0154160090 -0.0010369860 0 0
-0.0155878880 -0.0005483750 0 0
-0.0157855570 -0.0001691220 0 0
-0.0159937150 0.0000516256 0 0
-0.0161860620 0.0000771457 0 0
-0.0163265800 -0.0001138580 0 0
-0.0163747540 -0.0005256350 0 0
-0.0162947980 -0.0011444420 0 0
-0.0160653450 -0.0019384760 0 0
-0.0156851730 -0.0028596590 0 0
-0.0151733640 -0.0038482050 0 0
-0.0145651130 -0.0048393270 0 0
-0.0139053150 -0.0057695840 0 0
-0.0132420080 -0.0065807850 0 0
-0.0126209530 -0.0072221130 0 0
-0.0120812420 -0.0076528800 0 0
-0.0116515980 -0.0078469800 0 0
-0.0113483600 -0.0077972520 0 0
-0.0111762010 -0.0075171890 0 0
-0.0111304470 -0.0070393020 0 0
-0.0111985240 -0.0064113140 0 0
-0.0113599060 -0.0056913880 0 0
-0.0115869450 -0.0049426600 0 0
-0.0118491440 -0.0042271740 0 0
-0.0121192990 -0.0035999090 0 0
-0.0123764730 -0.0031036190 0 0
-0.0126033730 -0.0027648170 0 0
-0.0127815470 -0.0025913180 0 0
-0.0128891240 -0.0025722400 0 0
-0.0129026390 -0.0026815790 0 0
-0.0128021180 -0.0028852170 0 0
-0.0125784840 -0.0031488830 0 0
-0.0122417320 -0.0034437640 0 0
-0.0118271750 -0.0037478900 0 0
-0.0113971620 -0.0040437940 0 0
-0.0110357820 -0.0043149470 0 0
-0.0108344720 -0.0045440350 0 0
-0.0108712380 -0.0047145560 0 0
-0.0111915000 -0.0048148430 0 0
-0.0117972980 -0.0048426310 0 0
-0.0126467520 -0.0048084140 0 0
-0.0136628540 -0.0047359730 0 0
-0.0147489300 -0.0046594710 0 0
-0.0158063920 -0.0046182880 0 0
-0.0167499880 -0.0046508750 0 0
-0.0175169550 -0.0047880460 0 0
-0.0180692290 -0.0050463290 0 0
-0.0183907390 -0.0054227290 0 0
-0.0184834510 -0.0058924330 0 0
-0.0183651200 -0.0064109340 0 0
-0.0180681110 -0.0069207920 0 0
-0.0176359080 -0.0073607190 0 0
-0.0171166290 -0.0076734460 0 0
-0.0165572890 -0.0078104970 0 0
-0.0160017620 -0.0077349890 0 0
-0.0154912680 -0.0074246680 0 0
-0.0150640800 -0.0068758220 0 0
-0.0147519360 -0.0061060580 0 0
-0.0145737410 -0.0051530720 0 0
-0.0145308670 -0.0040694410 0 0
-0.0146089010 -0.0029171930 0 0
-0.0147846810 -0.0017652350 0 0
-0.0150310500 -0.0006885570 0 0
-0.0153153610 0.0002339560 0 0
-0.0155967200 0.0009250490 0 0
-0.0158286670 0.0013181060 0 0
-0.0159678860 0.0013689250 0 0
-0.0159844200 0.0010683940 0 0
-0.0158691150 0.0004518330 0 0
-0.0156367330 -0.0004005450 0 0
-0.0153245220 -0.0013746630 0 0
-0.0149864150 -0.0023417160 0 0
-0.0146843180 -0.0031788680 0 0
-0.0144785750 -0.0037869340 0 0
-0.0144188720 -0.0041028760 0 0
-0.0145363160 -0.0041054450 0 0
-0.0148382190 -0.0038134180 0 0
-0.0153078170 -0.0032780190 0 0
-0.0159098110 -0.0025723750 0 0
-0.0165995610 -0.0017809570 0 0
-0.0173321930 -0.0009907630 0 0
-0.0180692380 -0.0002839010 0 0
-0.0187817650 0.0002692150 0 0
-0.0194491810 0.0006153660 0 0
-0.0200541140 0.0007214270 0 0
-0.0205767950 0.0005745350 0 0
-0.0209935000 0.0001806370 0 0
-0.0212805410 -0.0004370670 0 0
-0.0214214960 -0.0012392060 0 0
-0.0214141610 -0.0021715630 0 0
-0.0212740920 -0.0031676250 0 0
-0.0210332660 -0.0041525510 0 0
-0.0207347500 -0.0050482510 0 0
-0.0204253910 -0.0057795950 0 0
-0.0201479920 -0.0062818640 0 0
-0.0199345560 -0.0065091470 0 0
-0.0198029400 -0.0064422040 0 0
-0.0197575930 -0.0060930200 0 0
-0.0197921730 -0.0055033420 0 0
-0.0198917030 -0.0047368170 0 0
-0.0200343500 -0.0038670420 0 0
-0.0201943380 -0.0029651470 0 0
-0.0203459840 -0.0020909170 0 0
-0.0204671590 -0.0012907710 0 0
-0.0205418130 -0.0006018720 0 0
-0.0205623950 -0.0000574865 0 0
-0.0205310100 0.0003108250 0 0
-0.0204570470 0.0004752370 0 0
-0.0203514620 0.0004167250 0 0
-0.0202207220 0.0001308760 0 0
-0.0200638770 -0.0003681120 0 0
-0.0198743870 -0.0010464400 0 0
-0.0196455860 -0.0018524680 0 0
-0.0193758960 -0.0027209140 0 0
-0.0190701920 -0.0035795610 0 0
-0.0187378380 -0.0043575870 0 0
-0.0183910130 -0.0049942330 0 0
-0.0180452190 -0.0054470390 0 0
-0.0177201620 -0.0056981300 0 0
-0.0174380560 -0.0057561290 0 0
-0.0172186150 -0.0056529040 0 0
-0.0170731870 -0.0054369330 0 0
-0.0170016210 -0.0051656520 0 0
-0.0169935410 -0.0048982300 0 0
-0.0170322970 -0.0046893330 0 0
-0.0170977300 -0.0045838360 0 0
-0.0171656730 -0.0046121390 0 0
-0.0172057160 -0.0047859840 0 0
-0.0171812530 -0.0050956060 0 0
-0.0170556430 -0.0055100120 0 0
-0.0168037470 -0.0059821030 0 0
-0.0164224230 -0.0064578290 0 0
-0.0159340070 -0.0068853680 0 0
-0.0153819410 -0.0072204450 0 0
-0.0148211840 -0.0074276110 0 0
-0.0143072210 -0.0074805970 0 0
-0.0138878020 -0.0073643450 0 0
-0.0135997270 -0.0070783060 0 0
-0.0134688950 -0.0066385560 0 0
-0.0135095830 -0.0060773300 0 0
-0.0137215700 -0.0054402370 0 0
-0.0140873790 -0.0047816500 0 0
-0.0145727940 -0.0041588430 0 0
-0.0151324020 -0.0036262350 0 0
-0.0157188060 -0.0032308210 0 0
-0.0162911490 -0.0030085020 0 0
-0.0168191520 -0.0029805930 0 0
-0.0172825270 -0.0031504330 0 0
-0.0176683160 -0.0035007230 0 0
-0.0179686680 -0.0039927450 0 0
-0.0181799530 -0.0045692580 0 0
-0.0183026060 -0.0051618260 0 0
-0.0183407230 -0.0057006420 0 0
-0.0183011860 -0.0061234440 0 0
-0.0181932090 -0.0063817220 0 0
-0.0180285650 -0.0064450030 0 0
-0.0178209910 -0.0063041620 0 0
-0.0175836990 -0.0059730690 0 0
-0.0173263190 -0.0054874090 0 0
-0.0170534620 -0.0049008500 0 0
-0.0167658500 -0.0042799150 0 0
-0.0164632830 -0.0036984340 0 0
-0.0161475250 -0.0032313830 0 0
-0.0158232660 -0.0029476960 0 0
-0.0154970290 -0.0029026330 0 0
-0.0151757400 -0.0031313200 0 0
-0.0148658600 -0.0036443770 0 0
-0.0145719910 -0.0044254630 0 0
-0.0142951990 -0.0054309980 0 0
-0.0140330870 -0.0065926780 0 0
-0.0137818650 -0.0078228820 0 0
-0.0135387370 -0.0090226360 0 0
-0.0133041160 -0.0100915790 0 0
-0.0130843980 -0.0109388540 0 0
-0.0128947180 -0.0114934190 0 0
-0.0127592320 -0.0117121530 0 0
-0.0127073030 -0.0115842260 0 0
-0.0127662660 -0.0111311370 0 0
-0.0129533190 -0.0104032120 0 0
-0.0132695560 -0.0094737320 0 0
-0.0136978280 -0.0084310950 0 0
-0.0142041030 -0.0073694430 0 0
-0.0147415800 -0.0063791580 0 0
-0.0152568840 -0.0055392360 0 0
-0.0156968870 -0.0049131020 0 0
-0.0160147800 -0.0045473030 0 0
-0.0161747550 -0.0044704050 0 0
-0.0161556090 -0.0046903040 0 0
-0.0159544820 -0.0051909960 0 0
-0.0155908500 -0.0059312110 0 0
-0.0151083870 -0.0068462760 0 0
-0.0145719230 -0.0078531260 0 0
-0.0140587480 -0.0088580670 0 0
-0.0136455730 -0.0097668610 0 0
-0.0133945790 -0.0104957020 0 0
-0.0133433720 -0.0109811320 0 0
-0.0135013850 -0.0111873100 0 0
-0.0138511440 -0.0111094750 0 0
-0.0143524450 -0.0107732960 0 0
-0.0149493830 -0.0102306190 0 0
-0.0155799460 -0.0095518290 0 0
-0.0161862110 -0.0088149820 0 0
-0.0167227630 -0.0080934880 0 0
-0.0171617770 -0.0074462570 0 0
-0.0174933870 -0.0069138450 0 0
-0.0177207870 -0.0065206630 0 0
-0.0178527480 -0.0062794310 0 0
-0.0178983190 -0.0061936200 0 0
-0.0178656660 -0.0062569920 0 0
-0.0177629310 -0.0064523710 0 0
-0.0175986050 -0.0067516860 0 0
-0.0173810580 -0.0071177720 0 0
-0.0171170110 -0.0075076860 0 0
-0.0168085550 -0.0078771160 0 0
-0.0164510740 -0.0081851030 0 0
-0.0160361820 -0.0083983390 0 0
-0.0155592010 -0.0084948810 0 0
-0.0150252660 -0.0084675040 0 0
-0.0144500310 -0.0083262330 0 0
-0.0138568370 -0.0080984880 0 0
-0.0132732830 -0.0078257840 0 0
-0.0127273500 -0.0075580000 0 0
-0.0122422380 -0.0073469950 0 0
-0.0118308460 -0.0072399620 0 0
-0.0114920540 -0.0072724390 0 0
-0.0112104560 -0.0074623910 0 0
-0.0109594620 -0.0078072820 0 0
-0.0107065350 -0.0082847260 0 0
-0.0104200340 -0.0088555810 0 0
-0.0100768300 -0.0094673380 0 0
-0.0096682510 -0.0100566080 0 0
-0.0092024490 -0.0105516480 0 0
-0.0087033090 -0.0108767140 0 0
-0.0082071950 -0.0109590710 0 0
-0.0077586360 -0.0107383500 0 0
-0.0074047700 -0.0101770650 0 0
-0.0071886010 -0.0092699960 0 0
-0.0071431490 -0.0080499110 0 0
-0.0072889870 -0.0065881820 0 0
-0.0076349390 -0.0049900130 0 0
-0.0081787890 -0.0033842990 0 0
-0.0089056850 -0.0019085330 0 0
-0.0097857920 -0.0006905630 0 0
-0.0107745150 0.0001689960 0 0
-0.0118164640 0.0006092030 0 0
-0.0128528690 0.0006134550 0 0
-0.0138314690 0.0002067550 0 0
-0.0147148410 -0.0005524190 0 0
-0.0154815520 -0.0015833340 0 0
-0.0161203540 -0.0027948140 0 0
-0.0166242900 -0.0040951460 0 0
-0.0169891170 -0.0053984680 0 0
-0.0172143050 -0.0066278320 0 0
-0.0173046130 -0.0077166870 0 0
-0.0172723090 -0.0086106070 0 0
-0.0171393190 -0.0092699100 0 0
-0.0169374580 -0.0096727160 0 0
-0.0167054310 -0.0098179190 0 0
-0.0164824650 -0.0097274110 0 0
-0.0163000790 -0.0094463030 0 0
-0.0161750920 -0.0090402950 0 0
-0.0161068760 -0.0085902630 0 0
-0.0160791560 -0.0081840920 0 0
-0.0160635390 -0.0079065710 0 0
-0.0160222450 -0.0078297420 0 0
-0.0159110280 -0.0080056440 0 0
-0.0156847690 -0.0084617420 0 0
-0.0153057960 -0.0091991940 0 0
-0.0147522700 -0.0101939920 0 0
-0.0140242620 -0.0113995350 0 0
-0.0131465090 -0.0127492500 0 0
-0.0121667690 -0.0141602320 0 0
-0.0111491920 -0.0155397660 0 0
-0.0101641490 -0.0167950210 0 0
-0.0092768410 -0.0178440320 0 0
-0.0085370810 -0.0186250100 0 0
-0.0079733000 -0.0191014030 0 0
-0.0075933160 -0.0192620900 0 0
-0.0073907660 -0.0191187390 0 0
-0.0073526840 -0.0187031460 0 0
-0.0074644030 -0.0180654690 0 0
-0.0077112620 -0.0172725000 0 0
-0.0080780630 -0.0164050250 0 0
-0.0085473430 -0.0155531480 0 0
-0.0090981990 -0.0148081590 0 0
-0.0097066940 -0.0142513350 0 0
-0.0103466960 -0.0139425450 0 0
-0.0109902750 -0.0139116450 0 0
-0.0116091070 -0.0141539240 0 0
-0.0121784350 -0.0146303000 0 0
-0.0126827540 -0.0152729760 0 0
-0.0131202050 -0.0159961110 0 0
-0.0135024620 -0.0167091620 0 0
-0.0138497150 -0.0173297350 0 0
-0.0141832380 -0.0177935400 0 0
-0.0145181750 -0.0180604560 0 0
-0.0148576910 -0.0181166670 0 0
-0.0151895100 -0.0179730970 0 0
-0.0154873920 -0.0176606850 0 0
-0.0157187430 -0.0172246970 0 0
-0.0158543450 -0.0167213400 0 0
-0.0158748150 -0.0162167300 0 0
-0.0157724810 -0.0157841280 0 0
-0.0155505310 -0.0154967310 0 0
-0.0152214800 -0.0154181800 0 0
-0.0148058440 -0.0155944750 0 0
-0.0143300510 -0.0160485920 0 0
-0.0138224500 -0.0167769940 0 0
-0.0133086350 -0.0177475260 0 0
-0.0128083710 -0.0188999110 0 0
-0.0123340440 -0.0201502030 0 0
-0.0118890240 -0.0213988810 0 0
-0.0114663170 -0.0225409950 0 0
-0.0110497290 -0.0234766500 0 0
-0.0106190780 -0.0241204450 0 0
-0.0101584280 -0.0244096870 0 0
-0.0096639000 -0.0243118730 0 0
-0.0091473490 -0.0238301160 0 0
-0.0086347310 -0.0230034320 0 0
-0.0081607160 -0.0219005770 0 0
-0.0077620910 -0.0206098360 0 0
-0.0074716750 -0.0192289740 0 0
-0.0073133120 -0.0178575690 0 0
-0.0072981700 -0.0165904080 0 0
-0.0074232470 -0.0155098250 0 0
-0.0076729960 -0.0146770360 0 0
-0.0080239020 -0.0141248650 0 0
-0.0084504870 -0.0138549040 0 0
-0.0089307480 -0.0138405790 0 0
-0.0094494290 -0.0140350400 0 0
-0.0099980980 -0.0143806480 0 0
-0.0105716260 -0.0148167940 0 0
-0.0111628510 -0.0152853590 0 0
-0.0117590680 -0.0157353560 0 0
-0.0123419360 -0.0161270700 0 0
-0.0128897330 -0.0164342380 0 0
-0.0133813430 -0.0166435740 0 0
-0.0138014700 -0.0167528420 0 0
-0.0141449040 -0.0167690120 0 0
-0.0144175650 -0.0167069580 0 0
-0.0146340390 -0.0165884800 0 0
-0.0148126800 -0.0164414520 0 0
-0.0149698440 -0.0162989160 0 0
-0.0151147210 -0.0161975620 0 0
-0.0152462310 -0.0161744660 0 0
-0.0153532230 -0.0162613700 0 0
-0.0154178290 -0.0164776330 0 0
-0.0154204110 -0.0168247420 0 0
-0.0153441590 -0.0172852750 0 0
-0.0151786950 -0.0178268310 0 0
-0.0149235790 -0.0184083240 0 0
-0.0145914440 -0.0189854970 0 0
-0.0142080150 -0.0195146230 0 0
-0.0138078390 -0.0199551590 0 0
-0.0134284490 -0.0202719640 0 0
-0.0131060420 -0.0204368060 0 0
-0.0128730890 -0.0204290480 0 0
-0.0127565220 -0.0202363460 0 0
-0.0127755450 -0.0198567640 0 0
-0.0129396130 -0.0193029940 0 0
-0.0132469090 -0.0186073660 0 0
-0.0136821860 -0.0178247630 0 0
-0.0142140460 -0.0170308160 0 0
-0.0147950110 -0.0163146880 0 0
-0.0153670090 -0.0157679760 0 0
-0.0158709000 -0.0154718590 0 0
-0.0162568620 -0.0154842910 0 0
-0.0164927090 -0.0158298980 0 0
-0.0165678310 -0.0164952600 0 0
-0.0164923640 -0.0174298840 0 0
-0.0162927440 -0.0185510560 0 0
-0.0160045690 -0.0197515000 0 0
-0.0156637800 -0.0209104680 0 0
-0.0152992000 -0.0219083140 0 0
-0.0149294300 -0.0226421730 0 0
-0.0145633920 -0.0230389770 0 0
-0.0142013730 -0.0230628450 0 0
-0.0138350000 -0.0227154550 0 0
-0.0134486000 -0.0220303250 0 0
-0.0130265620 -0.0210643300 0 0
-0.0125659530 -0.0198900150 0 0
-0.0120855230 -0.0185899460 0 0
-0.0116234330 -0.0172522400 0 0
-0.0112256500 -0.0159657960 0 0
-0.0109327130 -0.0148141240 0 0
-0.0107703030 -0.0138675670 0 0
-0.0107447000 -0.0131749790 0 0
-0.0108419610 -0.0127570410 0 0
-0.0110300500 -0.0126038080 0 0
-0.0112647320 -0.0126776270 0 0
-0.0114993600 -0.0129202090 0 0
-0.0116959480 -0.0132618090 0 0
-0.0118343240 -0.0136310540 0 0
-0.0119169640 -0.0139640760 0 0
-0.0119679350 -0.0142112860 0 0
-0.0120263630 -0.0143410120 0 0
-0.0121365100 -0.0143403920 0 0
-0.0123367470 -0.0142139160 0 0
-0.0126497990 -0.0139801900 0 0
-0.0130765290 -0.0136685080 0 0
-0.0135944010 -0.0133166080 0 0
-0.0141604730 -0.0129690920 0 0
-0.0147181110 -0.0126745740 0 0
-0.0152060460 -0.0124801660 0 0
-0.0155679650 -0.0124242050 0 0
-0.0157601030 -0.0125303360 0 0
-0.0157544730 -0.0128058410 0 0
-0.0155382960 -0.0132441770 0 0
-0.0151129920 -0.0138293820 0 0
-0.0144948350 -0.0145400640 0 0
-0.0137166790 -0.0153515320 0 0
-0.0128289850 -0.0162349310 0 0
-0.0118980550 -0.0171532160 0 0
-0.0110000070 -0.0180565100 0 0
-0.0102110840 -0.0188814850 0 0
-0.0095974090 -0.0195580390 0 0
-0.0092081870 -0.0200216080 0 0
-0.0090736160 -0.0202258300 0 0
-0.0092051900 -0.0201510300 0 0
-0.0095961640 -0.0198074050 0 0
-0.0102223590 -0.0192340900 0 0
-0.0110440670 -0.0184955270 0 0
-0.0120087770 -0.0176758580 0 0
-0.0130538990 -0.0168711910 0 0
-0.0141092710 -0.0161793650 0 0
-0.0151004110 -0.0156877480 0 0
-0.0159541180 -0.0154609070 0 0
-0.0166068640 -0.0155307160 0 0
-0.0170141710 -0.0158915360 0 0
-0.0171585690 -0.0165015990 0 0
-0.0170542390 -0.0172890710 0 0
-0.0167464290 -0.0181604140 0 0
-0.0163047070 -0.0190096370 0 0
-0.0158112930 -0.0197282640 0 0
-0.0153474950 -0.0202161540 0 0
-0.0149821700 -0.0203925720 0 0
-0.0147642540 -0.0202061440 0 0
-0.0147181390 -0.0196423520 0 0
-0.0148414850 -0.0187269460 0 0
-0.0151075100 -0.0175234660 0 0
-0.0154715600 -0.0161247230 0 0
-0.0158785290 -0.0146407740 0 0
-0.0162693740 -0.0131867000 0 0
-0.0165877830 -0.0118714950 0 0
-0.0167878750 -0.0107878490 0 0
-0.0168418690 -0.0100030960 0 0
-0.0167448000 -0.0095525050 0 0
-0.0165136540 -0.0094363140 0 0
-0.0161810910 -0.0096218680 0 0
-0.0157861980 -0.0100509660 0 0
-0.0153649440 -0.0106502560 0 0
-0.0149419250 -0.0113416630 0 0
-0.0145255350 -0.0120510370 0 0
-0.0141106670 -0.0127145840 0 0
-0.0136895260 -0.0132830130 0 0
-0.0132631480 -0.0137235130 0 0
-0.0128452560 -0.0140200000 0 0
-0.0124573750 -0.0141723260 0 0
-0.0121193120 -0.0141952850 0 0
-0.0118392220 -0.0141177580 0 0
-0.0116073230 -0.0139812060 0 0
-0.0113970570 -0.0138365630 0 0
-0.0111741710 -0.0137394160 0 0
-0.0109091660 -0.0137437330 0 0
-0.0105863260 -0.0138944340 0 0
-0.0102060670 -0.0142199020 0 0
-0.0097833030 -0.0147257160 0 0
-0.0093453700 -0.0153900600 0 0
-0.0089296520 -0.0161612490 0 0
-0.0085794230 -0.0169589490 0 0
-0.0083374260 -0.0176807510 0 0
-0.0082383750 -0.0182146500 0 0
-0.0083028640 -0.0184563790 0 0
-0.0085348170 -0.0183282850 0 0
-0.0089226330 -0.0177946710 0 0
-0.0094430730 -0.0168694800 0 0
-0.0100664720 -0.0156150990 0 0
-0.0107607790 -0.0141331690 0 0
-0.0114917780 -0.0125496570 0 0
-0.0122195070 -0.0109978480 0 0
-0.0128946900 -0.0096034530 0 0
-0.0134598620 -0.0084737460 0 0
-0.0138562970 -0.0076900510 0 0
-0.0140336630 -0.0073030470 0 0
-0.0139585200 -0.0073316760 0 0
-0.0136197530 -0.0077654300 0 0
-0.0130310660 -0.0085680750 0 0
-0.0122307810 -0.0096810520 0 0
-0.0112785500 -0.0110263960 0 0
-0.0102497030 -0.0125095110 0 0
-0.0092294330 -0.0140219610 0 0
-0.0083077560 -0.0154452360 0 0
-0.0075733100 -0.0166573280 0 0
-0.0071035380 -0.0175433130 0 0
-0.0069524130 -0.0180093120 0 0
-0.0071408080 -0.0179968780 0 0
-0.0076541760 -0.0174935470 0 0
-0.0084479230 -0.0165365950 0 0
-0.0094566510 -0.0152097030 0 0
-0.0106029810 -0.0136338650 0 0
-0.0118050380 -0.0119540950 0 0
-0.0129839650 -0.0103233890 0 0
-0.0140703220 -0.0088861050 0 0
-0.0150063030 -0.0077638910 0 0
-0.0157440590 -0.0070462170 0 0
-0.0162436820 -0.0067848030 0 0
-0.0164729540 -0.0069906830 0 0
-0.0164086320 -0.0076343950 0 0
-0.0160386790 -0.0086497090 0 0
-0.0153654920 -0.0099395370 0 0
-0.0144102200 -0.0113831590 0 0
-0.0132173660 -0.0128454350 0 0
-0.0118577580 -0.0141882810 0 0
-0.0104275000 -0.0152834650 0 0
-0.0090411070 -0.0160253830 0 0
-0.0078185950 -0.0163422440 0 0
-0.0068686590 -0.0162035630 0 0
-0.0062722580 -0.0156223850 0 0
-0.0060708500 -0.0146519870 0 0
-0.0062601870 -0.0133781160 0 0
-0.0067887570 -0.0119088810 0 0
-0.0075622070 -0.0103645220 0 0
-0.0084561810 -0.0088677720 0 0
-0.0093367500 -0.0075344740 0 0
-0.0100841780 -0.0064649260 0 0
-0.0106142380 -0.0057366000 0 0
-0.0108910010 -0.0053980950 0 0
-0.0109266790 -0.0054641970 0 0
-0.0107689110 -0.0059133600 0 0
-0.0104817590 -0.0066898160 0 0
-0.0101292910 -0.0077110720 0 0
-0.0097660830 -0.0088790230 0 0
-0.0094329250 -0.0100915500 0 0
-0.0091558280 -0.0112520140 0 0
-0.0089484480 -0.0122757830 0 0
-0.0088168110 -0.0130944960 0 0
-0.0087634110 -0.0136590240 0 0
-0.0087885480 -0.0139420780 0 0
-0.0088889970 -0.0139412520 0 0
-0.0090559270 -0.0136817310 0 0
-0.0092742760 -0.0132160570 0 0
-0.0095248870 -0.0126185780 0 0
-0.0097888720 -0.0119748230 0 0
-0.0100513260 -0.0113694090 0 0
-0.0103012510 -0.0108764380 0 0
-0.0105280560 -0.0105532740 0 0
-0.0107182920 -0.0104366970 0 0
-0.0108562440 -0.0105409360 0 0
-0.0109292810 -0.0108572950 0 0
-0.0109351250 -0.0113548770 0 0
-0.0108860160 -0.0119827140 0 0
-0.0108070910 -0.0126744050 0 0
-0.0107309520 -0.0133552690 0 0
-0.0106917430 -0.0139505280 0 0
-0.0107193550 -0.0143929620 0 0
-0.0108330890 -0.0146294100 0 0
-0.0110360640 -0.0146266080 0 0
-0.0113131060 -0.0143768690 0 0
-0.0116333310 -0.0139025780 0 0
-0.0119557790 -0.0132569570 0 0
-0.0122351190 -0.0125189850 0 0
-0.0124256840 -0.0117828970 0 0
-0.0124844570 -0.0111450590 0 0
-0.0123746390 -0.0106908430 0 0
-0.0120704540 -0.0104823560 0 0
-0.0115618560 -0.0105476980 0 0
-0.0108565500 -0.0108747230 0 0
-0.0099783380 -0.0114132010 0 0
-0.0089632080 -0.0120856110 0 0
-0.0078547810 -0.0128021850 0 0
-0.0067002040 -0.0134749790 0 0
-0.0055474540 -0.0140279930 0 0
-0.0044437470 -0.0144028280 0 0
-0.0034335350 -0.0145607260 0 0
-0.0025554750 -0.0144820360 0 0
-0.0018389360 -0.0141641780 0 0
-0.0013007010 -0.0136198760 0 0
-0.0009425400 -0.0128773910 0 0
-0.0007506320 -0.0119824340 0 0
-0.0006975970 -0.0109988800 0 0
-0.0007471560 -0.0100048020 0 0
-0.0008604610 -0.0090826340 0 0
-0.0010027980 -0.0083060750 0 0
-0.0011493180 -0.0077284860 0 0
-0.0012884860 -0.0073761530 0 0
-0.0014218090 -0.0072466610 0 0
-0.0015586620 -0.0073111600 0 0
-0.0017079640 -0.0075197570 0 0
-0.0018724280 -0.0078091020 0 0
-0.0020493650 -0.0081106940 0 0
-0.0022345280 -0.0083592570 0 0
-0.0024229690 -0.0085015800 0 0
-0.0026065050 -0.0085051850 0 0
-0.0027720280 -0.0083640350 0 0
-0.0029035020 -0.0080988150 0 0
-0.0029871960 -0.0077517750 0 0
-0.0030171120 -0.0073780100 0 0
-0.0029969990 -0.0070353260 0 0
-0.0029379490 -0.0067746620 0 0
-0.0028537370 -0.0066330110 0 0
-0.0027569740 -0.0066301100 0 0
-0.0026576910 -0.0067686630 0 0
-0.0025629950 -0.0070374190 0 0
-0.0024750480 -0.0074166170 0 0
-0.0023872950 -0.0078844210 0 0
-0.0022816930 -0.0084217040 0 0
-0.0021297750 -0.0090127760 0 0
-0.0018986760 -0.0096416320 0 0
-0.0015609980 -0.0102858040 0 0
-0.0011050610 -0.0109115190 0 0
-0.0005421830 -0.0114732130 0 0
0.0000908251 -0.0119177030 0 0
0.0007354560 -0.0121910700 0 0
0.0013219380 -0.0122460710 0 0
0.0017829540 -0.0120487180 0 0
0.0020658430 -0.0115837040 0 0
0.0021409840 -0.0108586120 0 0
0.0020061210 -0.0099057720 0 0
0.0016863090 -0.0087803550 0 0
0.0012291350 -0.0075549650 0 0
0.0006958040 -0.0063117810 0 0
0.0001501360 -0.0051332450 0 0
-0.0003509400 -0.0040928150 0 0
-0.0007621630 -0.0032480640 0 0
-0.0010495230 -0.0026378380 0 0
-0.0011872960 -0.0022834660 0 0
-0.0011564400 -0.0021920380 0 0
-0.0009464490 -0.0023589000 0 0
-0.0005596640 -0.0027675340 0 0
-0.0000156753 -0.0033873200 0 0
0.0006463720 -0.0041715170 0 0
0.0013698880 -0.0050577670 0 0
0.0020881730 -0.0059723310 0 0
0.0027342290 -0.0068379770 0 0
0.0032487540 -0.0075836790 0 0
0.0035844790 -0.0081528820 0 0
0.0037084560 -0.0085079780 0 0
0.0036045260 -0.0086316250 0 0
0.0032753310 -0.0085271230 0 0
0.0027419140 -0.0082186940 0 0
0.0020412080 -0.0077505450 0 0
0.0012227650 -0.0071834350 0 0
0.0003445130 -0.0065887680 0 0
-0.0005329110 -0.0060414290 0 0
-0.0013522550 -0.0056125740 0 0
-0.0020647890 -0.0053628890 0 0
-0.0026342300 -0.0053366360 0 0
-0.0030400460 -0.0055567500 0 0
-0.0032798780 -0.0060210510 0 0
-0.0033692210 -0.0067003700 0 0
-0.0033371260 -0.0075400110 0 0
-0.0032190800 -0.0084654360 0 0
-0.0030499820 -0.0093917070 0 0
-0.0028601320 -0.0102351900 0 0
-0.0026745270 -0.0109253620 0 0
-0.0025126940 -0.0114141770 0 0
-0.0023867530 -0.0116803300 0 0
-0.0022984240 -0.0117271480 0 0
-0.0022380110 -0.0115754410 0 0
-0.0021875610 -0.0112550540 0 0
-0.0021268590 -0.0107992730 0 0
-0.0020390360 -0.0102439530 0 0
-0.0019143220 -0.0096297190 0 0
-0.0017516070 -0.0090041270 0 0
-0.0015573970 -0.0084217720 0 0
-0.0013434750 -0.0079415050 0 0
-0.0011256520 -0.0076207500 0 0
-0.0009230590 -0.0075084010 0 0
-0.0007549000 -0.0076384050 0 0
-0.0006341810 -0.0080248600 0 0
-0.0005618690 -0.0086584850 0 0
-0.0005251800 -0.0095045730 0 0
-0.0005008760 -0.0105032600 0 0
-0.0004616120 -0.0115735640 0 0
-0.0003827360 -0.0126220150 0 0
-0.0002480110 -0.0135542690 0 0
-0.0000534572 -0.0142860380 0 0
0.0001915600 -0.0147505290 0 0
0.0004664430 -0.0149030020 0 0
0.0007444440 -0.0147248520 0 0
0.0009994270 -0.0142276070 0 0
0.0012122230 -0.0134543240 0 0
0.0013744910 -0.0124756010 0 0
0.0014890100 -0.0113801750 0 0
0.0015671130 -0.0102630930 0 0
0.0016255830 -0.0092149890 0 0
0.0016846440 -0.0083143010 0 0
0.0017659710 -0.0076222630 0 0
0.0018888340 -0.0071793960 0 0
0.0020649020 -0.0070027790 0 0
0.0022941540 -0.0070849810 0 0
0.0025640730 -0.0073961130 0 0
0.0028531140 -0.0078888080 0 0
0.0031372380 -0.0085048290 0 0
0.0033958430 -0.0091823510 0 0
0.0036142320 -0.0098628780 0 0
0.0037830940 -0.0104963940 0 0
0.0038971610 -0.0110443310 0 0
0.0039545430 -0.0114809960 0 0
0.0039564460 -0.0117943530 0 0
0.0039062210 -0.0119868990 0 0
0.0038082060 -0.0120762210 0 0
0.0036676680 -0.0120934010 0 0
0.0034912700 -0.0120782800 0 0
0.0032867330 -0.0120732140 0 0
0.0030618990 -0.0121177030 0 0
0.0028238740 -0.0122443560 0 0
0.0025782030 -0.0124752710 0 0
0.0023283820 -0.0128185520 0 0
0.0020767620 -0.0132656860 0 0
0.0018261450 -0.0137907290 0 0
0.0015791510 -0.0143521590 0 0
0.0013340160 -0.0148975610 0 0
0.0010792440 -0.0153699910 0 0
0.0007907300 -0.0157149430 0 0
0.0004338160 -0.0158876270 0 0
-0.0000290204 -0.0158596890 0 0
-0.0006265360 -0.0156235510 0 0
-0.0013672890 -0.0151933660 0 0
-0.0022333370 -0.0146029800 0 0
-0.0031816300 -0.0139021020 0 0
-0.0041510650 -0.0131517470 0 0
-0.0050709970 -0.0124186640 0 0
-0.0058690740 -0.0117679150 0 0
-0.0064788740 -0.0112544160 0 0
-0.0068477200 -0.0109155630 0 0
-0.0069429230 -0.0107665600 0 0
-0.0067540280 -0.0107992010 0 0
-0.0062911450 -0.0109842160 0 0
-0.0055817940 -0.0112760110 0 0
-0.0046679890 -0.0116180440 0 0
-0.0036032640 -0.0119480200 0 0
-0.0024483270 -0.0122033820 0 0
-0.0012646020 -0.0123281000 0 0
-0.0001069480 -0.0122807150 0 0
0.0009812080 -0.0120416290 0 0
0.0019682610 -0.0116167970 0 0
0.0028322000 -0.0110362890 0 0
0.0035599420 -0.0103484140 0 0
0.0041490180 -0.0096116190 0 0
0.0046072540 -0.0088867490 0 0
0.0049478700 -0.0082317930 0 0
0.0051836580 -0.0076996450 0 0
0.0053234510 -0.0073372260 0 0
0.0053696410 -0.0071835660 0 0
0.0053166650 -0.0072662020 0 0
0.0051530900 -0.0075977360 0 0
0.0048667040 -0.0081744470 0 0
0.0044488950 -0.0089764200 0 0
0.0038968100 -0.0099678230 0 0
0.0032148970 -0.0110977970 0 0
0.0024177990 -0.0123037030 0 0
0.0015340550 -0.0135172450 0 0
0.0006067380 -0.0146718640 0 0
-0.0003127360 -0.0157082580 0 0
-0.0011761730 -0.0165758910 0 0
-0.0019489590 -0.0172318350 0 0
-0.0026135760 -0.0176406640 0 0
-0.0031668700 -0.0177773620 0 0
-0.0036158520 -0.0176320320 0 0
-0.0039750170 -0.0172140680 0 0
-0.0042642580 -0.0165541250 0 0
-0.0045051240 -0.0157033260 0 0
-0.0047145320 -0.0147300750 0 0
-0.0048980640 -0.0137148590 0 0
-0.0050471590 -0.0127430770 0 0
-0.0051426030 -0.0118964920 0 0
-0.0051624830 -0.0112445030 0 0
-0.0050905360 -0.0108362610 0 0
-0.0049216150 -0.0106946610 0 0
-0.0046637730 -0.0108132750 0 0
-0.0043385340 -0.0111567230 0 0
-0.0039799080 -0.0116647900 0 0
-0.0036312260 -0.0122606020 0 0
-0.0033392030 -0.0128618070 0 0
-0.0031452680 -0.0133921160 0 0
-0.0030758840 -0.0137905570 0 0
-0.0031367080 -0.0140168530 0 0
-0.0033147570 -0.0140526340 0 0
-0.0035870020 -0.0138996260 0 0
-0.0039296840 -0.0135765030 0 0
-0.0043233790 -0.0131154710 0 0
-0.0047526730 -0.0125583260 0 0
-0.0052035550 -0.0119511750 0 0
-0.0056622270 -0.0113383200 0 0
-0.0061157750 -0.0107575920 0 0
-0.0065529550 -0.0102385110 0 0
-0.0069635690 -0.0098022560 0 0
-0.0073355390 -0.0094617860 0 0
-0.0076510570 -0.0092214680 0 0
-0.0078859030 -0.0090765030 0 0
-0.0080142290 -0.0090125740 0 0
-0.0080161160 -0.0090059400 0 0
-0.0078837660 -0.0090244160 0 0
-0.0076242980 -0.0090298420 0 0
-0.0072593240 -0.0089822050 0 0
-0.0068223220 -0.0088448980 0 0
-0.0063538610 -0.0085904550 0 0
-0.0058935820 -0.0082065980 0 0
-0.0054705530 -0.0077022490 0 0
-0.0050972240 -0.0071114370 0 0
-0.0047704740 -0.0064914230 0 0
-0.0044778000 -0.0059133130 0 0
-0.0042044220 -0.0054478670 0 0
-0.0039391210 -0.0051514520 0 0
-0.0036784730 -0.0050560330 0 0
-0.0034275660 -0.0051654290 0 0
-0.0031951360 -0.0054582460 0 0
-0.0029860900 -0.0058953860 0 0
-0.0027966660 -0.0064282380 0 0
-0.0026135300 -0.0070041760 0 0
-0.0024164780 -0.0075686510 0 0
-0.0021861780 -0.0080658020 0 0
-0.0019156220 -0.0084401840 0 0
-0.0016188570 -0.0086408510 0 0
-0.0013312150 -0.0086274160 0 0
-0.0011012400 -0.0083769840 0 0
-0.0009789170 -0.0078906680 0 0
-0.0010040910 -0.0071977650 0 0
-0.0011967400 -0.0063557310 0 0
-0.0015515380 -0.0054455380 0 0
-0.0020396560 -0.0045635130 0 0
-0.0026163460 -0.0038109860 0 0
-0.0032289740 -0.0032824400 0 0
-0.0038232620 -0.0030530290 0 0
-0.0043500820 -0.0031675060 0 0
-0.0047734190 -0.0036327780 0 0
-0.0050758490 -0.0044155750 0 0
-0.0052591970 -0.0054461190 0 0
-0.0053419350 -0.0066275250 0 0
-0.0053551160 -0.0078491200 0 0
-0.0053370250 -0.0090016260 0 0
-0.0053270580 -0.0099921350 0 0
-0.0053603580 -0.0107556160 0 0
-0.0054643770 -0.0112599730 0 0
-0.0056567310 -0.0115042800 0 0
-0.0059435780 -0.0115122440 0 0
-0.0063198860 -0.0113235890 0 0
-0.0067727660 -0.0109857590 0 0
-0.0072858130 -0.0105476060 0 0
-0.0078414580 -0.0100554370 0 0
-0.0084212160 -0.0095508080 0 0
-0.0090056650 -0.0090696560 0 0
-0.0095748610 -0.0086429130 0 0
-0.0101081720 -0.0082985650 0 0
-0.0105829110 -0.0080641920 0 0
-0.0109726290 -0.0079680380 0 0
-0.0112467000 -0.0080371810 0 0
-0.0113726110 -0.0082929760 0 0
-0.0113212230 -0.0087454220 0 0
-0.0110738620 -0.0093892050 0 0
-0.0106290860 -0.0102030940 0 0
-0.0100067310 -0.0111511990 0 0
-0.0092475520 -0.0121834370 0 0
-0.0084084360 -0.0132355580 0 0
-0.0075546080 -0.0142317610 0 0
-0.0067509850 -0.0150918970 0 0
-0.0060542600 -0.0157421160 0 0
-0.0055064300 -0.0161258190 0 0
-0.0051305930 -0.0162119180 0 0
-0.0049298370 -0.0159983020 0 0
-0.0048892290 -0.0155099320 0 0
-0.0049799680 -0.0147932840 0 0
-0.0051644010 -0.0139101750 0 0
-0.0054005850 -0.0129326860 0 0
-0.0056457000 -0.0119384200 0 0
-0.0058588970 -0.0110042860 0 0
-0.0060042710 -0.0101978910 0 0
-0.0060536340 -0.0095679860 0 0
-0.0059885580 -0.0091375370 0 0
-0.0058019440 -0.0089018600 0 0
-0.0054988620 -0.0088314880 0 0
-0.0050954110 -0.0088785050 0 0
-0.0046154840 -0.0089850030 0 0
-0.0040874570 -0.0090913670 0 0
-0.0035435790 -0.0091424060 0 0
-0.0030225300 -0.0090917510 0 0
-0.0025712890 -0.0089060990 0 0
-0.0022424670 -0.0085692030 0 0
-0.0020889520 -0.0080836650 0 0
-0.0021589160 -0.0074697100 0 0
-0.0024891980 -0.0067622810 0 0
-0.0030956190 -0.0060079350 0 0
-0.0039651870 -0.0052613990 0 0
-0.0050555210 -0.0045804010 0 0
-0.0063008910 -0.0040182920 0 0
-0.0076214770 -0.0036164820 0 0
-0.0089338580 -0.0033997520 0 0
-0.0101614790 -0.0033757800 0 0
-0.0112433830 -0.0035377690 0 0
-0.0121393080 -0.0038674920 0 0
-0.0128301860 -0.0043367700 0 0
-0.0133149520 -0.0049074810 0 0
-0.0136063320 -0.0055313110 0 0
-0.0137282720 -0.0061507260 0 0
-0.0137150110 -0.0067031640 0 0
-0.0136093950 -0.0071292890 0 0
-0.0134586050 -0.0073831960 0 0
-0.0133076650 -0.0074403840 0 0
-0.0131926560 -0.0073007700 0 0
-0.0131353460 -0.0069878750 0 0
-0.0131395840 -0.0065466870 0 0
-0.0131900340 -0.0060401810 0 0
-0.0132556040 -0.0055426810 0 0
-0.0132985720 -0.0051294230 0 0
-0.0132861940 -0.0048639960 0 0
-0.0131998590 -0.0047869920 0 0
-0.0130389870 -0.0049096840 0 0
-0.0128196170 -0.0052143320 0 0
-0.0125691780 -0.0056591810 0 0
-0.0123195760 -0.0061853770 0 0
-0.0121006930 -0.0067251190 0 0
-0.0119353440 -0.0072111840 0 0
-0.0118354610 -0.0075862300 0 0
-0.0117995590 -0.0078093870 0 0
-0.0118131010 -0.0078587260 0 0
-0.0118532340 -0.0077296630 0 0
-0.0118968280 -0.0074307880 0 0
-0.0119280840 -0.0069798680 0 0
-0.0119417610 -0.0064026300 0 0
-0.0119408300 -0.0057352450 0 0
-0.0119303020 -0.0050285170 0 0
-0.0119097740 -0.0043492540 0 0
-0.0118676830 -0.0037750500 0 0
-0.0117803480 -0.0033831780 0 0
-0.0116169090 -0.0032379760 0 0
-0.0113488310 -0.0033804530 0 0
-0.0109604090 -0.0038208010 0 0
-0.0104551810 -0.0045338020 0 0
-0.0098555850 -0.0054587200 0 0
-0.0091978430 -0.0065053800 0 0
-0.0085253750 -0.0075660650 0 0
-0.0078826270 -0.0085304990 0 0
-0.0073101980 -0.0093003650 0 0
-0.0068417930 -0.0098009880 0 0
-0.0065028880 -0.0099894530 0 0
-0.0063103450 -0.0098587990 0 0
-0.0062722410 -0.0094378320 0 0
-0.0063876440 -0.0087862060 0 0
-0.0066464360 -0.0079849830 0 0
-0.0070296310 -0.0071241750 0 0
-0.0075098840 -0.0062903930 0 0
-0.0080515450 -0.0055581000 0 0
-0.0086115870 -0.0049862030 0 0
-0.0091439820 -0.0046186260 0 0
-0.0096076470 -0.0044856250 0 0
-0.0099748820 -0.0046034840 0 0
-0.0102363040 -0.0049726540 0 0
-0.0103998250 -0.0055760810 0 0
-0.0104840430 -0.0063795390 0 0
-0.0105091250 -0.0073348520 0 0
-0.0104905550 -0.0083858220 0 0
-0.0104397950 -0.0094756030 0 0
-0.0103694170 -0.0105530310 0 0
-0.0102966280 -0.0115751490 0 0
-0.0102432790 -0.0125052040 0 0
-0.0102347400 -0.0133087100 0 0
-0.0102985780 -0.0139517660 0 0
-0.0104614620 -0.0144038820 0 0
-0.0107438200 -0.0146436340 0 0
-0.0111546140 -0.0146635650 0 0
-0.0116885630 -0.0144719580 0 0
-0.0123252310 -0.0140918450 0 0
-0.0130287540 -0.0135591280 0 0
-0.0137497990 -0.0129208360 0 0
-0.0144322020 -0.0122326330 0 0
-0.0150233540 -0.0115537710 0 0
-0.0154840530 -0.0109390920 0 0
-0.0157945920 -0.0104302580 0 0
-0.0159572750 -0.0100493980 0 0
-0.0159961810 -0.0097969290 0 0
-0.0159540490 -0.0096531580 0 0
-0.0158861950 -0.0095830200 0 0
-0.0158522800 -0.0095438640 0 0
-0.0159073520 -0.0094952140 0 0
-0.0160930990 -0.0094075940 0 0
-0.0164304380 -0.0092671720 0 0
-0.0169161670 -0.0090746980 0 0
-0.0175254730 -0.0088403350 0 0
-0.0182186210 -0.0085781300 0 0
-0.0189484480 -0.0083032610 0 0
-0.0196661990 -0.0080331230 0 0
-0.0203249850 -0.0077911880 0 0
-0.0208814390 -0.0076102760 0 0
-0.0212971250 -0.0075311290 0 0
-0.0215413810 -0.0075947230 0 0
-0.0215954980 -0.0078306300 0 0
-0.0214561830 -0.0082460050 0 0
-0.0211362600 -0.0088195370 0 0
-0.0206624060 -0.0095030430 0 0
-0.0200714970 -0.0102303220 0 0
-0.0194063860 -0.0109298170 0 0
-0.0187108240 -0.0115367040 0 0
-0.0180240370 -0.0120015340 0 0
-0.0173765070 -0.0122943470 0 0
-0.0167884620 -0.0124043350 0 0
-0.0162714770 -0.0123361000 0 0
-0.0158310890 -0.0121046160 0 0
-0.0154680640 -0.0117312280 0 0
-0.0151785320 -0.0112414200 0 0
-0.0149544170 -0.0106635340 0 0
-0.0147846300 -0.0100281540 0 0
-0.0146565370 -0.0093688280 0 0
-0.0145574190 -0.0087236870 0 0
-0.0144756280 -0.0081354230 0 0
-0.0144008960 -0.0076477590 0 0
-0.0143236720 -0.0073000420 0 0
-0.0142336840 -0.0071228330 0 0
-0.0141183520 -0.0071347880 0 0
-0.0139630430 -0.0073392720 0 0
-0.0137553390 -0.0077203080 0 0
-0.0134918810 -0.0082399650 0 0
-0.0131830910 -0.0088406480 0 0
-0.0128529460 -0.0094533860 0 0
-0.0125348060 -0.0100087970 0 0
-0.0122650750 -0.0104462610 0 0
-0.0120762840 -0.0107201200 0 0
-0.0119918350 -0.0108040090 0 0
-0.0120244090 -0.0106935640 0 0
-0.0121781510 -0.0104069130 0 0
-0.0124521810 -0.0099831890 0 0
-0.0128415040 -0.0094799570 0 0
-0.0133342030 -0.0089693680 0 0
-0.0139082470 -0.0085313240 0 0
-0.0145318950 -0.0082422800 0 0
-0.0151688620 -0.0081609270 0 0
-0.0157850880 -0.0083154770 0 0
-0.0163524340 -0.0086987300 0 0
-0.0168493760 -0.0092737770 0 0
-0.0172622730 -0.0099864630 0 0
-0.0175877540 -0.0107774340 0 0
-0.0178338070 -0.0115895830 0 0
-0.0180183530 -0.0123708350 0 0
-0.0181658510 -0.0130741510 0 0
-0.0183033470 -0.0136572850 0 0
-0.0184568930 -0.0140842770 0 0
-0.0186476680 -0.0143286410 0 0
-0.0188877910 -0.0143762730 0 0
-0.0191782840 -0.0142261660 0 0
-0.0195108210 -0.0138890420 0 0
-0.0198717520 -0.0133861400 0 0
-0.0202457350 -0.0127499570 0 0
-0.0206172120 -0.0120258640 0 0
-0.0209693000 -0.0112712800 0 0
-0.0212811410 -0.0105501860 0 0
-0.0215261430 -0.0099242720 0 0
-0.0216740460 -0.0094438240 0 0
-0.0216975560 -0.0091410550 0 0
-0.0215806300 -0.0090276700 0 0
-0.0213243320 -0.0090966350 0 0
-0.0209481950 -0.0093254270 0 0
-0.0204877540 -0.0096780810 0 0
-0.0199892210 -0.0101069720 0 0
-0.0195012050 -0.0105575020 0 0
-0.0190649040 -0.0109767260 0 0
-0.0187068860 -0.0113227150 0 0
-0.0184373250 -0.0115698780 0 0
-0.0182528690 -0.0117088610 0 0
-0.0181414040 -0.0117438990 0 0
-0.0180866600 -0.0116903200 0 0
-0.0180718360 -0.0115719780 0 0
-0.0180820230 -0.0114175830 0 0
-0.0181052650 -0.0112566420 0 0
-0.0181324440 -0.0111165190 0 0
-0.0181568020 -0.0110208480 0 0
-0.0181740430 -0.0109880840 0 0
-0.0181828210 -0.0110290070 0 0
-0.0181843690 -0.0111435110 0 0
-0.0181810470 -0.0113184820 0 0
-0.0181748940 -0.0115284890 0 0
-0.0181669350 -0.0117394210 0 0
-0.0181572580 -0.0119133040 0 0
-0.0181457340 -0.0120122020 0 0
-0.0181329450 -0.0120008020 0 0
-0.0181208770 -0.0118486720 0 0
-0.0181132250 -0.0115326720 0 0
-0.0181152250 -0.0110390110 0 0
-0.0181327270 -0.0103649970 0 0
-0.0181702040 -0.0095215790 0 0
-0.0182279300 -0.0085368380 0 0
-0.0182995460 -0.0074582610 0 0
-0.0183718640 -0.0063506300 0 0
-0.0184278320 -0.0052882050 0 0
-0.0184513130 -0.0043435670 0 0
-0.0184307150 -0.0035781140 0 0
-0.0183594160 -0.0030380190 0 0
-0.0182338630 -0.0027552700 0 0
-0.0180519970 -0.0027498700 0 0
-0.0178136970 -0.0030293450 0 0
-0.0175229380 -0.0035848340 0 0
-0.0171901220 -0.0043861120 0 0
-0.0168330770 -0.0053789530 0 0
-0.0164762060 -0.0064870380 0 0
-0.0161480830 -0.0076183530 0 0
-0.0158781800 -0.0086744730 0 0
-0.0156937790 -0.0095609190 0 0
-0.0156177340 -0.0101972730 0 0
-0.0156664050 -0.0105260260 0 0
-0.0158472170 -0.0105190390 0 0
-0.0161579880 -0.0101806960 0 0
-0.0165896080 -0.0095478630 0 0
-0.0171290660 -0.0086869610 0 0
-0.0177588270 -0.0076874290 0 0
-0.0184525860 -0.0066515570 0 0
-0.0191706860 -0.0056825200 0 0
-0.0198594680 -0.0048721500 0 0
-0.0204574680 -0.0042893480 0 0
-0.0209070490 -0.0039717830 0 0
-0.0211658680 -0.0039241910 0 0
-0.0212133300 -0.0041229170 0 0
-0.0210513660 -0.0045230360 0 0
-0.0207014980 -0.0050653580 0 0
-0.0202004730 -0.0056831250 0 0
-0.0195958350 -0.0063086980 0 0
-0.0189416700 -0.0068793240 0 0
-0.0182946730 -0.0073403620 0 0
-0.0177105820 -0.0076456840 0 0
-0.0172406980 -0.0077574170 0 0
-0.0169288530 -0.0076478440 0 0
-0.0168088100 -0.0073037950 0 0
-0.0169007380 -0.0067309140 0 0
-0.0172063550 -0.0059551240 0 0
-0.0177048880 -0.0050212610 0 0
-0.0183532760 -0.0039904130 0 0
-0.0190920790 -0.0029362830 0 0
-0.0198542550 -0.0019397670 0 0
-0.0205728220 -0.0010816450 0 0
-0.0211865400 -0.0004334900 0 0
-0.0216447480 -0.0000468974 0 0
-0.0219121050 0.0000569416 0 0
-0.0219731650 -0.0001067480 0 0
-0.0218357540 -0.0004884010 0 0
-0.0215318450 -0.0010141660 0 0
-0.0211149660 -0.0015995190 0 0
-0.0206539250 -0.0021615400 0 0
-0.0202238640 -0.0026278850 0 0
-0.0198960370 -0.0029426890 0 0
-0.0197273140 -0.0030702570 0 0
-0.0197516070 -0.0029971990 0 0
-0.0199759850 -0.0027330550 0 0
-0.0203813270 -0.0023089390 0 0
-0.0209248710 -0.0017739840 0 0
-0.0215442720 -0.0011899740 0 0
-0.0221648010 -0.0006247700 0 0
-0.0227091660 -0.0001448710 0 0
-0.0231076450 0.0001925510 0 0
-0.0233070400 0.0003467530 0 0
-0.0232774280 0.0002980160 0 0
-0.0230155910 0.0000495940 0 0
-0.0225444320 -0.0003721740 0 0
-0.0219082040 -0.0009203420 0 0
-0.0211642080 -0.0015341200 0 0
-0.0203727910 -0.0021493140 0 0
-0.0195886340 -0.0027089070 0 0
-0.0188562160 -0.0031704930 0 0
-0.0182099640 -0.0035096840 0 0
-0.0176769210 -0.0037201860 0 0
-0.0172794780 -0.0038114530 0 0
-0.0170368380 -0.0038048440 0 0
-0.0169654180 -0.0037296510 0 0
-0.0170803850 -0.0036209250 0 0
-0.0173993540 -0.0035201560 0 0
-0.0179450340 -0.0034771370 0 0
-0.0187431930 -0.0035492870 0 0
-0.0198167640 -0.0037964110 0 0
-0.0211797690 -0.0042726820 0 0
-0.0228333870 -0.0050193230 0 0
-0.0247646930 -0.0060601910 0 0
-0.0269492880 -0.0074003510 0 0
-0.0293585630 -0.0090262800 0 0
-0.0319676280 -0.0109066610 -1 0
-0.0347581260 -0.0129943870 -1 0
-0.0377155430 -0.0152309010 -1 0
-0.0408253900 -0.0175526360 -1 0
-0.0440717090 -0.0198982260 -1 0
-0.0474377860 -0.0222154860 -1 0
-0.0509070060 -0.0244676600 -1 0
-0.0544622290 -0.0266384080 -1 0
-0.0580841360 -0.0287342090 -1 0
-0.0617508190 -0.0307829570 -1 -1
-0.0654398240 -0.0328291070 -1 -1
-0.0691308890 -0.0349271220 -1 -1
-0.0728070610 -0.0371340140 -1 -1
-0.0764537630 -0.0395003990 -1 -1
-0.0800569420 -0.0420608200 -1 -1
-0.0836023980 -0.0448268510 -1 -1
-0.0870778480 -0.0477858740 -1 -1
-0.0904765600 -0.0509046690 -1 -1
-0.0937992240 -0.0541345460 -1 -1
-0.0970526670 -0.0574155370 -1 -1
-0.1002477090 -0.0606792900 -1 -1
-0.1033990100 -0.0638521030 -1 -1
-0.1065268310 -0.0668592960 -1 -1
-0.1096579620 -0.0696305980 -1 -1
-0.1128226730 -0.0721057330 -1 -1
-0.1160469860 -0.0742404840 -1 -1
-0.1193434600 -0.0760130920 -1 -1
-0.1227048100 -0.0774283370 -1 -1
-0.1261027200 -0.0785162140 -1 -1
-0.1294924680 -0.0793250750 -1 -1
-0.1328222900 -0.0799124060 -1 -1
-0.1360429820 -0.0803375300 -1 -1
-0.1391119470 -0.0806586740 -1 -1
-0.1419908730 -0.0809331770 -1 -1
-0.1446425060 -0.0812172160 -1 -1
-0.1470314140 -0.0815629020 -1 -1
-0.1491282150 -0.0820132800 -1 -1
-0.1509139950 -0.0825967130 -1 -1
-0.1523828150 -0.0833219290 -1 -1
-0.1535419100 -0.0841750740 -1 -1
-0.1544106980 -0.0851198710 -1 -1
-0.1550208750 -0.0861013270 -1 -1
-0.1554178270 -0.0870523210 -1 -1
-0.1556596540 -0.0879019420 -1 -1
-0.1558111180 -0.0885848790 -1 -1
-0.1559351360 -0.0890504060 -1 -1
-0.1560863040 -0.0892680590 -1 -1
-0.1563075520 -0.0892281260 -1 -1
-0.1566278740 -0.0889385320 -1 -1
-0.1570596300 -0.0884219800 -1 -1
-0.1575962840 -0.0877158430 -1 -1
-0.1582122150 -0.0868737970 -1 -1
-0.1588651660 -0.0859661740 -1 -1
-0.1595009720 -0.0850761940 -1 -1
-0.1600601410 -0.0842908750 -1 -1
-0.1604860110 -0.0836886000 -1 -1
-0.1607330200 -0.0833277700 -1 -1
-0.1607726630 -0.0832402650 -1 -1
-0.1605963750 -0.0834309200 -1 -1
-0.1602162630 -0.0838817270 -1 -1
-0.1596639810 -0.0845572620 -1 -1
-0.1589874580 -0.0854075960 -1 -1
-0.1582455600 -0.0863686890 -1 -1
-0.1575018270 -0.0873640520 -1 -1
-0.1568190430 -0.0883103410 -1 -1
-0.1562547380 -0.0891258340 -1 -1
-0.1558561540 -0.0897398500 -1 -1
-0.1556549720 -0.0901016810 -1 -1
-0.1556642380 -0.0901869370 -1 -1
-0.1558784150 -0.0899994790 -1 -1
-0.1562750640 -0.0895689730 -1 -1
-0.1568175190 -0.0889450310 -1 -1
-0.1574593270 -0.0881889340 -1 -1
-0.1581500760 -0.0873649050 -1 -1
-0.1588406900 -0.0865334870 -1 -1
-0.1594864690 -0.0857480580 -1 -1
-0.1600477080 -0.0850534150 -1 -1
-0.1604899320 -0.0844844800 -1 -1
-0.1607862640 -0.0840640270 -1 -1
-0.1609216650 -0.0838002210 -1 -1
-0.1608960100 -0.0836856570 -1 -1
-0.1607241340 -0.0836985340 -1 -1
-0.1604342940 -0.0838055510 -1 -1
-0.1600667150 -0.0839660740 -1 -1
-0.1596714240 -0.0841372040 -1 -1
-0.1593042460 -0.0842786860 -1 -1
-0.1590206580 -0.0843562380 -1 -1
-0.1588667640 -0.0843429280 -1 -1
-0.1588686840 -0.0842203740 -1 -1
-0.1590268280 -0.0839819620 -1 -1
-0.1593202060 -0.0836379420 -1 -1
-0.1597162040 -0.0832199080 -1 -1
-0.1601772680 -0.0827815320 -1 -1
-0.1606621420 -0.0823931750 -1 -1
-0.1611252040 -0.0821302150 -1 -1
-0.1615177330 -0.0820577920 -1 -1
-0.1617926180 -0.0822162290 -1 -1
-0.1619116100 -0.0826113580 -1 -1
-0.1618531760 -0.0832125140 -1 -1
-0.1616181440 -0.0839579870 -1 -1
-0.1612296720 -0.0847648000 -1 -1
-0.1607268020 -0.0855394350 -1 -1
-0.1601549140 -0.0861883000 -1 -1
-0.1595572570 -0.0866280240 -1 -1
-0.1589708620 -0.0867946500 -1 -1
-0.1584276320 -0.0866497540 -1 -1
-0.1579570950 -0.0861822880 -1 -1
-0.1575862700 -0.0854068020 -1 -1
-0.1573363070 -0.0843602030 -1 -1
-0.1572188270 -0.0830989500 -1 -1
-0.1572342700 -0.0816960440 -1 -1
-0.1573725030 -0.0802355140 -1 -1
-0.1576149660 -0.0788044020 -1 -1
-0.1579374180 -0.0774851230 -1 -1
-0.1583123510 -0.0763501220 -1 -1
-0.1587104330 -0.0754579470 -1 -1
-0.1591012390 -0.0748496070 -1 -1
-0.1594543010 -0.0745458500 -1 -1
-0.1597406960 -0.0745466470 -1 -1
-0.1599341060 -0.0748328590 -1 -1
-0.1600117570 -0.0753687670 -1 -1
-0.1599574980 -0.0761042660 -1 -1
-0.1597672270 -0.0769767960 -1 -1
-0.1594541520 -0.0779138200 -1 -1
-0.1590511740 -0.0788363610 -1 -1
-0.1586084800 -0.0796630850 -1 -1
-0.1581851030 -0.0803143640 -1 -1
-0.1578358240 -0.0807176470 -1 -1
-0.1575984870 -0.0808163350 -1 -1
-0.1574867180 -0.0805818940 -1 -1
-0.1574889190 -0.0800255980 -1 -1
-0.1575719300 -0.0792053980 -1 -1
-0.1576878370 -0.0782248120 -1 -1
-0.1577821490 -0.0772226920 -1 -1
-0.1578013570 -0.0763546170 -1 -1
-0.1576990400 -0.0757695580 -1 -1
-0.1574408800 -0.0755874060 -1 -1
-0.1570090250 -0.0758820030 -1 -1
-0.1564057420 -0.0766717850 -1 -1
-0.1556560890 -0.0779182050 -1 -1
-0.1548083520 -0.0795309220 -1 -1
-0.1539297450 -0.0813783490 -1 -1
-0.1530969840 -0.0833025370 -1 -1
-0.1523847160 -0.0851373520 -1 -1
-0.1518548060 -0.0867276900 -1 -1
-0.1515482520 -0.0879464200 -1 -1
-0.1514807940 -0.0887065480 -1 -1
-0.1516424670 -0.0889683030 -1 -1
-0.1520010390 -0.0887419250 -1 -1
-0.1525088260 -0.0880862020 -1 -1
-0.1531107930 -0.0871019170 -1 -1
-0.1537509260 -0.0859196290 -1 -1
-0.1543756390 -0.0846827910 -1 -1
-0.1549366570 -0.0835291430 -1 -1
-0.1553959340 -0.0825738620 -1 -1
-0.1557303740 -0.0818967060 -1 -1
-0.1559329420 -0.0815345300 -1 -1
-0.1560110920 -0.0814804560 -1 -1
-0.1559850900 -0.0816896410 -1 -1
-0.1558859550 -0.0820894120 -1 -1
-0.1557510840 -0.0825907290 -1 -1
-0.1556172840 -0.0830990460 -1 -1
-0.1555138460 -0.0835246140 -1 -1
-0.1554589130 -0.0837927060 -1 -1
-0.1554597230 -0.0838521760 -1 -1
-0.1555148970 -0.0836796470 -1 -1
-0.1556169690 -0.0832784210 -1 -1
-0.1557545870 -0.0826734570 -1 -1
-0.1559146010 -0.0819042510 -1 -1
-0.1560840050 -0.0810174270 -1 -1
-0.1562514000 -0.0800609860 -1 -1
-0.1564071500 -0.0790818690 -1 -1
-0.1565414490 -0.0781269820 -1 -1
-0.1566415470 -0.0772454900 -1 -1
-0.1566911330 -0.0764888280 -1 -1
-0.1566732590 -0.0759062140 -1 -1
-0.1565750630 -0.0755366560 -1 -1
-0.1563910820 -0.0754006840 -1 -1
-0.1561240510 -0.0754947770 -1 -1
-0.1557851890 -0.0757899520 -1 -1
-0.1553952950 -0.0762347630 -1 -1
-0.1549849490 -0.0767620620 -1 -1
-0.1545920150 -0.0772980560 -1 -1
-0.1542569750 -0.0777717390 -1 -1
-0.1540178380 -0.0781230430 -1 -1
-0.1539059710 -0.0783088710 -1 -1
-0.1539432140 -0.0783066770 -1 -1
-0.1541396740 -0.0781151630 -1 -1
-0.1544914300 -0.0777519910 -1 -1
-0.1549784190 -0.0772495510 -1 -1
-0.1555648500 -0.0766506700 -1 -1
-0.1562051840 -0.0760053320 -1 -1
-0.1568544320 -0.0753678970 -1 -1
-0.1574764730 -0.0747939020 -1 -1
-0.1580456990 -0.0743366780 -1 -1
-0.1585434290 -0.0740441170 -1 -1
-0.1589535450 -0.0739544320 -1 -1
-0.1592601700 -0.0740902140 -1 -1
-0.1594478800 -0.0744531960 -1 -1
-0.1595039710 -0.0750232000 -1 -1
-0.1594216130 -0.0757617590 -1 -1
-0.1592013430 -0.0766179550 -1 -1
-0.1588495070 -0.0775339170 -1 -1
-0.1583761320 -0.0784494590 -1 -1
-0.1577948290 -0.0793068930 -1 -1
-0.1571236500 -0.0800558030 -1 -1
-0.1563856450 -0.0806559410 -1 -1
-0.1556093580 -0.0810775030 -1 -1
-0.1548283300 -0.0813007820 -1 -1
-0.1540786340 -0.0813181070 -1 -1
-0.1533950600 -0.0811387250 -1 -1
-0.1528064130 -0.0807942030 -1 -1
-0.1523315530 -0.0803410620 -1 -1
-0.1519793560 -0.0798580310 -1 -1
-0.1517523480 -0.0794363470 -1 -1
-0.1516496710 -0.0791643110 -1 -1
-0.1516669860 -0.0791106420 -1 -1
-0.1517953810 -0.0793118320 -1 -1
-0.1520219980 -0.0797666490 -1 -1
-0.1523320850 -0.0804384760 -1 -1
-0.1527105540 -0.0812638760 -1 -1
-0.1531432670 -0.0821642680 -1 -1
-0.1536193820 -0.0830576290 -1 -1
-0.1541339320 -0.0838681410 -1 -1
-0.1546883800 -0.0845326850 -1 -1
-0.1552879260 -0.0850042550 -1 -1
-0.1559374340 -0.0852535690 -1 -1
-0.1566403560 -0.0852702920 -1 -1
-0.1574015820 -0.0850640130 -1 -1
-0.1582293020 -0.0846639160 -1 -1
-0.1591312390 -0.0841163320 -1 -1
-0.1601059220 -0.0834808170 -1 -1
-0.1611340340 -0.0828254900 -1 -1
-0.1621758900 -0.0822207800 -1 -1
-0.1631776820 -0.0817309690 -1 -1
-0.1640828340 -0.0814049730 -1 -1
-0.1648419980 -0.0812687330 -1 -1
-0.1654190370 -0.0813214640 -1 -1
-0.1657942250 -0.0815374720 -1 -1
-0.1659652140 -0.0818733020 -1 -1
-0.1659451250 -0.0822772630 -1 -1
-0.1657580540 -0.0826978080 -1 -1
-0.1654334260 -0.0830892620 -1 -1
-0.1650009430 -0.0834154340 -1 -1
-0.1644878350 -0.0836517160 -1 -1
-0.1639193250 -0.0837856380 -1 -1
-0.1633215990 -0.0838162210 -1 -1
-0.1627247960 -0.0837527540 -1 -1
-0.1621634370 -0.0836131510 -1 -1
-0.1616741870 -0.0834219930 -1 -1
-0.1612929260 -0.0832085210 -1 -1
-0.1610514460 -0.0830048230 -1 -1
-0.1609722580 -0.0828445300 -1 -1
-0.1610620240 -0.0827615550 -1 -1
-0.1613070180 -0.0827869620 -1 -1
-0.1616735820 -0.0829424230 -1 -1
-0.1621140470 -0.0832319130 -1 -1
-0.1625764570 -0.0836361390 -1 -1
-0.1630146970 -0.0841134160 -1 -1
-0.1633954470 -0.0846069110 -1 -1
-0.1637002910 -0.0850553980 -1 -1
-0.1639235970 -0.0854041780 -1 -1
-0.1640677720 -0.0856134290 -1 -1
-0.1641384140 -0.0856624210 -1 -1
-0.1641422270 -0.0855498260 -1 -1
-0.1640881640 -0.0852912650 -1 -1
-0.1639893950 -0.0849152120 -1 -1
-0.1638637880 -0.0844580450 -1 -1
-0.1637325760 -0.0839587640 -1 -1
-0.1636174990 -0.0834543870 -1 -1
-0.1635365500 -0.0829777500 -1 -1
-0.1634990200 -0.0825581150 -1 -1
-0.1635017840 -0.0822222650 -1 -1
-0.1635293280 -0.0819936830 -1 -1
-0.1635585930 -0.0818895530 -1 -1
-0.1635663740 -0.0819165230 -1 -1
-0.1635353390 -0.0820665120 -1 -1
-0.1634569540 -0.0823142410 -1 -1
-0.1633322780 -0.0826176340 -1 -1
-0.1631716040 -0.0829213040 -1 -1
-0.1629921920 -0.0831637700 -1 -1
-0.1628135680 -0.0832884850 -1 -1
-0.1626522530 -0.0832553580 -1 -1
-0.1625179770 -0.0830475950 -1 -1
-0.1624118610 -0.0826718000 -1 -1
-0.1623273310 -0.0821533940 -1 -1
-0.1622543840 -0.0815303600 -1 -1
-0.1621845800 -0.0808475410 -1 -1
-0.1621126770 -0.0801530290 -1 -1
-0.1620341720 -0.0794972360 -1 -1
-0.1619417760 -0.0789334220 -1 -1
-0.1618239250 -0.0785169370 -1 -1
-0.1616658700 -0.0783014860 -1 -1
-0.1614517200 -0.0783330920 -1 -1
-0.1611657410 -0.0786427300 -1 -1
-0.1607924260 -0.0792385240 -1 -1
-0.1603171920 -0.0801000980 -1 -1
-0.1597313960 -0.0811781850 -1 -1
-0.1590417550 -0.0823998320 -1 -1
-0.1582767560 -0.0836768910 -1 -1
-0.1574829880 -0.0849157530 -1 -1
-0.1567135000 -0.0860272980 -1 -1
-0.1560154170 -0.0869360580 -1 -1
-0.1554219780 -0.0875871220 -1 -1
-0.1549512110 -0.0879493800 -1 -1
-0.1546105640 -0.0880147120 -1 -1
-0.1544036970 -0.0877942430 -1 -1
-0.1543352610 -0.0873135660 -1 -1
-0.1544116300 -0.0866088670 -1 -1
-0.1546372760 -0.0857250070 -1 -1
-0.1550083700 -0.0847148980 -1 -1
-0.1555069620 -0.0836384480 -1 -1
-0.1560985890 -0.0825595330 -1 -1
-0.1567345070 -0.0815406460 -1 -1
-0.1573588890 -0.0806366100 -1 -1
-0.1579199280 -0.0798895920 -1 -1
-0.1583808510 -0.0793266400 -1 -1
-0.1587265410 -0.0789594590 -1 -1
-0.1589643300 -0.0787852960 -1 -1
-0.1591192230 -0.0787881190 -1 -1
-0.1592248740 -0.0789408130 -1 -1
-0.1593136930 -0.0792092150 -1 -1
-0.1594095550 -0.0795563200 -1 -1
-0.1595246890 -0.0799443990 -1 -1
-0.1596612600 -0.0803357330 -1 -1
-0.1598167970 -0.0806942770 -1 -1
-0.1599897900 -0.0809888010 -1 -1
-0.1601813760 -0.0811962110 -1 -1
-0.1603927870 -0.0813038700 -1 -1
-0.1606218300 -0.0813108450 -1 -1
-0.1608610030 -0.0812285690 -1 -1
-0.1610971470 -0.0810805870 -1 -1
-0.1613118270 -0.0809003140 -1 -1
-0.1614827950 -0.0807263200 -1 -1
-0.1615868840 -0.0805957500 -1 -1
-0.1616032330 -0.0805375690 -1 -1
-0.1615158230 -0.0805680980 -1 -1
-0.1613160120 -0.0806901930 -1 -1
-0.1610050290 -0.0808945170 -1 -1
-0.1605940220 -0.0811606290 -1 -1
-0.1601003960 -0.0814578970 -1 -1
-0.1595424880 -0.0817479580 -1 -1
-0.1589357790 -0.0819894050 -1 -1
-0.1582925280 -0.0821439970 -1 -1
-0.1576243460 -0.0821828310 -1 -1
-0.1569452210 -0.0820905820 -1 -1
-0.1562727800 -0.0818668070 -1 -1
-0.1556278220 -0.0815250570 -1 -1
-0.1550335470 -0.0810914700 -1 -1
-0.1545153870 -0.0806037590 -1 -1
-0.1541005590 -0.0801094610 -1 -1
-0.1538153310 -0.0796617000 -1 -1
-0.1536791910 -0.0793126350 -1 -1
-0.1536981190 -0.0791063570 -1 -1
-0.1538611260 -0.0790727550 -1 -1
-0.1541421070 -0.0792237130 -1 -1
-0.1545050710 -0.0795526690 -1 -1
-0.1549099710 -0.0800372880 -1 -1
-0.1553183060 -0.0806441810 -1 -1
-0.1556982900 -0.0813339100 -1 -1
-0.1560286400 -0.0820639840 -1 -1
-0.1563004540 -0.0827890490 -1 -1
-0.1565176180 -0.0834604480 -1 -1
-0.1566952420 -0.0840279880 -1 -1
-0.1568545190 -0.0844446460 -1 -1
-0.1570152730 -0.0846727450 -1 -1
-0.1571907140 -0.0846891910 -1 -1
-0.1573871000 -0.0844880670 -1 -1
-0.1576064840 -0.0840805550 -1 -1
-0.1578490140 -0.0834930250 -1 -1
-0.1581128980 -0.0827637650 -1 -1
-0.1583923310 -0.0819384660 -1 -1
-0.1586745610 -0.0810650640 -1 -1
-0.1589374400 -0.0801890500 -1 -1
-0.1591499950 -0.0793500490 -1 -1
-0.1592790170 -0.0785799560 -1 -1
-0.1592993870 -0.0779023820 -1 -1
-0.1592003160 -0.0773326500 -1 -1
-0.1589840320 -0.0768776110 -1 -1
-0.1586613570 -0.0765355960 -1 -1
-0.1582491770 -0.0762971370 -1 -1
-0.1577706920 -0.0761465270 -1 -1
-0.1572558060 -0.0760641390 -1 -1
-0.1567383000 -0.0760294550 -1 -1
-0.1562506560 -0.0760241960 -1 -1
-0.1558206610 -0.0760352530 -1 -1
-0.1554708410 -0.0760579430 -1 -1
-0.1552190570 -0.0760989060 -1 -1
-0.1550792070 -0.0761758580 -1 -1
-0.1550606240 -0.0763126870 -1 -1
-0.1551650790 -0.0765319800 -1 -1
-0.1553831430 -0.0768486740 -1 -1
-0.1556928500 -0.0772672010 -1 -1
-0.1560614400 -0.0777821840 -1 -1
-0.1564485630 -0.0783811010 -1 -1
-0.1568096200 -0.0790467910 -1 -1
-0.1570999300 -0.0797582390 -1 -1
-0.1572809840 -0.0804891150 -1 -1
-0.1573279670 -0.0812048370 -1 -1
-0.1572351650 -0.0818607060 -1 -1
-0.1570159860 -0.0824044050 -1 -1
-0.1566978120 -0.0827839450 -1 -1
-0.1563149710 -0.0829584290 -1 -1
-0.1559026590 -0.0829070710 -1 -1
-0.1554922330 -0.0826331810 -1 -1
-0.1551076650 -0.0821627330 -1 -1
-0.1547641230 -0.0815389570 -1 -1
-0.1544693230 -0.0808149560 -1 -1
-0.1542263140 -0.0800468820 -1 -1
-0.1540352190 -0.0792896580 -1 -1
-0.1538925470 -0.0785952710 -1 -1
-0.1537890130 -0.0780126820 -1 -1
-0.1537079770 -0.0775884510 -1 -1
-0.1536257150 -0.0773663430 -1 -1
-0.1535139180 -0.0773839210 -1 -1
-0.1533444980 -0.0776660630 -1 -1
-0.1530956250 -0.0782173870 -1 -1
-0.1527568810 -0.0790163290 -1 -1
-0.1523321420 -0.0800132110 -1 -1
-0.1518399620 -0.0811332360 -1 -1
-0.1513113180 -0.0822833440 -1 -1
-0.1507842630 -0.0833614120 -1 -1
-0.1502961140 -0.0842668240 -1 -1
-0.1498753810 -0.0849108680 -1 -1
-0.1495363070 -0.0852246270 -1 -1
-0.1492788080 -0.0851633380 -1 -1
-0.1490943590 -0.0847082870 -1 -1
-0.1489743810 -0.0838675600 -1 -1
-0.1489169790 -0.0826759370 -1 -1
-0.1489298780 -0.0811936340 -1 -1
-0.1490277020 -0.0795038050 -1 -1
-0.1492233420 -0.0777089070 -1 -1
-0.1495177420 -0.0759252500 -1 -1
-0.1498939160 -0.0742744970 -1 -1
-0.1503178270 -0.0728724460 -1 -1
-0.1507451950 -0.0718175430 -1 -1
-0.1511309980 -0.0711810720 -1 -1
-0.1514375270 -0.0710000370 -1 -1
-0.1516391070 -0.0712739880 -1 -1
-0.1517250030 -0.0719665540 -1 -1
-0.1517015570 -0.0730112380 -1 -1
-0.1515912670 -0.0743204720 -1 -1
-0.1514264240 -0.0757963130 -1 -1
-0.1512395390 -0.0773405240 -1 -1
-0.1510558790 -0.0788624100 -1 -1
-0.1508911810 -0.0802837400 -1 -1
-0.1507537840 -0.0815402260 -1 -1
-0.1506482850 -0.0825802600 -1 -1
-0.1505784020 -0.0833637930 -1 -1
-0.1505483010 -0.0838641010 -1 -1
-0.1505620680 -0.0840721320 -1 -1
-0.1506212850 -0.0840001970 -1 -1
-0.1507222610 -0.0836814940 -1 -1
-0.1508548210 -0.0831651240 -1 -1
-0.1510027450 -0.0825102710 -1 -1
-0.1511442320 -0.0817827300 -1 -1
-0.1512512950 -0.0810524520 -1 -1
-0.1512892860 -0.0803890650 -1 -1
-0.1512192990 -0.0798548310 -1 -1
-0.1510043760 -0.0794967390 -1 -1
-0.1506182520 -0.0793397460 -1 -1
-0.1500556130 -0.0793830250 -1 -1
-0.1493411210 -0.0796001790 -1 -1
-0.1485305260 -0.0799424960 -1 -1
-0.1476992380 -0.0803442150 -1 -1
-0.1469228600 -0.0807303300 -1 -1
-0.1462597940 -0.0810271350 -1 -1
-0.1457426940 -0.0811735590 -1 -1
-0.1453790210 -0.0811305430 -1 -1
-0.1451573850 -0.0808866660 -1 -1
-0.1450557410 -0.0804587480 -1 -1
-0.1450480480 -0.0798861940 -1 -1
-0.1451070220 -0.0792203800 -1 -1
-0.1452032020 -0.0785145050 -1 -1
-0.1453034130 -0.0778190000 -1 -1
-0.1453714940 -0.0771822040 -1 -1
-0.1453719430 -0.0766518040 -1 -1
-0.1452759300 -0.0762725860 -1 -1
-0.1450676740 -0.0760794310 -1 -1
-0.1447478040 -0.0760885870 -1 -1
-0.1443318110 -0.0762913050 -1 -1
-0.1438439880 -0.0766520660 -1 -1
-0.1433093400 -0.0771122530 -1 -1
-0.1427483260 -0.0775988570 -1 -1
-0.1421781200 -0.0780356670 -1 -1
-0.1416188360 -0.0783535210 -1 -1
-0.1410995390 -0.0784974510 -1 -1
-0.1406598710 -0.0784310290 -1 -1
-0.1403458340 -0.0781399240 -1 -1
-0.1402006080 -0.0776359190 -1 -1
-0.1402533930 -0.0769599340 -1 -1
-0.1405110280 -0.0761806160 -1 -1
-0.1409559100 -0.0753855980 -1 -1
-0.1415501010 -0.0746654460 -1 -1
-0.1422431220 -0.0740939860 -1 -1
-0.1429807370 -0.0737115800 -1 -1
-0.1437129950 -0.0735180490 -1 -1
-0.1444005550 -0.0734779150 -1 -1
-0.1450178950 -0.0735345740 -1 -1
-0.1455523370 -0.0736265060 -1 -1
-0.1460001820 -0.0736999110 -1 -1
-0.1463628430 -0.0737158260 -1 -1
-0.1466443180 -0.0736527550 -1 -1
-0.1468491590 -0.0735072560 -1 -1
-0.1469805850 -0.0732940200 -1 -1
-0.1470399360 -0.0730443230 -1 -1
-0.1470279390 -0.0728008830 -1 -1
-0.1469461760 -0.0726097690 -1 -1
-0.1467973620 -0.0725126580 -1 -1
-0.1465853720 -0.0725424130 -1 -1
-0.1463166990 -0.0727222090 -1 -1
-0.1460027200 -0.0730660750 -1 -1
-0.1456604300 -0.0735789000 -1 -1
-0.1453104450 -0.0742561860 -1 -1
-0.1449729960 -0.0750845080 -1 -1
-0.1446636080 -0.0760421000 -1 -1
-0.1443906080 -0.0770977960 -1 -1
-0.1441558090 -0.0782078560 -1 -1
-0.1439572080 -0.0793133000 -1 -1
-0.1437911850 -0.0803424930 -1 -1
-0.1436532530 -0.0812211960 -1 -1
-0.1435382260 -0.0818862930 -1 -1
-0.1434403370 -0.0822966510 -1 -1
-0.1433533310 -0.0824378340 -1 -1
-0.1432709160 -0.0823217320 -1 -1
-0.1431877260 -0.0819830750 -1 -1
-0.1431002290 -0.0814736400 -1 -1
-0.1430067030 -0.0808547280 -1 -1
-0.1429049720 -0.0801896380 -1 -1
-0.1427871020 -0.0795381130 -1 -1
-0.1426341870 -0.0789532910 -1 -1
-0.1424179500 -0.0784801780 -1 -1
-0.1421114600 -0.0781547110 -1 -1
-0.1417019490 -0.0780031170 -1 -1
-0.1411968550 -0.0780410190 -1 -1
-0.1406207150 -0.0782714660 -1 -1
-0.1400065110 -0.0786823420 -1 -1
-0.1393867830 -0.0792449870 -1 -1
-0.1387879500 -0.0799148860 -1 -1
-0.1382281110 -0.0806333000 -1 -1
-0.1377176870 -0.0813294350 -1 -1
-0.1372620770 -0.0819249350 -1 -1
-0.1368646570 -0.0823415240 -1 -1
-0.1365290290 -0.0825098160 -1 -1
-0.1362608820 -0.0823764440 -1 -1
-0.1360690290 -0.0819081840 -1 -1
-0.1359644320 -0.0810939980 -1 -1
-0.1359577930 -0.0799469480 -1 -1
-0.1360578560 -0.0785061500 -1 -1
-0.1362701490 -0.0768366480 -1 -1
-0.1365936300 -0.0750255970 -1 -1
-0.1370157110 -0.0731752930 -1 -1
-0.1375091060 -0.0713946130 -1 -1
-0.1380327620 -0.0697905990 -1 -1
-0.1385371180 -0.0684611080 -1 -1
-0.1389718590 -0.0674882560 -1 -1
-0.1392931550 -0.0669321210 -1 -1
-0.1394693540 -0.0668249710 -1 -1
-0.1394855780 -0.0671675320 -1 -1
-0.1393459000 -0.0679290960 -1 -1
-0.1390708070 -0.0690516080 -1 -1
-0.1386901510 -0.0704560170 -1 -1
-0.1382351020 -0.0720494370 -1 -1
-0.1377331630 -0.0737328160 -1 -1
-0.1372076200 -0.0754084510 -1 -1
-0.1366794920 -0.0769863530 -1 -1
-0.1361694770 -0.0783896730 -1 -1
-0.1356991350 -0.0795594740 -1 -1
-0.1352914730 -0.0804579900 -1 -1
-0.1349696930 -0.0810694700 -1 -1
-0.1347527990 -0.0813985540 -1 -1
-0.1346499420 -0.0814668810 -1 -1
-0.1346571340 -0.0813095510 -1 -1
-0.1347569530 -0.0809730320 -1 -1
-0.1349198120 -0.0805141760 -1 -1
-0.1351070250 -0.0799983950 -1 -1
-0.1352761570 -0.0794955550 -1 -1
-0.1353870140 -0.0790737430 -1 -1
-0.1354074390 -0.0787914210 -1 -1
-0.1353194660 -0.0786882420 -1 -1
-0.1351241170 -0.0787764300 -1 -1
-0.1348412940 -0.0790364070 -1 -1
-0.1345043250 -0.0794190030 -1 -1
-0.1341524240 -0.0798530200 -1 -1
-0.1338240530 -0.0802549740 -1 -1
-0.1335521870 -0.0805389700 -1 -1
-0.1333616010 -0.0806268820 -1 -1
-0.1332677080 -0.0804590990 -1 -1
-0.1332757520 -0.0800044580 -1 -1
-0.1333799610 -0.0792671940 -1 -1
-0.1335633380 -0.0782890720 -1 -1
-0.1337986340 -0.0771454210 -1 -1
-0.1340506500 -0.0759352720 -1 -1
-0.1342795550 -0.0747676880 -1 -1
-0.1344442070 -0.0737470710 -1 -1
-0.1345048330 -0.0729603600 -1 -1
-0.1344257170 -0.0724680830 -1 -1
-0.1341797410 -0.0722994200 -1 -1
-0.1337562880 -0.0724505100 -1 -1
-0.1331698400 -0.0728851420 -1 -1
-0.1324630240 -0.0735369600 -1 -1
-0.1317011300 -0.0743138810 -1 -1
-0.1309607650 -0.0751069200 -1 -1
-0.1303166010 -0.0758041300 -1 -1
-0.1298289240 -0.0763071900 -1 -1
-0.1295347640 -0.0765468250 -1 -1
-0.1294448480 -0.0764940490 -1 -1
-0.1295461770 -0.0761652410 -1 -1
-0.1298081740 -0.0756194200 -1 -1
-0.1301897580 -0.0749474020 -1 -1
-0.1306444890 -0.0742554220 -1 -1
-0.1311229210 -0.0736481110 -1 -1
-0.1315746470 -0.0732154740 -1 -1
-0.1319524610 -0.0730255320 -1 -1
-0.1322179060 -0.0731205470 -1 -1
-0.1323462430 -0.0735136350 -1 -1
-0.1323300460 -0.0741852330 -1 -1
-0.1321808910 -0.0750819680 -1 -1
-0.1319270290 -0.0761211080 -1 -1
-0.1316056640 -0.0772016500 -1 -1
-0.1312533550 -0.0782195140 -1 -1
-0.1309003040 -0.0790825080 -1 -1
-0.1305698080 -0.0797217840 -1 -1
-0.1302796220 -0.0800984120 -1 -1
-0.1300426200 -0.0802050320 -1 -1
-0.1298668190 -0.0800632620 -1 -1
-0.1297559390 -0.0797178200 -1 -1
-0.1297108840 -0.0792281350 -1 -1
-0.1297315430 -0.0786583030 -1 -1
-0.1298182380 -0.0780672240 -1 -1
-0.1299719590 -0.0775013580 -1 -1
-0.1301925320 -0.0769917360 -1 -1
-0.1304754450 -0.0765549770 -1 -1
-0.1308094880 -0.0761963190 -1 -1
-0.1311765340 -0.0759128370 -1 -1
-0.1315533370 -0.0756964740 -1 -1
-0.1319142190 -0.0755365770 -1 -1
-0.1322331050 -0.0754210040 -1 -1
-0.1324852930 -0.0753356520 -1 -1
-0.1326511410 -0.0752629470 -1 -1
-0.1327218380 -0.0751796980 -1 -1
-0.1327044540 -0.0750555310 -1 -1
-0.1326233650 -0.0748543190 -1 -1
-0.1325167700 -0.0745397630 -1 -1
-0.1324287710 -0.0740836770 -1 -1
-0.1323989340 -0.0734743160 -1 -1
-0.1324528620 -0.0727224530 -1 -1
-0.1325976860 -0.0718634130 -1 -1
-0.1328236100 -0.0709538170 -1 -1
-0.1331087680 -0.0700636060 -1 -1
-0.1334239300 -0.0692661770 -1 -1
-0.1337357100 -0.0686295760 -1 -1
-0.1340088800 -0.0682097810 -1 -1
-0.1342088960 -0.0680458940 -1 -1
-0.1343051050 -0.0681570110 -1 -1
-0.1342741940 -0.0685411620 -1 -1
-0.1341029500 -0.0691768310 -1 -1
-0.1337891950 -0.0700267450 -1 -1
-0.1333400990 -0.0710422060 -1 -1
-0.1327689400 -0.0721659300 -1 -1
-0.1320934190 -0.0733336210 -1 -1
-0.1313371500 -0.0744768820 -1 -1
-0.1305319390 -0.0755284240 -1 -1
-0.1297175040 -0.0764269150 -1 -1
-0.1289380450 -0.0771191270 -1 -1
-0.1282368390 -0.0775607700 -1 -1
-0.1276498790 -0.0777190060 -1 -1
-0.1272001600 -0.0775777110 -1 -1
-0.1268945500 -0.0771438150 -1 -1
-0.1267231990 -0.0764514920 -1 -1
-0.1266612970 -0.0755618450 -1 -1
-0.1266757670 -0.0745584940 -1 -1
-0.1267366130 -0.0735403090 -1 -1
-0.1268255330 -0.0726116290 -1 -1
-0.1269356470 -0.0718715270 -1 -1
-0.1270650300 -0.0714045290 -1 -1
-0.1272104000 -0.0712728220 -1 -1
-0.1273638680 -0.0715087290 -1 -1
-0.1275128150 -0.0721083900 -1 -1
