0.0196468610 0.0229389000 0 0
0.0207758250 0.0200813710 0 0
0.0218282000 0.0170138800 0 0
0.0226853370 0.0140377350 0 0
0.0232358610 0.0114469930 0 0
0.0233888710 0.0094995300 0 0
0.0230868890 0.0083932810 0 0
0.0223153470 0.0082482090 0 0
0.0211063000 0.0090930970 0 0
0.0195353610 0.0108582480 0 0
0.0177123240 0.0133772380 0 0
0.0157674340 0.0164000930 0 0
0.0138356920 0.0196173740 0 0
0.0120405810 0.0226922780 0 0
0.0104789190 0.0252969020 0 0
0.0092102800 0.0271482870 0 0
0.0082540790 0.0280390170 0 0
0.0075936170 0.0278581390 0 0
0.0071829010 0.0266011710 0 0
0.0069526660 0.0243704000 0 0
0.0068154970 0.0213663180 0 0
0.0066723100 0.0178696230 0 0
0.0064217690 0.0142137480 0 0
0.0059716990 0.0107509740 0 0
0.0052500690 0.0078172860 0 0
0.0042137310 0.0056994500 0 0
0.0028541140 0.0046060250 0 0
0.0011994920 0.0046449340 0 0
-0.0006863050 0.0058113060 0 0
-0.0027085840 0.0079883780 0 0
-0.0047500060 0.0109615970 0 0
-0.0066824900 0.0144428700 0 0
-0.0083812610 0.0181005160 0 0
-0.0097383120 0.0215908710 0 0
-0.0106734790 0.0245889270 0 0
-0.0111422870 0.0268170350 0 0
-0.0111392980 0.0280710040 0 0
-0.0106964990 0.0282419800 0 0
-0.0098784730 0.0273307130 0 0
-0.0087766350 0.0254495730 0 0
-0.0075030400 0.0228096900 0 0
-0.0061823880 0.0196953970 0 0
-0.0049409990 0.0164312030 0 0
-0.0038934920 0.0133465630 0 0
-0.0031300800 0.0107422620 0 0
-0.0027079690 0.0088617780 0 0
-0.0026483050 0.0078711740 0 0
-0.0029371210 0.0078488740 0 0
-0.0035284250 0.0087827370 0 0
-0.0043491860 0.0105720960 0 0
-0.0053062890 0.0130352740 0 0
-0.0062950620 0.0159237900 0 0
-0.0072089350 0.0189442380 0 0
-0.0079493760 0.0217879070 0 0
-0.0084354420 0.0241642810 0 0
-0.0086125820 0.0258320340 0 0
-0.0084594640 0.0266231370 0 0
-0.0079908200 0.0264582080 0 0
-0.0072552270 0.0253527190 0 0
-0.0063285480 0.0234149100 0 0
-0.0053050470 0.0208358070 0 0
-0.0042877440 0.0178709520 0 0
-0.0033784980 0.0148155120 0 0
-0.0026684070 0.0119757540 0 0
-0.0022296090 0.0096391580 0 0
-0.0021086540 0.0080461030 0 0
-0.0023210730 0.0073662000 0 0
-0.0028478340 0.0076808070 0 0
-0.0036351200 0.0089740360 0 0
-0.0045986260 0.0111349660 0 0
-0.0056326470 0.0139700610 0 0
-0.0066221440 0.0172213920 0 0
-0.0074544240 0.0205878900 0 0
-0.0080289380 0.0237505660 0 0
-0.0082662800 0.0264031200 0 0
-0.0081164640 0.0282855870 0 0
-0.0075647180 0.0292145090 0 0
-0.0066336180 0.0291023210 0 0
-0.0053818440 0.0279626990 0 0
-0.0038995270 0.0259046500 0 0
-0.0022995640 0.0231196390 0 0
-0.0007054170 0.0198633160 0 0
0.0007618750 0.0164326540 0 0
0.0019945230 0.0131395180 0 0
0.0029064740 0.0102806020 0 0
0.0034414390 0.0081055580 0 0
0.0035806720 0.0067897350 0 0
0.0033478050 0.0064181640 0 0
0.0028074730 0.0069821580 0 0
0.0020567370 0.0083853730 0 0
0.0012110320 0.0104558320 0 0
0.0003880370 0.0129623260 0 0
-0.0003069810 0.0156348080 0 0
-0.0007919540 0.0181888620 0 0
-0.0010142130 0.0203540370 0 0
-0.0009525550 0.0219029840 0 0
-0.0006160270 0.0226751560 0 0
-0.0000402917 0.0225905580 0 0
0.0007174430 0.0216542500 0 0
0.0015836890 0.0199543430 0 0
0.0024729860 0.0176540570 0 0
0.0032914390 0.0149769640 0 0
0.0039420800 0.0121855920 0 0
0.0043346470 0.0095553880 0 0
0.0043986180 0.0073474880 0 0
0.0040948620 0.0057841020 0 0
0.0034222630 0.0050285750 0 0
0.0024189180 0.0051696580 0 0
0.0011589150 0.0062102840 0 0
-0.0002552280 0.0080642860 0 0
-0.0017043270 0.0105639110 0 0
-0.0030664710 0.0134769550 0 0
-0.0042300440 0.0165300160 0 0
-0.0051038160 0.0194349730 0 0
-0.0056238240 0.0219169160 0 0
-0.0057572390 0.0237412340 0 0
-0.0055031500 0.0247363790 0 0
-0.0048908660 0.0248095440 0 0
-0.0039770940 0.0239549330 0 0
-0.0028424670 0.0222556180 0 0
-0.0015866930 0.0198786920 0 0
-0.0003221790 0.0170621630 0 0
0.0008331680 0.0140932790 0 0
0.0017641500 0.0112802180 0 0
0.0023687610 0.0089204800 0 0
0.0025709230 0.0072697320 0 0
0.0023324600 0.0065145430 0 0
0.0016600170 0.0067515900 0 0
0.0006044160 0.0079750750 0 0
-0.0007470450 0.0100745610 0 0
-0.0022823080 0.0128459430 0 0
-0.0038766940 0.0160157690 0 0
-0.0054043810 0.0192741230 0 0
-0.0067500240 0.0223084240 0 0
-0.0078200270 0.0248324640 0 0
-0.0085512020 0.0266093210 0 0
-0.0089146900 0.0274695860 0 0
-0.0089153260 0.0273261900 0 0
-0.0085888070 0.0261849530 0 0
-0.0079985020 0.0241479200 0 0
-0.0072311500 0.0214067630 0 0
-0.0063894030 0.0182259560 0 0
-0.0055805840 0.0149182300 0 0
-0.0049037230 0.0118151470 0 0
-0.0044381400 0.0092338040 0 0
-0.0042358660 0.0074416450 0 0
-0.0043183290 0.0066251410 0 0
-0.0046762690 0.0068687960 0 0
-0.0052715350 0.0081477460 0 0
-0.0060399930 0.0103335540 0 0
-0.0068956630 0.0132112560 0 0
-0.0077368600 0.0165061710 0 0
-0.0084552310 0.0199169070 0 0
-0.0089472560 0.0231473040 0 0
-0.0091254690 0.0259323510 0 0
-0.0089260340 0.0280595340 0 0
-0.0083127590 0.0293862410 0 0
-0.0072812600 0.0298479590 0 0
-0.0058648290 0.0294547850 0 0
-0.0041383560 0.0282833110 0 0
-0.0022160720 0.0264707040 0 0
-0.0002421300 0.0242087260 0 0
0.0016250700 0.0217321180 0 0
0.0032328330 0.0192992430 0 0
0.0044544540 0.0171666080 0 0
0.0052049690 0.0155615240 0 0
0.0054496360 0.0146574140 0 0
0.0052051870 0.0145548100 0 0
0.0045352390 0.0152699770 0 0
0.0035414710 0.0167327740 0 0
0.0023521120 0.0187941060 0 0
0.0011088240 0.0212413990 0 0
-0.0000471307 0.0238195390 0 0
-0.0009882990 0.0262548210 0 0
-0.0016128120 0.0282796840 0 0
-0.0018535880 0.0296570880 0 0
-0.0016845280 0.0302044540 0 1
-0.0011232120 0.0298158040 0 0
-0.0002291990 0.0284779480 0 0
0.0009028550 0.0262758100 0 0
0.0021547690 0.0233848570 0 0
0.0033989230 0.0200527440 0 0
0.0045118740 0.0165740070 0 0
0.0053851170 0.0132603300 0 0
0.0059327370 0.0104089390 0 0
0.0060976810 0.0082734740 0 0
0.0058578450 0.0070409430 0 0
0.0052305190 0.0068153350 0 0
0.0042723390 0.0076077530 0 0
0.0030730710 0.0093338510 0 0
0.0017443940 0.0118191980 0 0
0.0004070040 0.0148128820 0 0
-0.0008212270 0.0180100880 0 0
-0.0018357330 0.0210829000 0 0
-0.0025549180 0.0237154030 0 0
-0.0029277100 0.0256371760 0 0
-0.0029370050 0.0266500520 0 0
-0.0025991990 0.0266462660 0 0
-0.0019615720 0.0256186330 0 0
-0.0010981790 0.0236620950 0 0
-0.0001038510 0.0209644980 0 0
0.0009137730 0.0177870020 0 0
0.0018439490 0.0144376200 0 0
0.0025834500 0.0112409310 0 0
0.0030463060 0.0085061620 0 0
0.0031713110 0.0064967300 0 0
0.0029276820 0.0054037630 0 0
0.0023198750 0.0053247850 0 0
0.0013911970 0.0062503260 0 0
0.0002240440 0.0080634130 0 0
-0.0010655460 0.0105546900 0 0
-0.0023393480 0.0134504330 0 0
-0.0034527770 0.0164470790 0 0
-0.0042726080 0.0192449800 0 0
-0.0046938470 0.0215755770 0 0
-0.0046529680 0.0232209300 0 0
-0.0041358620 0.0240284980 0 0
-0.0031796750 0.0239228220 0 0
-0.0018682690 0.0229125100 0 0
-0.0003221710 0.0210903720 0 0
0.0013152570 0.0186260330 0 0
0.0028937950 0.0157519340 0 0
0.0042724570 0.0127444910 0 0
0.0053332520 0.0099013150 0 0
0.0059911240 0.0075138960 0 0
0.0062001950 0.0058366820 0 0
0.0059562290 0.0050572560 0 0
0.0052941860 0.0052732840 0 0
0.0042811810 0.0064798000 0 0
0.0030078090 0.0085687080 0 0
0.0015805060 0.0113413260 0 0
0.0001146830 0.0145317830 0 0
-0.0012733250 0.0178359320 0 0
-0.0024763860 0.0209408670 0 0
-0.0034076960 0.0235535330 0 0
-0.0040106520 0.0254284180 0 0
-0.0042651030 0.0263923440 0 0
-0.0041882130 0.0263624750 0 0
-0.0038295840 0.0253536820 0 0
-0.0032623770 0.0234740620 0 0
-0.0025732520 0.0209115590 0 0
-0.0018533300 0.0179156920 0 0
-0.0011908060 0.0147754830 0 0
-0.0006641260 0.0117937010 0 0
-0.0003342460 0.0092594920 0 0
-0.0002365520 0.0074220830 0 0
-0.0003754730 0.0064674530 0 0
-0.0007247650 0.0064998340 0 0
-0.0012338160 0.0075298350 0 0
-0.0018371000 0.0094705500 0 0
-0.0024623550 0.0121428950 0 0
-0.0030348640 0.0152912610 0 0
-0.0034793520 0.0186096530 0 0
-0.0037230560 0.0217759830 0 0
-0.0037016220 0.0244883450 0 0
-0.0033665980 0.0264957610 0 0
-0.0026925070 0.0276201090 0 0
-0.0016821320 0.0277711960 0 0
-0.0003698680 0.0269560310 0 0
0.0011767520 0.0252785280 0 0
0.0028590180 0.0229263340 0 0
0.0045552140 0.0201476830 0 0
0.0061348120 0.0172246480 0 0
0.0074748770 0.0144472140 0 0
0.0084746610 0.0120893750 0 0
0.0090663270 0.0103867380 0 0
0.0092208430 0.0095153350 0 0
0.0089488620 0.0095742530 0 0
0.0082979440 0.0105764080 0 0
0.0073478930 0.0124486150 0 0
0.0062042250 0.0150380180 0 0
0.0049888540 0.0181229260 0 0
0.0038282230 0.0214300200 0 0
0.0028399870 0.0246603090 0 0
0.0021196680 0.0275211880 0 0
0.0017297130 0.0297583480 0 0
0.0016940170 0.0311835880 0 1
0.0019986710 0.0316957070 0 1
0.0025961920 0.0312892630 0 1
0.0034102910 0.0300484600 0 1
0.0043416600 0.0281313160 0 0
0.0052772850 0.0257519790 0 0
0.0061034020 0.0231633030 0 0
0.0067192890 0.0206367480 0 0
0.0070490910 0.0184377450 0 0
0.0070500680 0.0167979000 0 0
0.0067159800 0.0158879130 0 0
0.0060752180 0.0157962810 0 0
0.0051847760 0.0165178610 0 0
0.0041219440 0.0179543310 0 0
0.0029755760 0.0199261080 0 0
0.0018384860 0.0221927580 0 0
0.0008018150 0.0244782800 0 0
-0.0000495423 0.0264989580 0 0
-0.0006423190 0.0279926550 0 0
-0.0009219770 0.0287475960 0 0
-0.0008609300 0.0286270020 0 0
-0.0004660100 0.0275859260 0 0
0.0002177920 0.0256774600 0 0
0.0011098750 0.0230464920 0 0
0.0021030070 0.0199122760 0 0
0.0030763710 0.0165440970 0 0
0.0039095990 0.0132337630 0 0
0.0044953560 0.0102671190 0 0
0.0047491020 0.0078973410 0 0
0.0046160350 0.0063231410 0 0
0.0040761820 0.0056732300 0 0
0.0031475050 0.0059961760 0 0
0.0018848620 0.0072550530 0 0
0.0003728680 0.0093289070 0 0
-0.0012858100 0.0120236830 0 0
-0.0029825410 0.0150917130 0 0
-0.0046125220 0.0182559260 0 0
-0.0060824520 0.0212352470 0 0
-0.0073168790 0.0237690830 0 0
-0.0082631260 0.0256398310 0 0
-0.0088948220 0.0266921860 0 0
-0.0092144970 0.0268475210 0 0
-0.0092546600 0.0261120480 0 0
-0.0090753090 0.0245780250 0 0
-0.0087565570 0.0224168940 0 0
-0.0083878530 0.0198644740 0 0
-0.0080567610 0.0171994280 0 0
-0.0078386940 0.0147156170 0 0
-0.0077875200 0.0126903080 0 0
-0.0079286400 0.0113531010 0 0
-0.0082569950 0.0108607350 0 0
-0.0087398420 0.0112807240 0 0
-0.0093216320 0.0125846300 0 0
-0.0099290260 0.0146513620 0 0
-0.0104764490 0.0172806910 0 0
-0.0108739170 0.0202149650 0 0
-0.0110375610 0.0231656140 0 0
-0.0109007410 0.0258415560 0 0
-0.0104227510 0.0279767320 0 0
-0.0095934910 0.0293538890 0 0
-0.0084344670 0.0298230390 0 0
-0.0069978140 0.0293149820 0 0
-0.0053645740 0.0278500040 0 0
-0.0036414360 0.0255394640 0 0
-0.0019542960 0.0225774440 0 0
-0.0004378990 0.0192227420 0 0
0.0007781040 0.0157745530 0 0
0.0015850860 0.0125449680 0 0
0.0019103330 0.0098296900 0 0
0.0017275860 0.0078784370 0 0
0.0010608660 0.0068679780 0 0
-0.0000190110 0.0068818410 0 0
-0.0014040200 0.0079008730 0 0
-0.0029622920 0.0098067040 0 0
-0.0045523130 0.0123962650 0 0
-0.0060353890 0.0154033870 0 0
-0.0072860960 0.0185244150 0 0
-0.0082019350 0.0214466140 0 0
-0.0087120640 0.0238785150 0 0
-0.0087830360 0.0255796360 0 0
-0.0084199590 0.0263856050 0 0
-0.0076638490 0.0262247400 0 0
-0.0065873500 0.0251228850 0 0
-0.0052898530 0.0231962140 0 0
-0.0038906310 0.0206359230 0 0
-0.0025183580 0.0176896100 0 0
-0.0012976990 0.0146410490 0 0
-0.0003354760 0.0117880030 0 0
0.0002912070 0.0094174340 0 0
0.0005431760 0.0077777620 0 0
0.0004224430 0.0070506570 0 0
-0.0000302092 0.0073284480 0 0
-0.0007428380 0.0086029190 0 0
-0.0016228360 0.0107673770 0 0
-0.0025670880 0.0136293700 0 0
-0.0034704880 0.0169296810 0 0
-0.0042341500 0.0203656890 0 0
-0.0047739600 0.0236192180 0 0
-0.0050276050 0.0263869960 0 0
-0.0049582340 0.0284100950 0 0
-0.0045552490 0.0294992480 0 0
-0.0038340530 0.0295532190 0 0
-0.0028355300 0.0285685060 0 0
-0.0016247570 0.0266402440 0 0
-0.0002880790 0.0239542600 0 0
0.0010726600 0.0207703540 0 0
0.0023494170 0.0173980050 0 0
0.0034396190 0.0141663180 0 0
0.0042577520 0.0113906110 0 0
0.0047446690 0.0093393800 0 0
0.0048736210 0.0082063560 0 0
0.0046526320 0.0080911780 0 0
0.0041231820 0.0089899160 0 0
0.0033559970 0.0107963420 0 0
0.0024447010 0.0133150590 0 0
0.0014969750 0.0162851700 0 0
0.0006229890 0.0194100370 0 0
-0.0000773760 0.0223871440 0 0
-0.0005259240 0.0249337230 0 0
-0.0006741810 0.0268081280 0 0
-0.0005073820 0.0278293830 0 0
-0.0000444260 0.0278953740 0 0
0.0006660290 0.0269962940 0 0
0.0015524520 0.0252186720 0 0
0.0025285870 0.0227381660 0 0
0.0035016280 0.0198023480 0 0
0.0043802990 0.0167053750 0 0
0.0050825870 0.0137574000 0 0
0.0055421150 0.0112532200 0 0
0.0057126840 0.0094440830 0 0
0.0055719490 0.0085138820 0 0
0.0051246470 0.0085596090 0 0
0.0044042930 0.0095782790 0 0
0.0034723350 0.0114647800 0 0
0.0024142290 0.0140224910 0 0
0.0013312260 0.0169846260 0 0
0.0003276400 0.0200431990 0 0
-0.0005031910 0.0228819940 0 0
-0.0010892500 0.0252095410 0 0
-0.0013844150 0.0267886250 0 0
-0.0013697110 0.0274592420 0 0
-0.0010544800 0.0271525400 0 0
-0.0004776620 0.0258953820 0 0
0.0002932490 0.0238062740 0 0
0.0011673820 0.0210827000 0 0
0.0020396050 0.0179803740 0 0
0.0028021890 0.0147872130 0 0
0.0033570910 0.0117962150 0 0
0.0036264800 0.0092798650 0 0
0.0035597990 0.0074660730 0 0
0.0031374190 0.0065158050 0 0
0.0023723190 0.0065053020 0 0
0.0013108670 0.0074169790 0 0
0.0000320350 0.0091416470 0 0
-0.0013570640 0.0114912110 0 0
-0.0027308180 0.0142186630 0 0
-0.0039591210 0.0170430970 0 0
-0.0049228740 0.0196776350 0 0
-0.0055279160 0.0218564670 0 0
-0.0057157220 0.0233582580 0 0
-0.0054701660 0.0240257020 0 0
-0.0048196900 0.0237803410 0 0
-0.0038343140 0.0226301360 0 0
-0.0026176280 0.0206686420 0 0
-0.0012944260 0.0180668700 0 0
0.0000048577 0.0150588970 0 0
0.0011602550 0.0119212240 0 0
0.0020751700 0.0089465700 0 0
0.0026841240 0.0064151320 0 0
0.0029561720 0.0045674950 0 0
0.0028950150 0.0035808800 0 0
0.0025356550 0.0035488220 0 0
0.0019382180 0.0044676290 0 0
0.0011811020 0.0062346450 0 0
0.0003546290 0.0086594830 0 0
-0.0004456960 0.0114853300 0 0
-0.0011269500 0.0144167940 0 0
-0.0016065460 0.0171505910 0 0
-0.0018189050 0.0194052040 0 0
-0.0017213090 0.0209470670 0 0
-0.0012996770 0.0216129390 0 0
-0.0005741590 0.0213275570 0 0
0.0003976750 0.0201130410 0 0
0.0015235860 0.0180863370 0 0
0.0026865890 0.0154447750 0 0
0.0037593140 0.0124435490 0 0
0.0046193690 0.0093695950 0 0
0.0051639550 0.0065149150 0 0
0.0053227340 0.0041506530 0 0
0.0050672270 0.0025026880 0 0
0.0044144400 0.0017300630 0 0
0.0034235130 0.0019081290 0 0
0.0021869010 0.0030188260 0 0
0.0008195790 0.0049510530 0 0
-0.0005513690 0.0075123170 0 0
-0.0017971040 0.0104502500 0 0
-0.0027984060 0.0134813620 0 0
-0.0034571590 0.0163223210 0 0
-0.0037057210 0.0187172650 0 0
-0.0035128340 0.0204572130 0 0
-0.0028863420 0.0213923300 0 0
-0.0018730020 0.0214401070 0 0
-0.0005544240 0.0205921310 0 0
0.0009614120 0.0189186330 0 0
0.0025512870 0.0165668840 0 0
0.0040879810 0.0137515210 0 0
0.0054505930 0.0107381070 0 0
0.0065339930 0.0078207480 0 0
0.0072572940 0.0052940870 0 0
0.0075709860 0.0034218390 0 0
0.0074624070 0.0024061740 0 0
0.0069586060 0.0023628850 0 0
0.0061251130 0.0033066240 0 0
0.0050602630 0.0051489710 0 0
0.0038859680 0.0077092580 0 0
0.0027354390 0.0107349120 0 0
0.0017379510 0.0139278620 0 0
0.0010020810 0.0169747540 0 0
0.0006008630 0.0195778590 0 0
0.0005633040 0.0214826080 0 0
0.0008750050 0.0224997620 0 0
0.0014863030 0.0225228720 0 0
0.0023227830 0.0215407590 0 0
0.0032935390 0.0196419840 0 0
0.0042967430 0.0170082880 0 0
0.0052251190 0.0138968820 0 0
0.0059727490 0.0106142190 0 0
0.0064427610 0.0074848770 0 0
0.0065556790 0.0048188380 0 0
0.0062578480 0.0028800230 0 0
0.0055282400 0.0018589150 0 0
0.0043827210 0.0018520630 0 0
0.0028762750 0.0028513790 0 0
0.0011028480 0.0047457310 0 0
-0.0008094080 0.0073343170 0 0
-0.0027091900 0.0103486670 0 0
-0.0044383830 0.0134807530 0 0
-0.0058507600 0.0164147170 0 0
-0.0068298080 0.0188576620 0 0
-0.0073021950 0.0205655040 0 0
-0.0072445030 0.0213635730 0 0
-0.0066836680 0.0211629350 0 0
-0.0056931100 0.0199709390 0 0
-0.0043855390 0.0178931330 0 0
-0.0029022830 0.0151249180 0 0
-0.0013988090 0.0119327660 0 0
-0.0000268790 0.0086262190 0 0
0.0010835710 0.0055243740 0 0
0.0018374950 0.0029224600 0 0
0.0021799320 0.0010629290 0 0
0.0020954820 0.0001127760 0 0
0.0016058110 0.0001485040 0 0
0.0007669390 0.0011503480 0 0
-0.0003343940 0.0030055730 0 0
-0.0015864590 0.0055201890 0 0
-0.0028606620 0.0084389350 0 0
-0.0040220190 0.0114713160 0 0
-0.0049425100 0.0143197430 0 0
-0.0055169810 0.0167074930 0 0
-0.0056788880 0.0184054890 0 0
-0.0054114990 0.0192552760 0 0
-0.0047508100 0.0191836570 0 0
-0.0037788170 0.0182060570 0 0
-0.0026086840 0.0164203040 0 0
-0.0013658440 0.0139955340 0 0
-0.0001705710 0.0111591740 0 0
0.0008736490 0.0081809920 0 0
0.0016859130 0.0053519200 0 0
0.0022108420 0.0029577110 0 0
0.0024204020 0.0012497700 0 0
0.0023141500 0.0004162530 0 0
0.0019174810 0.0005576510 0 0
0.0012781820 0.0016722230 0 0
0.0004619080 0.0036548230 0 0
-0.0004524170 0.0063088740 0 0
-0.0013766760 0.0093683080 0 0
-0.0022176980 0.0125257250 0 0
-0.0028826910 0.0154644820 0 0
-0.0032872180 0.0178924750 0 0
-0.0033661710 0.0195731360 0 0
-0.0030857460 0.0203493320 0 0
-0.0024519460 0.0201588980 0 0
-0.0015115850 0.0190418580 0 0
-0.0003454600 0.0171382020 0 0
0.0009431360 0.0146743980 0 0
0.0022408620 0.0119381970 0 0
0.0034355210 0.0092447320 0 0
0.0044252670 0.0069000110 0 0
0.0051268000 0.0051682180 0 0
0.0054839260 0.0042472670 0 0
0.0054755760 0.0042538620 0 0
0.0051200280 0.0052164650 0 0
0.0044730230 0.0070744750 0 0
0.0036201980 0.0096838470 0 0
0.0026659840 0.0128303830 0 0
0.0017214070 0.0162504260 0 0
0.0008922540 0.0196556460 0 0
0.0002677230 0.0227575740 0 0
-0.0000906733 0.0252907470 0 0
-0.0001580650 0.0270360270 0 0
0.0000506568 0.0278422920 0 0
0.0004854650 0.0276411530 0 0
0.0010713550 0.0264521530 0 0
0.0017201770 0.0243804140 0 0
0.0023416630 0.0216086530 0 0
0.0028531520 0.0183836260 0 0
0.0031878520 0.0149972650 0 0
0.0033007840 0.0117629270 0 0
0.0031716230 0.0089864430 0 0
0.0028049920 0.0069337650 0 0
0.0022290290 0.0058008230 0 0
0.0014922440 0.0056911110 0 0
0.0006590100 0.0066034680 0 0
-0.0001950820 0.0084306880 0 0
-0.0009871490 0.0109690620 0 0
-0.0016307560 0.0139379170 0 0
-0.0020417410 0.0170080120 0 0
-0.0021484700 0.0198369450 0 0
-0.0019054180 0.0221071030 0 0
-0.0013045080 0.0235604720 0 0
-0.0003783510 0.0240262350 0 0
0.0008056760 0.0234380300 0 0
0.0021565890 0.0218385430 0 0
0.0035715040 0.0193717190 0 0
0.0049458730 0.0162650050 0 0
0.0061827270 0.0128043730 0 0
0.0072012480 0.0093048230 0 0
0.0079434800 0.0060795150 0 0
0.0083775680 0.0034107140 0 0
0.0084973090 0.0015252720 0 0
0.0083193410 0.0005765730 0 0
0.0078800000 0.0006332290 0 0
0.0072328710 0.0016742250 0 0
0.0064462280 0.0035912530 0 0
0.0055993420 0.0061986980 0 0
0.0047782110 0.0092503060 0 0
0.0040714830 0.0124612880 0 0
0.0035650910 0.0155342810 0 0
0.0033334180 0.0181866750 0 0
0.0034280170 0.0201769200 0 0
0.0038681080 0.0213281550 0 0
0.0046359060 0.0215470790 0 0
0.0056768970 0.0208351840 0 0
0.0069047940 0.0192893840 0 0
0.0082113640 0.0170910100 0 0
0.0094797500 0.0144854550 0 0
0.0105987220 0.0117561790 0 0
0.0114760510 0.0091959860 0 0
0.0120492940 0.0070785460 0 0
0.0122917780 0.0056330250 0 0
0.0122129550 0.0050229720 0 0
0.0118540440 0.0053296100 0 0
0.0112807640 0.0065410040 0 0
0.0105753560 0.0085502890 0 0
0.0098296590 0.0111654120 0 0
0.0091393550 0.0141295850 0 0
0.0085980500 0.0171485040 0 0
0.0082897450 0.0199199270 0 0
0.0082798500 0.0221632280 0 0
0.0086070970 0.0236476500 0 0
0.0092791020 0.0242166890 0 0
0.0102722400 0.0238047700 0 0
0.0115341860 0.0224435800 0 0
0.0129874330 0.0202576460 0 0
0.0145337760 0.0174503450 0 0
0.0160607610 0.0142824580 0 0
0.0174509110 0.0110455620 0 0
0.0185936060 0.0080327440 0 0
0.0193978750 0.0055105070 0 0
0.0198034380 0.0036953970 0 0
0.0197882110 0.0027358800 0 0
0.0193718050 0.0026991730 0 0
0.0186145320 0.0035649970 0 0
0.0176111920 0.0052279020 0 0
0.0164809490 0.0075067750 0 0
0.0153563610 0.0101598800 0 0
0.0143726120 0.0129060460 0 0
0.0136550800 0.0154517470 0 0
0.0133043620 0.0175201180 0 0
0.0133818700 0.0188775740 0 0
0.0139008590 0.0193568040 0 0
0.0148251660 0.0188752580 0 0
0.0160744530 0.0174458790 0 0
0.0175339640 0.0151774060 0 0
0.0190674900 0.0122644540 0 0
0.0205323570 0.0089687110 0 0
0.0217952720 0.0055931440 0 0
0.0227473760 0.0024529060 0 0
0.0233152230 -0.0001534200 0 0
0.0234644730 -0.0019710020 0 0
0.0231968160 -0.0028142750 0 0
0.0225440590 -0.0025892140 0 0
0.0215627780 -0.0013082670 0 0
0.0203302020 0.0009070090 0 0
0.0189399980 0.0038375450 0 0
0.0174967880 0.0071899060 0 0
0.0161088500 0.0106268250 0 0
0.0148787360 0.0138017760 0 0
0.0138926820 0.0163946760 0 0
0.0132111040 0.0181453170 0 0
0.0128619250 0.0188804440 0 0
0.0128374280 0.0185304520 0 0
0.0130957250 0.0171335570 0 0
0.0135671910 0.0148284070 0 0
0.0141633650 0.0118384110 0 0
0.0147849830 0.0084506110 0 0
0.0153289120 0.0049886780 0 0
0.0156960240 0.0017804050 0 0
0.0158008470 -0.0008743850 0 0
0.0155816100 -0.0027304600 0 0
0.0150081060 -0.0036195440 0 0
0.0140857240 -0.0034678060 0 0
0.0128564460 -0.0023024320 0 0
0.0113979260 -0.0002458550 0 0
0.0098187990 0.0024971120 0 0
0.0082474910 0.0056572460 0 0
0.0068153690 0.0089269090 0 0
0.0056388410 0.0119930660 0 0
0.0048053100 0.0145703170 0 0
0.0043650160 0.0164277210 0 0
0.0043275510 0.0174077480 0 0
0.0046616210 0.0174382250 0 0
0.0052989000 0.0165376610 0 0
0.0061427980 0.0148128140 0 0
0.0070803980 0.0124477600 0 0
0.0079946040 0.0096853000 0 0
0.0087747420 0.0068030840 0 0
0.0093258700 0.0040880130 0 0
0.0095775750 0.0018110500 0 0
0.0094910920 0.0002022820 0 0
0.0090627080 -0.0005719340 0 0
0.0083231380 -0.0004261130 0 0
0.0073337670 0.0006340180 0 0
0.0061805900 0.0025076700 0 0
0.0049663350 0.0050035360 0 0
0.0038007860 0.0078557450 0 0
0.0027897810 0.0107516130 0 0
0.0020249610 0.0133673290 0 0
0.0015761990 0.0154052770 0 0
0.0014864720 0.0166276250 0 0
0.0017681240 0.0168822480 0 0
0.0024005690 0.0161172130 0 0
0.0033301510 0.0143821720 0 0
0.0044730100 0.0118191120 0 0
0.0057223410 0.0086468010 0 0
0.0069607060 0.0051414600 0 0
0.0080751710 0.0016138480 0 0
0.0089711200 -0.0016178930 0 0
0.0095826290 -0.0042595980 0 0
0.0098800320 -0.0060738440 0 0
0.0098752280 -0.0069077820 0 0
0.0096229440 -0.0067094750 0 0
0.0092152790 -0.0055303240 0 0
0.0087690490 -0.0035155530 0 0
0.0084086370 -0.0008863080 0 0
0.0082486620 0.0020836310 0 0
0.0083804640 0.0050944990 0 0
0.0088646850 0.0078486640 0 0
0.0097293570 0.0100776440 0 0
0.0109706810 0.0115657680 0 0
0.0125534990 0.0121688760 0 0
0.0144106290 0.0118267610 0 0
0.0164436740 0.0105687380 0 0
0.0185295000 0.0085125790 0 0
0.0205335290 0.0058562030 0 0
0.0223262700 0.0028605730 0 0
0.0237979360 -0.0001756180 0 0
0.0248678210 -0.0029456580 0 0
0.0254883710 -0.0051651760 0 0
0.0256464930 -0.0066012080 0 0
0.0253640270 -0.0070973810 0 0
0.0246969550 -0.0065911770 0 0
0.0237320720 -0.0051204850 0 0
0.0225805810 -0.0028188780 0 0
0.0213689310 0.0000992587 0 0
0.0202278310 0.0033609460 0 0
0.0192805190 0.0066608800 0 0
0.0186316690 0.0096894780 0 0
0.0183586270 0.0121616700 0 0
0.0185056670 0.0138452970 0 0
0.0190805330 0.0145865030 0 0
0.0200533760 0.0143279330 0 0
0.0213595250 0.0131164000 0 0
0.0229062430 0.0110989970 0 0
0.0245816280 0.0085079210 0 0
0.0262643080 0.0056349530 0 0
0.0278342250 0.0027977670 0 0
0.0291846800 0.0003023560 0 0
0.0302337850 -0.0015911170 1 0
0.0309327340 -0.0026917270 1 0
0.0312701110 -0.0028881790 1 0
0.0312731370 -0.0021495800 1 0
0.0310059950 -0.0005225330 1 0
0.0305638320 0.0018716680 1 0
0.0300615980 0.0048419870 1 0
0.0296191280 0.0081391510 0 0
0.0293452520 0.0114743780 0 0
0.0293236970 0.0145444520 0 0
0.0296032600 0.0170629210 0 0
0.0301936320 0.0187934210 1 0
0.0310662710 0.0195775030 1 0
0.0321588040 0.0193517700 1 0
0.0333821870 0.0181535800 1 0
0.0346303450 0.0161157860 1 0
0.0357918270 0.0134516890 1 0
0.0367624170 0.0104324300 1 0
0.0374566500 0.0073588690 1 0
0.0378155870 0.0045306290 1 0
0.0378099160 0.0022164640 1 0
0.0374399720 0.0006300140 1 0
0.0367343090 -0.0000864958 1 0
0.0357470450 0.0001292630 1 0
0.0345541080 0.0012563420 1 0
0.0332487350 0.0031902830 1 0
0.0319356460 0.0057478010 1 0
0.0307226640 0.0086798910 1 0
0.0297096440 0.0116949740 0 0
0.0289765810 0.0144907280 0 0
0.0285738830 0.0167895460 0 0
0.0285166460 0.0183693320 0 0
0.0287829850 0.0190837680 0 0
0.0293163810 0.0188723570 0 0
0.0300322010 0.0177627200 1 0
0.0308272770 0.0158660990 1 0
0.0315901100 0.0133662330 1 0
0.0322106880 0.0105023950 1 0
0.0325906350 0.0075479110 1 0
0.0326529950 0.0047856950 1 0
0.0323491730 0.0024828820 1 0
0.0316620690 0.0008659680 1 0
0.0306069700 0.0000964054 1 0
0.0292312960 0.0002493490 0 0
0.0276124000 0.0013026100 0 0
0.0258521780 0.0031403770 0 0
0.0240681950 0.0055689170 0 0
0.0223817790 0.0083383890 0 0
0.0209046530 0.0111673050 0 0
0.0197268410 0.0137690170 0 0
0.0189082610 0.0158795400 0 0
0.0184746630 0.0172841890 0 0
0.0184175180 0.0178398010 0 0
0.0186969980 0.0174898540 0 0
0.0192467070 0.0162703740 0 0
0.0199791050 0.0143057240 0 0
0.0207911150 0.0117952400 0 0
0.0215700190 0.0089927160 0 0
0.0222013180 0.0061808960 0 0
0.0225805960 0.0036429910 0 0
0.0226282710 0.0016337320 0 0
0.0223023920 0.0003532740 0 0
0.0216050770 -0.0000731622 0 0
0.0205814050 0.0003920160 0 0
0.0193117360 0.0016954370 0 0
0.0178997420 0.0036992920 0 0
0.0164596690 0.0061958490 0 0
0.0151057070 0.0089278190 0 0
0.0139438760 0.0116133770 0 0
0.0130648740 0.0139739580 0 0
0.0125366790 0.0157616670 0 0
0.0123974910 0.0167833570 0 0
0.0126506850 0.0169196880 0 0
0.0132629990 0.0161383390 0 0
0.0141665380 0.0144998690 0 0
0.0152647860 0.0121540040 0 0
0.0164425560 0.0093250920 0 0
0.0175794060 0.0062879540 0 0
0.0185648560 0.0033380660 0 0
0.0193120230 0.0007612360 0 0
0.0197665150 -0.0011928020 0 0
0.0199098810 -0.0023310600 0 0
0.0197588300 -0.0025333720 0 0
0.0193615520 -0.0017651800 0 0
0.0187919800 -0.0000850586 0 0
0.0181423880 0.0023572930 0 0
0.0175144200 0.0053349680 0 0
0.0170090260 0.0085678170 0 0
0.0167164910 0.0117517940 0 0
0.0167079810 0.0145893350 0 0
0.0170300870 0.0168180050 0 0
0.0177029710 0.0182354790 0 0
0.0187207480 0.0187190040 0 0
0.0200521190 0.0182370470 0 0
0.0216406670 0.0168512470 0 0
0.0234056530 0.0147084390 0 0
0.0252449460 0.0120243850 0 0
0.0270417830 0.0090617920 0 0
0.0286757170 0.0061046940 0 0
0.0300362330 0.0034310530 1 0
0.0310367560 0.0012869860 1 0
0.0316262080 -0.0001341440 1 0
0.0317947710 -0.0007068270 1 0
0.0315720530 -0.0003831440 1 0
0.0310193930 0.0008027500 1 0
0.0302197800 0.0027363270 1 0
0.0292673710 0.0052320770 0 0
0.0282573640 0.0080504910 0 0
0.0272780050 0.0109203770 0 0
0.0264064640 0.0135646690 0 0
0.0257073360 0.0157277930 0 0
0.0252305900 0.0172007040 0 0
0.0250078950 0.0178409230 0 0
0.0250492470 0.0175872080 0 0
0.0253415490 0.0164673960 0 0
0.0258488070 0.0145975110 0 0
0.0265137550 0.0121716990 0 0
0.0272617290 0.0094428780 0 0
0.0280073620 0.0066955850 0 0
0.0286635900 0.0042152820 0 0
0.0291515830 0.0022591770 0 0
0.0294104050 0.0010319820 0 0
0.0294061890 0.0006667930 0 0
0.0291401310 0.0012104390 0 0
0.0286522470 0.0026164880 0 0
0.0280175220 0.0047496060 0 0
0.0273350050 0.0073997080 0 0
0.0267136960 0.0103022000 0 0
0.0262583280 0.0131628670 0 0
0.0260562710 0.0156864250 0 0
0.0261663270 0.0176061670 0 0
0.0266104300 0.0187115310 0 0
0.0273699240 0.0188704100 0 0
0.0283878890 0.0180430090 0 0
0.0295767190 0.0162850850 0 0
0.0308282930 0.0137412640 1 0
0.0320248530 0.0106310130 1 0
0.0330502910 0.0072292060 1 0
0.0338014070 0.0038419210 1 0
0.0341976320 0.0007786630 1 0
0.0341873530 -0.0016764120 1 0
0.0337504240 -0.0032923090 1 0
0.0328981700 -0.0039170510 1 0
0.0316719820 -0.0034975960 1 0
0.0301401230 -0.0020873450 1 0
0.0283920400 0.0001612420 0 0
0.0265308350 0.0030149520 0 0
0.0246658940 0.0061838080 0 0
0.0229065720 0.0093489220 0 0
0.0213551770 0.0121942880 0 0
0.0200974940 0.0144398360 0 0
0.0191922260 0.0158699710 0 0
0.0186624260 0.0163527890 0 0
0.0184911540 0.0158485340 0 0
0.0186227930 0.0144083140 0 0
0.0189702230 0.0121655840 0 0
0.0194259550 0.0093226470 0 0
0.0198748910 0.0061323060 0 0
0.0202072430 0.0028744650 0 0
0.0203299840 -0.0001698570 0 0
0.0201750410 -0.0027432470 0 0
0.0197040550 -0.0046335230 0 0
0.0189111250 -0.0056924420 0 0
0.0178241930 -0.0058505070 0 0
0.0165036890 -0.0051248010 0 0
0.0150366750 -0.0036174700 0 0
0.0135266970 -0.0015056510 0 0
0.0120816330 0.0009751350 0 0
0.0108027270 0.0035532340 0 0
0.0097766680 0.0059474660 0 0
0.0090696160 0.0078943320 0 0
0.0087209610 0.0091723500 0 0
0.0087370820 0.0096229010 0 0
0.0090877700 0.0091671610 0 0
0.0097072650 0.0078162880 0 0
0.0104999020 0.0056721040 0 0
0.0113497160 0.0029178910 0 0
0.0121333120 -0.0001991850 0 0
0.0127347260 -0.0033922650 0 0
0.0130597570 -0.0063640580 0 0
0.0130465810 -0.0088385380 0 0
0.0126703930 -0.0105901230 0 0
0.0119423250 -0.0114655710 0 0
0.0109048330 -0.0113970270 0 0
0.0096257820 -0.0104070120 0 0
0.0081924790 -0.0086062160 0 0
0.0067063420 -0.0061842670 0 0
0.0052777440 -0.0033926780 0 0
0.0040194800 -0.0005194050 0 0
0.0030381150 0.0021421510 0 0
0.0024234600 0.0043230110 0 0
0.0022366070 0.0058017440 0 0
0.0024987960 0.0064210350 0 0
0.0031853560 0.0061007680 0 0
0.0042276110 0.0048475700 0 0
0.0055222210 0.0027574350 0 0
0.0069454040 0.0000087904 0 0
0.0083691790 -0.0031538220 0 0
0.0096772160 -0.0064434300 0 0
0.0107778530 -0.0095595100 0 0
0.0116120450 -0.0122192720 0 0
0.0121553280 -0.0141865520 0 0
0.0124148030 -0.0152941540 0 0
0.0124235520 -0.0154584740 0 0
0.0122349260 -0.0146856170 0 0
0.0119176060 -0.0130684970 0 0
0.0115502770 -0.0107775570 0 0
0.0112147640 -0.0080466490 0 0
0.0109882320 -0.0051519470 0 0
0.0109359280 -0.0023840370 0 0
0.0111056690 -0.0000169897 0 0
0.0115247730 0.0017218950 0 0
0.0121992230 0.0026771180 0 0
0.0131139540 0.0027792580 0 0
0.0142334420 0.0020477940 0 0
0.0155027190 0.0005868770 0 0
0.0168496030 -0.0014243320 0 0
0.0181889270 -0.0037493590 0 0
0.0194296240 -0.0061201070 0 0
0.0204849630 -0.0082660170 0 0
0.0212839510 -0.0099419490 0 0
0.0217804240 -0.0109518500 0 0
0.0219574060 -0.0111669820 0 0
0.0218269760 -0.0105385430 0 0
0.0214278100 -0.0091036040 0 0
0.0208220390 -0.0069819900 0 0
0.0200910800 -0.0043631800 0 0
0.0193295580 -0.0014856750 0 0
0.0186371570 0.0013873340 0 0
0.0181084840 0.0039935250 0 0
0.0178216380 0.0060965790 0 0
0.0178275210 0.0075088970 0 0
0.0181421070 0.0081102450 0 0
0.0187430990 0.0078611810 0 0
0.0195716700 0.0068091030 0 0
0.0205392790 0.0050845020 0 0
0.0215389510 0.0028873710 0 0
0.0224594490 0.0004661440 0 0
0.0231993740 -0.0019081660 0 0
0.0236782210 -0.0039705480 0 0
0.0238433770 -0.0054905700 0 0
0.0236740980 -0.0062971470 0 0
0.0231836000 -0.0062960470 0 0
0.0224187880 -0.0054786200 0 0
0.0214561220 -0.0039214600 0 0
0.0203933640 -0.0017768320 0 0
0.0193392420 0.0007448380 0 0
0.0184032230 0.0033968960 0 0
0.0176856950 0.0059198080 0 0
0.0172682750 0.0080649800 0 0
0.0172055240 0.0096181590 0 0
0.0175200490 0.0104201470 0 0
0.0182014140 0.0103815950 0 0
0.0192078980 0.0094892510 0 0
0.0204707780 0.0078040120 0 0
0.0219015540 0.0054540890 0 0
0.0234015960 0.0026257370 0 0
0.0248720990 -0.0004492190 0 0
0.0262223340 -0.0035107600 0 0
0.0273757740 -0.0062927410 0 0
0.0282747670 -0.0085477310 0 0
0.0288840830 -0.0100721050 0 0
0.0291930480 -0.0107285570 0 0
0.0292159640 -0.0104626320 0 0
0.0289908450 -0.0093094150 0 0
0.0285763210 -0.0073884870 0 0
0.0280463110 -0.0048900010 0 0
0.0274825210 -0.0020564120 0 0
0.0269656170 0.0008388350 0 0
0.0265661710 0.0035164790 0 0
0.0263363100 0.0057191920 0 0
0.0263029610 0.0072379010 0 0
0.0264633380 0.0079325320 0 0
0.0267832060 0.0077453840 0 0
0.0271990050 0.0067071880 0 0
0.0276247300 0.0049356120 0 0
0.0279625110 0.0026246220 0 0
0.0281141260 0.0000240451 0 0
0.0279914540 -0.0025871940 0 0
0.0275260230 -0.0049284950 0 0
0.0266778620 -0.0067426400 0 0
0.0254418070 -0.0078186040 0 0
0.0238486740 -0.0080123600 0 0
0.0219607730 -0.0072636730 0 0
0.0198630630 -0.0056055790 0 0
0.0176518440 -0.0031646600 0 0
0.0154241250 -0.0001520480 0 0
0.0132710870 0.0031545420 0 0
0.0112759660 0.0064369590 0 0
0.0095129630 0.0093688270 0 0
0.0080441380 0.0116502780 0 0
0.0069148300 0.0130412280 0 0
0.0061494170 0.0133894530 0 0
0.0057476150 0.0126495470 0 0
0.0056808600 0.0108892330 0 0
0.0058897870 0.0082821320 0 0
0.0062852900 0.0050889260 0 0
0.0067554790 0.0016291030 0 0
0.0071787930 -0.0017545240 0 0
0.0074406990 -0.0047339930 0 0
0.0074499320 -0.0070302110 0 0
0.0071507230 -0.0084377550 0 0
0.0065289960 -0.0088400750 0 0
0.0056123340 -0.0082173090 0 0
0.0044650410 -0.0066477050 0 0
0.0031792010 -0.0043015790 0 0
0.0018624630 -0.0014267640 0 0
0.0006250710 0.0016739990 0 0
-0.0004307520 0.0046720080 0 0
-0.0012190770 0.0072452960 0 0
-0.0016782240 0.0091118270 0 0
-0.0017785400 0.0100598420 0 0
-0.0015274880 0.0099714500 0 0
-0.0009692780 0.0088352000 0 0
-0.0001780930 0.0067459660 0 0
0.0007535490 0.0038942310 0 0
0.0017277510 0.0005470690 0 0
0.0026520360 -0.0029781370 0 0
0.0034465000 -0.0063452870 0 0
0.0040476420 -0.0092330860 0 0
0.0044104310 -0.0113666000 0 0
0.0045105030 -0.0125436270 0 0
0.0043470080 -0.0126537120 0 0
0.0039447960 -0.0116873190 0 0
0.0033539580 -0.0097332420 0 0
0.0026454600 -0.0069665700 0 0
0.0019033010 -0.0036321490 0 0
0.0012150570 -0.0000252365 0 0
0.0006628130 0.0035327730 0 0
0.0003154470 0.0067245470 0 0
0.0002223620 0.0092699380 0 0
0.0004084170 0.0109553640 0 0
0.0008702620 0.0116532810 0 0
0.0015755110 0.0113313390 0 0
0.0024662820 0.0100540710 0 0
0.0034666280 0.0079771910 0 0
0.0044913000 0.0053323360 0 0
0.0054536890 0.0024015930 0 0
0.0062728020 -0.0005151960 0 0
0.0068805770 -0.0031336900 0 0
0.0072299680 -0.0052121850 0 0
0.0073018770 -0.0065700760 0 0
0.0071083000 -0.0070991540 0 0
0.0066913980 -0.0067701290 0 0
0.0061199690 -0.0056343920 0 0
0.0054837570 -0.0038190140 0 0
0.0048848460 -0.0015146280 0 0
0.0044262110 0.0010422150 0 0
0.0041989130 0.0035909750 0 0
0.0042704950 0.0058714390 0 0
0.0046776450 0.0076473320 0 0
0.0054247760 0.0087274780 0 0
0.0064872950 0.0089839590 0 0
0.0078163860 0.0083656610 0 0
0.0093429010 0.0069051530 0 0
0.0109803800 0.0047183160 0 0
0.0126283680 0.0019967660 0 0
0.0141770810 -0.0010073120 0 0
0.0155147260 -0.0040042380 0 0
0.0165386080 -0.0066963980 0 0
0.0171689170 -0.0088102720 0 0
0.0173614600 -0.0101256630 0 0
0.0171155080 -0.0104982890 0 0
0.0164751070 -0.0098744590 0 0
0.0155238590 -0.0082980580 0 0
0.0143744650 -0.0059093670 0 0
0.0131555080 -0.0029338820 0 0
0.0119978300 0.0003397520 0 0
0.0110215550 0.0035899680 0 0
0.0103243960 0.0064953420 0 0
0.0099726150 0.0087661360 0 0
0.0099963500 0.0101729310 0 0
0.0103895560 0.0105714790 0 0
0.0111131600 0.0099201940 0 0
0.0120998270 0.0082856190 0 0
0.0132597450 0.0058343990 0 0
0.0144878900 0.0028146160 0 0
0.0156730930 -0.0004687750 0 0
0.0167080400 -0.0036815290 0 0
0.0174990940 -0.0064903820 0 0
0.0179754060 -0.0085954690 0 0
0.0180962810 -0.0097629120 0 0
0.0178552320 -0.0098544130 0 0
0.0172801570 -0.0088480210 0 0
0.0164302890 -0.0068428360 0 0
0.0153906960 -0.0040455370 0 0
0.0142647220 -0.0007438620 0 0
0.0131645540 0.0027255950 0 0
0.0122007100 0.0060107270 0 0
0.0114717910 0.0087769810 0 0
0.0110550830 0.0107391290 0 0
0.0109979020 0.0116889900 0 0
0.0113105370 0.0115157790 0 0
0.0119625160 0.0102168540 0 0
0.0128839220 0.0078978030 0 0
0.0139729540 0.0047620430 0 0
0.0151086180 0.0010916970 0 0
0.0161650390 -0.0027784430 0 0
0.0170247250 -0.0064931220 0 0
0.0175905190 -0.0097134150 0 0
0.0177960690 -0.0121532200 0 0
0.0176134230 -0.0136084260 0 0
0.0170560210 -0.0139737580 0 0
0.0161761950 -0.0132472770 0 0
0.0150577240 -0.0115257970 0 0
0.0138059010 -0.0089932700 0 0
0.0125384050 -0.0059018560 0 0
0.0113780510 -0.0025467220 0 0
0.0104451690 0.0007627320 0 0
0.0098473290 0.0037326300 0 0
0.0096672830 0.0061106130 0 0
0.0099524880 0.0077040380 0 0
0.0107090870 0.0083926460 0 0
0.0119008230 0.0081387570 0 0
0.0134514290 0.0069915820 0 0
0.0152499330 0.0050822330 0 0
0.0171602480 0.0026117960 0 0
0.0190354010 -0.0001655000 0 0
0.0207337980 -0.0029655240 0 0
0.0221341000 -0.0055027060 0 0
0.0231464570 -0.0075187830 0 0
0.0237190250 -0.0088082950 0 0
0.0238397680 -0.0092392720 0 0
0.0235347860 -0.0087673260 0 0
0.0228647450 -0.0074415240 0 0
0.0219202090 -0.0054013630 0 0
0.0208147590 -0.0028645050 0 0
0.0196743770 -0.0001052360 0 0
0.0186240150 0.0025752480 0 0
0.0177743250 0.0048835200 0 0
0.0172106860 0.0065676180 0 0
0.0169852600 0.0074437210 0 0
0.0171124110 0.0074133600 0 0
0.0175672910 0.0064716520 0 0
0.0182871180 0.0047065230 0 0
0.0191756490 0.0022888360 0 0
0.0201121560 -0.0005450140 0 0
0.0209650550 -0.0035161200 0 0
0.0216081060 -0.0063301220 0 0
0.0219356750 -0.0087056410 0 0
0.0218744020 -0.0104005630 0 0
0.0213906890 -0.0112338960 0 0
0.0204937020 -0.0111030510 0 0
0.0192331540 -0.0099966490 0 0
0.0176925110 -0.0080004170 0 0
0.0159798190 -0.0052919680 0 0
0.0142174660 -0.0021229880 0 0
0.0125309170 0.0012079160 0 0
0.0110368060 0.0043866740 0 0
0.0098319460 0.0071155860 0 0
0.0089849260 0.0091428930 0 0
0.0085307280 0.0102876430 0 0
0.0084678730 0.0104572780 0 0
0.0087581360 0.0096556540 0 0
0.0093295570 0.0079795380 0 0
0.0100831940 0.0056042430 0 0
0.0109033760 0.0027631840 0 0
0.0116701250 -0.0002736150 0 0
0.0122714880 -0.0032212240 0 0
0.0126137920 -0.0058032620 0 0
0.0126293000 -0.0077766750 0 0
0.0122819880 -0.0089550190 0 0
0.0115720270 -0.0092273740 0 0
0.0105383910 -0.0085702810 0 0
0.0092577340 -0.0070508950 0 0
0.0078375560 -0.0048216670 0 0
0.0064036160 -0.0021078000 0 0
0.0050837530 0.0008127670 0 0
0.0039910690 0.0036373830 0 0
0.0032095970 0.0060718940 0 0
0.0027855340 0.0078625270 0 0
0.0027255470 0.0088207210 0 0
0.0030009530 0.0088397910 0 0
0.0035548080 0.0079046280 0 0
0.0043095740 0.0060932760 0 0
0.0051745010 0.0035686170 0 0
0.0060526150 0.0005618170 0 0
0.0068479680 -0.0026492050 0 0
0.0074737010 -0.0057646140 0 0
0.0078596830 -0.0084900180 0 0
0.0079577240 -0.0105648710 0 0
0.0077440560 -0.0117895100 0 0
0.0072204180 -0.0120474400 0 0
0.0064148190 -0.0113189450 0 0
0.0053810520 -0.0096828910 0 0
0.0041947100 -0.0073067790 0 0
0.0029453360 -0.0044286270 0 0
0.0017273110 -0.0013339820 0 0
0.0006321930 0.0016708900 0 0
-0.0002571180 0.0042880870 0 0
-0.0008715530 0.0062559290 0 0
-0.0011617410 0.0073726320 0 0
-0.0011043880 0.0075143640 0 0
-0.0007073270 0.0066463090 0 0
-0.0000113468 0.0048257910 0 0
0.0009122910 0.0021979430 0 0
0.0019686790 -0.0010152940 0 0
0.0030489490 -0.0045335580 0 0
0.0040410950 -0.0080443340 0 0
0.0048410680 -0.0112345300 0 0
0.0053632960 -0.0138220580 0 0
0.0055496280 -0.0155830320 0 0
0.0053762020 -0.0163734010 0 0
0.0048573910 -0.0161443200 0 0
0.0040456960 -0.0149482130 0 0
0.0030274100 -0.0129326010 0 0
0.0019144610 -0.0103225810 0 0
0.0008326250 -0.0073953660 0 0
-0.0000930088 -0.0044502310 0 0
-0.0007527610 -0.0017772180 0 0
-0.0010635730 0.0003712380 0 0
-0.0009746360 0.0018022790 0 0
-0.0004692620 0.0023975150 0 0
0.0004333950 0.0021219390 0 0
0.0016762370 0.0010267630 0 0
0.0031649330 -0.0007552070 0 0
0.0047746420 -0.0030219050 0 0
0.0063633890 -0.0055210050 0 0
0.0077905960 -0.0079738530 0 0
0.0089373620 -0.0101019450 0 0
0.0097234850 -0.0116533420 0 0
0.0101171690 -0.0124270550 0 0
0.0101364770 -0.0122944580 0 0
0.0098434480 -0.0112157500 0 0
0.0093325600 -0.0092465600 0 0
0.0087162700 -0.0065317810 0 0
0.0081106390 -0.0032895410 0 0
0.0076228550 0.0002108050 0 0
0.0073417370 0.0036747690 0 0
0.0073320380 0.0068098560 0 0
0.0076326920 0.0093503870 0 0
0.0082577680 0.0110799800 0 0
0.0091979950 0.0118520460 0 0
0.0104217320 0.0116061110 0 0
0.0118764000 0.0103774300 0 0
0.0134917070 0.0082985140 0 0
0.0151847130 0.0055907900 0 0
0.0168656820 0.0025440980 0 0
0.0184440360 -0.0005164190 0 0
0.0198349920 -0.0032717830 0 0
0.0209677530 -0.0054498760 0 0
0.0217945580 -0.0068555070 0 0
0.0222985270 -0.0073854760 0 0
0.0224974650 -0.0070309550 0 0
0.0224413460 -0.0058715700 0 0
0.0222040860 -0.0040639640 0 0
0.0218726150 -0.0018260430 0 0
0.0215358030 0.0005823560 0 0
0.0212746330 0.0028825130 0 0
0.0211544980 0.0048036960 0 0
0.0212199050 0.0061109840 0 0
0.0214912220 0.0066295260 0 0
0.0219626380 0.0062622940 0 0
0.0226008700 0.0049995520 0 0
0.0233459300 0.0029195500 0 0
0.0241159530 0.0001820690 0 0
0.0248160660 -0.0029844390 0 0
0.0253489150 -0.0063035600 0 0
0.0256244700 -0.0094787780 0 0
0.0255682280 -0.0122239230 0 0
0.0251275680 -0.0142913840 0 0
0.0242759500 -0.0154952740 0 0
0.0230153290 -0.0157276720 0 0
0.0213778970 -0.0149672220 0 0
0.0194272610 -0.0132814370 0 0
0.0172573050 -0.0108237420 0 0
0.0149865420 -0.0078238280 0 0
0.0127472570 -0.0045694160 0 0
0.0106707990 -0.0013797320 0 0
0.0088713150 0.0014267880 0 0
0.0074304390 0.0035668060 0 0
0.0063863060 0.0048239210 0 0
0.0057305030 0.0050735510 0 0
0.0054137970 0.0042968240 0 0
0.0053572320 0.0025802430 0 0
0.0054638220 0.0001007550 0 0
0.0056287860 -0.0028990950 0 0
0.0057495140 -0.0061386030 0 0
0.0057361920 -0.0093245060 0 0
0.0055213650 -0.0121743630 0 0
0.0050661760 -0.0144385540 0 0
0.0043625180 -0.0159209120 0 0
0.0034312990 -0.0164967450 0 0
0.0023177330 -0.0161257820 0 0
0.0010854140 -0.0148578230 0 0
-0.0001895660 -0.0128299310 0 0
-0.0014245040 -0.0102546100 0 0
-0.0025362940 -0.0073992860 0 0
-0.0034479930 -0.0045595800 0 0
-0.0040960300 -0.0020295620 0 0
-0.0044373870 -0.0000717356 0 0
-0.0044543940 0.0011095780 0 0
-0.0041560360 0.0013875330 0 0
-0.0035773700 0.0007234860 0 0
-0.0027781790 -0.0008293790 0 0
-0.0018398550 -0.0031288140 0 0
-0.0008593430 -0.0059541490 0 0
0.0000599312 -0.0090257170 0 0
0.0008191330 -0.0120315600 0 0
0.0013352710 -0.0146582900 0 0
0.0015505730 -0.0166226260 0 0
0.0014383690 -0.0177012470 0 0
0.0010050630 -0.0177571410 0 0
0.0002892140 -0.0167575880 0 0
-0.0006415820 -0.0147778610 0 0
-0.0016968190 -0.0119900350 0 0
-0.0027727040 -0.0086412980 0 0
-0.0037631900 -0.0050273550 0 0
-0.0045697150 -0.0014656850 0 0
-0.0051091020 0.0017301550 0 0
-0.0053199510 0.0042769530 0 0
-0.0051673030 0.0059484700 0 0
-0.0046459300 0.0065977300 0 0
-0.0037827320 0.0061712320 0 0
-0.0026368510 0.0047149570 0 0
-0.0012955270 0.0023724120 0 0
0.0001343820 -0.0006271610 0 0
0.0015377350 -0.0039913860 0 0
0.0028036730 -0.0073958740 0 0
0.0038377510 -0.0105194050 0 0
0.0045720120 -0.0130779380 0 0
0.0049719350 -0.0148529190 0 0
0.0050393860 -0.0157111980 0 0
0.0048107790 -0.0156155020 0 0
0.0043506150 -0.0146248240 0 0
0.0037422640 -0.0128850150 0 0
0.0030786090 -0.0106118340 0 0
0.0024540080 -0.0080690440 0 0
0.0019574350 -0.0055426310 0 0
0.0016660610 -0.0033124900 0 0
0.0016392690 -0.0016242030 0 0
0.0019138230 -0.0006639350 0 0
0.0025007170 -0.0005396190 0 0
0.0033831820 -0.0012709120 0 0
0.0045151070 -0.0027884730 0 0
0.0058207050 -0.0049415510 0 0
0.0071978620 -0.0075127990 0 0
0.0085271460 -0.0102395530 0 0
0.0096859060 -0.0128400600 0 0
0.0105646010 -0.0150417830 0 0
0.0110815460 -0.0166083870 0 0
0.0111931930 -0.0173625610 0 0
0.0108992620 -0.0172030200 0 0
0.0102428390 -0.0161150030 0 0
0.0093049440 -0.0141735690 0 0
0.0081936250 -0.0115389110 0 0
0.0070299170 -0.0084433370 0 0
0.0059344070 -0.0051701330 0 0
0.0050168350 -0.0020257390 0 0
0.0043682250 0.0006913980 0 0
0.0040538120 0.0027213130 0 0
0.0041069990 0.0038688380 0 0
0.0045265210 0.0040227440 0 0
0.0052776130 0.0031659540 0 0
0.0062960600 0.0013762980 0 0
0.0074944230 -0.0011823560 0 0
0.0087701310 -0.0042773380 0 0
0.0100139750 -0.0076291860 0 0
0.0111188530 -0.0109354780 0 0
0.0119905160 -0.0138954040 0 0
0.0125596420 -0.0162340020 0 0
0.0127911230 -0.0177249520 0 0
0.0126877900 -0.0182120910 0 0
0.0122890060 -0.0176292370 0 0
0.0116655520 -0.0160151200 0 0
0.0109115770 -0.0135179520 0 0
0.0101337880 -0.0103845200 0 0
0.0094387140 -0.0069328260 0 0
0.0089205730 -0.0035139560 0 0
0.0086524750 -0.0004719100 0 0
0.0086821900 0.0018923210 0 0
0.0090315100 0.0033493870 0 0
0.0096964560 0.0037621160 0 0
0.0106467670 0.0030984340 0 0
0.0118262230 0.0014355660 0 0
0.0131557840 -0.0010476000 0 0
0.0145391610 -0.0040903050 0 0
0.0158695430 -0.0073781990 0 0
0.0170376420 -0.0105759980 0 0
0.0179420340 -0.0133611610 0 0
0.0185014340 -0.0154553670 0 0
0.0186662830 -0.0166509320 0 0
0.0184263470 -0.0168297610 0 0
0.0178126200 -0.0159734590 0 0
0.0168936050 -0.0141653860 0 0
0.0157671560 -0.0115854190 0 0
0.0145497940 -0.0084955060 0 0
0.0133649070 -0.0052141840 0 0
0.0123297120 -0.0020822590 0 0
0.0115415710 0.0005748960 0 0
0.0110665380 0.0024819050 0 0
0.0109329800 0.0034393390 0 0
0.0111308160 0.0033395420 0 0
0.0116154160 0.0021743780 0 0
0.0123147950 0.0000361684 0 0
0.0131382850 -0.0028891770 0 0
0.0139847370 -0.0063382460 0 0
0.0147492310 -0.0099956490 0 0
0.0153289100 -0.0135267910 0 0
0.0156299530 -0.0166134200 0 0
0.0155773720 -0.0189867000 0 0
0.0151265800 -0.0204535760 0 0
0.0142726920 -0.0209138580 0 0
0.0130537370 -0.0203666520 0 0
0.0115468650 -0.0189060370 0 0
0.0098589880 -0.0167085900 0 0
0.0081139070 -0.0140168260 0 0
0.0064382050 -0.0111192320 0 0
0.0049480870 -0.0083238610 0 0
0.0037385050 -0.0059255990 0 0
0.0028746890 -0.0041741450 0 0
0.0023853880 -0.0032504130 0 0
0.0022585450 -0.0032526510 0 0
0.0024422780 -0.0041897410 0 0
0.0028522250 -0.0059813280 0 0
0.0033824640 -0.0084659590 0 0
0.0039176200 -0.0114170730 0 0
0.0043458910 -0.0145651680 0 0
0.0045720620 -0.0176236450 0 0
0.0045281120 -0.0203159530 0 0
0.0041795030 -0.0224019800 0 0
0.0035271610 -0.0237005200 0 0
0.0026063310 -0.0241050810 0 0
0.0014828400 -0.0235924180 0 0
0.0002467180 -0.0222234890 0 0
-0.0009966320 -0.0201370050 0 0
-0.0021374800 -0.0175368490 0 0
-0.0030738890 -0.0146734480 0 0
-0.0037220030 -0.0118194000 0 0
-0.0040219640 -0.0092428800 0 0
-0.0039400420 -0.0071827530 0 0
-0.0034699880 -0.0058269620 0 0
-0.0026354600 -0.0052949470 0 0
-0.0014921210 -0.0056248740 0 0
-0.0001264140 -0.0067670110 0 0
0.0013503990 -0.0085862540 0 0
0.0028119280 -0.0108750560 0 0
0.0041283350 -0.0133740880 0 0
0.0051789660 -0.0157981760 0 0
0.0058654510 -0.0178662760 0 0
0.0061240610 -0.0193320080 0 0
0.0059342930 -0.0200105480 0 0
0.0053206950 -0.0197997780 0 0
0.0043482880 -0.0186937910 0 0
0.0031144240 -0.0167862490 0 0
0.0017386040 -0.0142621540 0 0
0.0003502120 -0.0113783910 0 0
-0.0009247510 -0.0084351640 0 0
-0.0019757600 -0.0057423800 0 0
-0.0027172850 -0.0035857960 0 0
-0.0030953970 -0.0021960240 0 0
-0.0030915340 -0.0017218980 0 0
-0.0027239280 -0.0022110880 0 0
-0.0020469020 -0.0036031040 0 0
-0.0011470480 -0.0057389890 0 0
-0.0001347790 -0.0083869610 0 0
0.0008684560 -0.0112761530 0 0
0.0017446450 -0.0141281000 0 0
0.0023923980 -0.0166810800 0 0
0.0027369980 -0.0187088500 0 0
0.0027365440 -0.0200363550 0 0
0.0023836430 -0.0205526960 0 0
0.0017030840 -0.0202199160 0 0
0.0007475430 -0.0190759680 0 0
-0.0004069280 -0.0172310010 0 0
-0.0016660880 -0.0148575870 0 0
-0.0029246980 -0.0121761450 0 0
-0.0040754690 -0.0094360120 0 0
-0.0050182400 -0.0068924520 0 0
-0.0056682700 -0.0047816190 0 0
-0.0059633750 -0.0032972870 0 0
-0.0058695590 -0.0025732170 0 0
-0.0053846580 -0.0026730690 0 0
-0.0045398740 -0.0035872730 0 0
-0.0033991460 -0.0052349200 0 0
-0.0020558270 -0.0074692310 0 0
-0.0006257000 -0.0100865600 0 0
0.0007644480 -0.0128401990 0 0
0.0019920490 -0.0154607450 0 0
0.0029544370 -0.0176825110 0 0
0.0035807640 -0.0192717410 0 0
0.0038383750 -0.0200515380 0 0
0.0037345420 -0.0199206270 0 0
0.0033140090 -0.0188643770 0 0
0.0026517710 -0.0169568210 0 0
0.0018422030 -0.0143536730 0 0
0.0009876960 -0.0112775720 0 0
0.0001888180 -0.0079969920 0 0
-0.0004641930 -0.0048006620 0 0
-0.0008988580 -0.0019702950 0 0
-0.0010661560 0.0002453550 0 0
-0.0009440090 0.0016531800 0 0
-0.0005383710 0.0021340090 0 0
0.0001181680 0.0016552190 0 0
0.0009698940 0.0002765150 0 0
0.0019426740 -0.0018518580 0 0
0.0029490730 -0.0044997770 0 0
0.0038942140 -0.0073785480 0 0
0.0046836790 -0.0101722610 0 0
0.0052340660 -0.0125744370 0 0
0.0054843090 -0.0143230370 0 0
0.0054044120 -0.0152288620 0 0
0.0049995240 -0.0151948050 0 0
0.0043093060 -0.0142238930 0 0
0.0034032800 -0.0124156880 0 0
0.0023733020 -0.0099541900 0 0
0.0013248690 -0.0070899520 0 0
0.0003686820 -0.0041158070 0 0
-0.0003875490 -0.0013371470 0 0
-0.0008482350 0.0009580920 0 0
-0.0009401640 0.0025266540 0 0
-0.0006217770 0.0031952270 0 0
0.0001110720 0.0028815440 0 0
0.0012236960 0.0016045210 0 0
0.0026449720 -0.0005197670 0 0
0.0042730060 -0.0032918860 0 0
0.0059839530 -0.0064472500 0 0
0.0076442250 -0.0096793300 0 0
0.0091259480 -0.0126703080 0 0
0.0103232650 -0.0151256940 0 0
0.0111649860 -0.0168055060 0 0
0.0116203150 -0.0175479770 0 0
0.0116984960 -0.0172850520 0 0
0.0114450400 -0.0160483210 0 0
0.0109356260 -0.0139646140 0 0
0.0102678410 -0.0112429520 0 0
0.0095513520 -0.0081544780 0 0
0.0088967790 -0.0050054700 0 0
0.0084033440 -0.0021051010 0 0
0.0081471250 0.0002668850 0 0
0.0081731660 0.0018869930 0 0
0.0084928860 0.0026067900 0 0
0.0090854220 0.0023635000 0 0
0.0099006420 0.0011827210 0 0
0.0108629910 -0.0008255750 0 0
0.0118767710 -0.0034765990 0 0
0.0128337500 -0.0065260680 0 0
0.0136229880 -0.0096917550 0 0
0.0141416030 -0.0126800510 0 0
0.0143052930 -0.0152142850 0 0
0.0140576380 -0.0170610580 0 0
0.0133770770 -0.0180523500 0 0
0.0122805960 -0.0181018610 0 0
0.0108230040 -0.0172133020 0 0
0.0090910310 -0.0154793500 0 0
0.0071935750 -0.0130722380 0 0
0.0052510030 -0.0102272400 0 0
0.0033851040 -0.0072197990 0 0
0.0017094140 -0.0043385640 0 0
0.0003196030 -0.0018582910 0 0
-0.0007151050 -0.0000164220 0 0
-0.0013581500 0.0010054990 0 0
-0.0016088890 0.0010973880 0 0
-0.0015027300 0.0002336210 0 0
-0.0011083390 -0.0015198880 0 0
-0.0005224880 -0.0040079820 0 0
0.0001374950 -0.0069987030 0 0
0.0007445430 -0.0102058930 0 0
0.0011760180 -0.0133207250 0 0
0.0013292540 -0.0160467380 0 0
0.0011349330 -0.0181305930 0 0
0.0005655300 -0.0193839060 0 0
-0.0003620620 -0.0196967180 0 0
-0.0015900540 -0.0190458260 0 0
-0.0030289190 -0.0174989150 0 0
-0.0045693110 -0.0152115970 0 0
-0.0060934930 -0.0124146880 0 0
-0.0074857240 -0.0093924030 0 0
-0.0086429070 -0.0064535750 0 0
-0.0094854590 -0.0038986290 0 0
-0.0099663530 -0.0019875240 0 0
-0.0100761450 -0.0009143200 0 0
-0.0098430450 -0.0007911820 0 0
-0.0093281140 -0.0016414410 0 0
-0.0086162470 -0.0033992810 0 0
-0.0078043720 -0.0059142250 0 0
-0.0069897430 -0.0089615290 0 0
-0.0062610820 -0.0122601780 0 0
-0.0056927010 -0.0154981980 0 0
-0.0053398320 -0.0183636910 0 0
-0.0052349510 -0.0205789820 0 0
-0.0053862970 -0.0219325050 0 0
-0.0057784830 -0.0223021760 0 0
-0.0063740370 -0.0216672070 0 0
-0.0071158970 -0.0201084820 0 0
-0.0079317810 -0.0177984760 0 0
-0.0087401690 -0.0149828230 0 0
-0.0094566310 -0.0119560000 0 0
-0.0099999500 -0.0090319700 0 0
-0.0102984530 -0.0065111480 0 0
-0.0102967030 -0.0046477120 0 0
-0.0099626070 -0.0036221820 0 0
-0.0092944030 -0.0035234860 0 0
-0.0083249860 -0.0043433580 0 0
-0.0071201330 -0.0059825390 0 0
-0.0057701000 -0.0082651680 0 0
-0.0043777140 -0.0109577400 0 0
-0.0030468560 -0.0137912480 0 0
-0.0018731590 -0.0164862810 0 0
-0.0009366880 -0.0187796000 0 0
-0.0002957200 -0.0204491710 0 0
0.0000184808 -0.0213347260 0 0
0.0000052037 -0.0213524990 0 0
-0.0003044650 -0.0205038230 0 0
-0.0008490850 -0.0188762110 0 0
-0.0015414340 -0.0166352780 0 0
-0.0022762730 -0.0140084300 0 0
-0.0029405290 -0.0112626720 0 0
-0.0034250140 -0.0086784740 0 0
-0.0036366980 -0.0065223070 0 0
-0.0035097410 -0.0050215460 0 0
-0.0030129910 -0.0043436050 0 0
-0.0021525190 -0.0045785460 0 0
-0.0009691270 -0.0057264220 0 0
0.0004675550 -0.0076941700 0 0
0.0020660180 -0.0103045670 0 0
0.0037200390 -0.0133144060 0 0
0.0053170630 -0.0164380430 0 0
0.0067486610 -0.0193747110 0 0
0.0079221700 -0.0218380760 0 0
0.0087713920 -0.0235847120 0 0
0.0092642200 -0.0244379020 0 0
0.0094056130 -0.0243042940 0 0
0.0092354690 -0.0231823220 0 0
0.0088224120 -0.0211623290 0 0
0.0082546450 -0.0184183940 0 0
0.0076289350 -0.0151918350 0 0
0.0070398910 -0.0117679000 0 0
0.0065718910 -0.0084492100 0 0
0.0062938810 -0.0055285490 0 0
0.0062555990 -0.0032616990 0 0
0.0064842460 -0.0018424600 0 0
0.0069816270 -0.0013832420 0 0
0.0077228330 -0.0019031280 0 0
0.0086579090 -0.0033242320 0 0
0.0097169600 -0.0054771520 0 0
0.0108172610 -0.0081165440 0 0
0.0118698000 -0.0109468470 0 0
0.0127845850 -0.0136540600 0 0
0.0134767790 -0.0159368760 0 0
0.0138753360 -0.0175344390 0 0
0.0139332110 -0.0182520890 0 0
0.0136367350 -0.0179834990 0 0
0.0130113360 -0.0167235710 0 0
0.0121211170 -0.0145683190 0 0
0.0110617130 -0.0117030320 0 0
0.0099484600 -0.0083833860 0 0
0.0089031010 -0.0049137350 0 0
0.0080415580 -0.0016228000 0 0
0.0074629210 0.0011648920 0 0
0.0072383930 0.0031605510 0 0
0.0074005780 0.0041425310 0 0
0.0079361130 0.0039840840 0 0
0.0087850070 0.0026711080 0 0
0.0098484270 0.0003037630 0 0
0.0110034690 -0.0029175660 0 0
0.0121201700 -0.0067157610 0 0
0.0130764560 -0.0107647900 0 0
0.0137700100 -0.0147204350 0 0
0.0141276350 -0.0182530210 0 0
0.0141116270 -0.0210788480 0 0
0.0137220730 -0.0229863800 0 0
0.0129953980 -0.0238544820 0 0
0.0120004890 -0.0236611920 0 0
0.0108326910 -0.0224830570 0 0
0.0096051670 -0.0204862150 0 0
0.0084378000 -0.0179105910 0 0
0.0074446590 -0.0150482640 0 0
0.0067215750 -0.0122162830 0 0
0.0063357140 -0.0097244790 0 0
0.0063188220 -0.0078417670 0 0
0.0066646350 -0.0067669510 0 0
0.0073302850 -0.0066093670 0 0
0.0082419380 -0.0073818110 0 0
0.0093039690 -0.0090042760 0 0
0.0104091550 -0.0113148890 0 0
0.0114481920 -0.0140860150 0 0
0.0123188310 -0.0170450960 0 0
0.0129345030 -0.0198990630 0 0
0.0132311820 -0.0223606380 0 0
0.0131718210 -0.0241757040 0 0
0.0127487050 -0.0251501120 0 0
0.0119838530 -0.0251721020 0 0
0.0109267590 -0.0242263410 0 0
0.0096489240 -0.0223978300 0 0
0.0082358440 -0.0198654820 0 0
0.0067784210 -0.0168848400 0 0
0.0053657010 -0.0137598830 0 0
0.0040793210 -0.0108075560 0 0
0.0029883870 -0.0083228280 0 0
0.0021437510 -0.0065510540 0 0
0.0015721590 -0.0056681290 0 0
0.0012714240 -0.0057650980 0 0
0.0012080380 -0.0068375960 0 0
0.0013189250 -0.0087846590 0 0
0.0015180150 -0.0114188730 0 0
0.0017064780 -0.0144852050 0 0
0.0017846430 -0.0176854080 0 0
0.0016639630 -0.0207068230 0 0
0.0012775150 -0.0232537630 0 0
0.0005870280 -0.0250774340 0 0
-0.0004149560 -0.0260003050 0 0
-0.0017067000 -0.0259329230 0 0
-0.0032399780 -0.0248823040 0 0
-0.0049423680 -0.0229511940 0 0
-0.0067200100 -0.0203279530 0 0
-0.0084625710 -0.0172677860 0 0
-0.0100512630 -0.0140676160 0 0
-0.0113694310 -0.0110376150 0 0
-0.0123143130 -0.0084714420 0 0
-0.0128084710 -0.0066168980 0 0
-0.0128096660 -0.0056508150 0 0
-0.0123177130 -0.0056621260 0 0
-0.0113765420 -0.0066440990 0 0
-0.0100704540 -0.0084954340 0 0
-0.0085147800 -0.0110284290 0 0
-0.0068419440 -0.0139805550 0 0
-0.0051853670 -0.0170324220 0 0
-0.0036654830 -0.0198409360 0 0
-0.0023803630 -0.0220843320 0 0
-0.0013990610 -0.0235026700 0 0
-0.0007553660 -0.0239247510 0 0
-0.0004439830 -0.0232844560 0 0
-0.0004230310 -0.0216278700 0 0
-0.0006227200 -0.0191076870 0 0
-0.0009560210 -0.0159645710 0 0
-0.0013284760 -0.0124999490 0 0
-0.0016472670 -0.0090448350 0 0
-0.0018297640 -0.0059277210 0 0
-0.0018106910 -0.0034440800 0 0
-0.0015473470 -0.0018292200 0 0
-0.0010233000 -0.0012359020 0 0
-0.0002507150 -0.0017194990 0 0
0.0007298850 -0.0032334990 0 0
0.0018536570 -0.0056359850 0 0
0.0030386020 -0.0087053950 0 0
0.0041939390 -0.0121624460 0 0
0.0052280250 -0.0156956810 0 0
0.0060551450 -0.0189897470 0 0
0.0066014310 -0.0217545320 0 0
0.0068111170 -0.0237509470 0 0
0.0066538820 -0.0248100930 0 0
0.0061323650 -0.0248458680 0 0
0.0052873020 -0.0238617470 0 0
0.0041974490 -0.0219509350 0 0
0.0029727150 -0.0192891380 0 0
0.0017416770 -0.0161205430 0 0
0.0006368250 -0.0127379980 0 0
-0.0002200450 -0.0094585620 0 0
-0.0007318650 -0.0065957020 0 0
-0.0008386160 -0.0044290910 0 0
-0.0005247350 -0.0031741540 0 0
0.0001809250 -0.0029559960 0 0
0.0012119910 -0.0037931190 0 0
0.0024754220 -0.0055940380 0 0
0.0038629420 -0.0081666660 0 0
0.0052608050 -0.0112392030 0 0
0.0065578570 -0.0144903740 0 0
0.0076529720 -0.0175845080 0 0
0.0084616760 -0.0202063040 0 0
0.0089213230 -0.0220918510 0 0
0.0089958950 -0.0230537560 0 0
0.0086815180 -0.0229986600 0 0
0.0080107510 -0.0219354230 0 0
0.0070521590 -0.0199719330 0 0
0.0059037340 -0.0173002490 0 0
0.0046817120 -0.0141735740 0 0
0.0035080250 -0.0108801790 0 0
0.0024989290 -0.0077172540 0 0
0.0017551350 -0.0049653880 0 0
0.0013528070 -0.0028648750 0 0
0.0013359310 -0.0015954200 0 0
0.0017113860 -0.0012597090 0 0
0.0024476710 -0.0018721540 0 0
0.0034770180 -0.0033559490 0 0
0.0047000950 -0.0055497200 0 0
0.0059937040 -0.0082219910 0 0
0.0072231430 -0.0110920170 0 0
0.0082588180 -0.0138571750 0 0
0.0089930010 -0.0162251610 0 0
0.0093523370 -0.0179458890 0 0
0.0093047330 -0.0188380610 0 0
0.0088610690 -0.0188077340 0 0
0.0080720390 -0.0178580480 0 0
0.0070210220 -0.0160897820 0 0
0.0058146710 -0.0136917040 0 0
0.0045724490 -0.0109195560 0 0
0.0034157430 -0.0080652860 0 0
0.0024570620 -0.0054222790 0 0
0.0017896660 -0.0032542110 0 0
0.0014780020 -0.0017727250 0 0
0.0015499610 -0.0011237410 0 0
0.0019925480 -0.0013784370 0 0
0.0027522270 -0.0025264030 0 0
0.0037404670 -0.0044726740 0 0
0.0048444880 -0.0070423530 0 0
0.0059415850 -0.0099951050 0 0
0.0069134010 -0.0130487690 0 0
0.0076572530 -0.0159085690 0 0
0.0080943730 -0.0182977330 0 0
0.0081758550 -0.0199860950 0 0
0.0078863440 -0.0208135790 0 0
0.0072453410 -0.0207059330 0 0
0.0063063570 -0.0196810680 0 0
0.0051536190 -0.0178455640 0 0
0.0038951340 -0.0153829890 0 0
0.0026513650 -0.0125369680 0 0
0.0015406700 -0.0095899500 0 0
0.0006643800 -0.0068372390 0 0
0.0000946211 -0.0045583540 0 0
-0.0001326520 -0.0029900140 0 0
-0.0000183143 -0.0023035750 0 0
0.0004043870 -0.0025873690 0 0
0.0010762310 -0.0038353180 0 0
0.0019178000 -0.0059445790 0 0
0.0028348510 -0.0087228680 0 0
0.0037247280 -0.0119043130 0 0
0.0044840340 -0.0151735560 0 0
0.0050164620 -0.0181979530 0 0
0.0052401620 -0.0206649430 0 0
0.0050954890 -0.0223184180 0 0
0.0045536410 -0.0229876070 0 0
0.0036238530 -0.0226051450 0 0
0.0023553890 -0.0212142180 0 0
0.0008329810 -0.0189644570 0 0
-0.0008328250 -0.0160946740 0 0
-0.0025180210 -0.0129031920 0 0
-0.0040977620 -0.0097120440 0 0
-0.0054578020 -0.0068321180 0 0
-0.0065046250 -0.0045325480 0 0
-0.0071738880 -0.0030164120 0 0
-0.0074362860 -0.0024054770 0 0
-0.0073001650 -0.0027348670 0 0
-0.0068104800 -0.0039561220 0 0
-0.0060441000 -0.0059462320 0 0
-0.0051018590 -0.0085188050 0 0
-0.0040976060 -0.0114351570 0 0
-0.0031452310 -0.0144189540 0 0
-0.0023460370 -0.0171791220 0 0
-0.0017785760 -0.0194384380 0 0
-0.0014918420 -0.0209608300 0 0
-0.0015025080 -0.0215748480 0 0
-0.0017960680 -0.0211942710 0 0
-0.0023303610 -0.0198333910 0 0
-0.0030403660 -0.0176110280 0 0
-0.0038441900 -0.0147395880 0 0
-0.0046496000 -0.0115003130 0 0
-0.0053606590 -0.0082097970 0 0
-0.0058859500 -0.0051845840 0 0
-0.0061492130 -0.0027094780 0 0
-0.0060998040 -0.0010130560 0 0
-0.0057191710 -0.0002511880 0 0
-0.0050223540 -0.0004966100 0 0
-0.0040560800 -0.0017329040 0 0
-0.0028947240 -0.0038535160 0 0
-0.0016339270 -0.0066666380 0 0
-0.0003811220 -0.0099068860 0 0
0.0007562620 -0.0132568200 0 0
0.0016818920 -0.0163803940 0 0
0.0023186230 -0.0189645140 0 0
0.0026150350 -0.0207590580 0 0
0.0025524860 -0.0216053120 0 0
0.0021508670 -0.0214482150 0 0
0.0014690210 -0.0203340930 0 0
0.0005982830 -0.0183985700 0 0
-0.0003491830 -0.0158493140 0 0
-0.0012545190 -0.0129461510 0 0
-0.0020059790 -0.0099783260 0 0
-0.0025104410 -0.0072387850 0 0
-0.0027022520 -0.0049977080 0 0
-0.0025492610 -0.0034778820 0 0
-0.0020552210 -0.0028331390 0 0
-0.0012585700 -0.0031316850 0 0
-0.0002285410 -0.0043478320 0 0
0.0009413700 -0.0063647880 0 0
0.0021430620 -0.0089880730 0 0
0.0032656330 -0.0119667410 0 0
0.0042074890 -0.0150185620 0 0
0.0048870470 -0.0178561890 0 0
0.0052501780 -0.0202131680 0 0
0.0052730980 -0.0218688200 0 0
0.0049611880 -0.0226697560 0 0
0.0043455160 -0.0225452420 0 0
0.0034786200 -0.0215137320 0 0
0.0024301850 -0.0196796990 0 0
0.0012828790 -0.0172233250 0 0
0.0001280910 -0.0143858340 0 0
-0.0009395960 -0.0114500390 0 0
-0.0018301230 -0.0087149840 0 0
-0.0024669540 -0.0064661100 0 0
-0.0027952610 -0.0049442460 0 0
-0.0027876210 -0.0043177430 0 0
-0.0024460880 -0.0046628600 0 0
-0.0017999980 -0.0059562070 0 0
-0.0009008140 -0.0080792300 0 0
0.0001825500 -0.0108318580 0 0
0.0013659430 -0.0139527550 0 0
0.0025520790 -0.0171449170 0 0
0.0036366370 -0.0201050280 0 0
0.0045196910 -0.0225530880 0 0
0.0051200110 -0.0242584150 0 0
0.0053882560 -0.0250603780 0 0
0.0053157560 -0.0248833950 0 0
0.0049368970 -0.0237440460 0 0
0.0043245310 -0.0217485890 0 0
0.0035797820 -0.0190821280 0 0
0.0028191960 -0.0159912190 0 0
0.0021613010 -0.0127604490 0 0
0.0017130040 -0.0096847920 0 0
0.0015567710 -0.0070422700 0 0
0.0017410670 -0.0050705660 0 0
0.0022756860 -0.0039467260 0 0
0.0031314850 -0.0037688670 0 0
0.0042438270 -0.0045434660 0 0
0.0055193410 -0.0061829140 0 0
0.0068449810 -0.0085140160 0 0
0.0080985030 -0.0112954720 0 0
0.0091606550 -0.0142420810 0 0
0.0099289780 -0.0170526100 0 0
0.0103308350 -0.0194381220 0 0
0.0103319780 -0.0211496700 0 0
0.0099389030 -0.0220051440 0 0
0.0091963610 -0.0219116420 0 0
0.0081820920 -0.0208770940 0 0
0.0069991230 -0.0190077610 0 0
0.0057651120 -0.0164934460 0 0
0.0045995180 -0.0135847760 0 0
0.0036110370 -0.0105665240 0 0
0.0028875640 -0.0077289720 0 0
0.0024897660 -0.0053383620 0 0
0.0024481350 -0.0036099330 0 0
0.0027622280 -0.0026888520 0 0
0.0034009640 -0.0026405520 0 0
0.0043048450 -0.0034466910 0 0
0.0053914380 -0.0050048410 0 0
0.0065632910 -0.0071359940 0 0
0.0077164970 -0.0096025420 0 0
0.0087496000 -0.0121330940 0 0
0.0095729070 -0.0144498020 0 0
0.0101170590 -0.0162961260 0 0
0.0103394070 -0.0174620750 0 0
0.0102275990 -0.0178035770 0 0
0.0098005310 -0.0172557950 0 0
0.0091070360 -0.0158418980 0 0
0.0082221180 -0.0136760140 0 0
0.0072402680 -0.0109564220 0 0
0.0062660670 -0.0079471980 0 0
0.0054027780 -0.0049507020 0 0
0.0047397440 -0.0022752790 0 0
0.0043407550 -0.0002028970 0 0
0.0042370060 0.0010393940 0 0
0.0044267690 0.0013022890 0 0
0.0048795220 0.0005300280 0 0
0.0055405060 -0.0012323650 0 0
0.0063344550 -0.0038416450 0 0
0.0071702530 -0.0070694500 0 0
0.0079477020 -0.0106250580 0 0
0.0085657940 -0.0141849090 0 0
0.0089317250 -0.0174258830 0 0
0.0089703500 -0.0200587250 0 0
0.0086334310 -0.0218560440 0 0
0.0079074310 -0.0226710870 0 0
0.0068179770 -0.0224476770 0 0
0.0054288460 -0.0212224770 0 0
0.0038344960 -0.0191198460 0 0
0.0021478340 -0.0163406140 0 0
0.0004870790 -0.0131464270 0 0
-0.0010349430 -0.0098394090 0 0
-0.0023187880 -0.0067362890 0 0
-0.0032855790 -0.0041386000 0 0
-0.0038838590 -0.0023027000 0 0
-0.0040938680 -0.0014134110 0 0
-0.0039272780 -0.0015642430 0 0
-0.0034234780 -0.0027462170 0 0
-0.0026451110 -0.0048464650 0 0
-0.0016742250 -0.0076575740 0 0
-0.0006083710 -0.0108983030 0 0
0.0004453030 -0.0142438450 0 0
0.0013799010 -0.0173606530 0 0
0.0021020030 -0.0199404550 0 0
0.0025442640 -0.0217304060 0 0
0.0026732730 -0.0225576890 0 0
0.0024917250 -0.0223462130 0 0
0.0020362910 -0.0211223760 0 0
0.0013723740 -0.0190085290 0 0
0.0005863650 -0.0162067620 0 0
-0.0002238600 -0.0129782600 0 0
-0.0009593090 -0.0096211980 0 0
-0.0015303340 -0.0064463960 0 0
-0.0018661670 -0.0037505010 0 0
-0.0019222300 -0.0017888660 0 0
-0.0016841840 -0.0007502520 0 0
-0.0011686750 -0.0007354780 0 0
-0.0004219480 -0.0017442980 0 0
0.0004829220 -0.0036741710 0 0
0.0014512250 -0.0063305630 0 0
0.0023754010 -0.0094463030 0 0
0.0031466450 -0.0127082940 0 0
0.0036673950 -0.0157895220 0 0
0.0038631570 -0.0183824840 0 0
0.0036921830 -0.0202296950 0 0
0.0031508480 -0.0211486300 0 0
0.0022733640 -0.0210497250 0 0
0.0011265750 -0.0199460050 0 0
-0.0001983040 -0.0179533860 0 0
-0.0015952900 -0.0152813460 0 0
-0.0029531110 -0.0122132050 0 0
-0.0041635650 -0.0090759530 0 0
-0.0051287900 -0.0062029440 0 0
-0.0057680970 -0.0038966770 0 0
-0.0060245760 -0.0023986680 0 0
-0.0058710890 -0.0018687760 0 0
-0.0053149920 -0.0023723420 0 0
-0.0044000320 -0.0038740100 0 0
-0.0032034700 -0.0062397340 0 0
-0.0018283400 -0.0092492300 0 0
-0.0003928800 -0.0126186550 0 0
0.0009808900 -0.0160303110 0 0
0.0021789420 -0.0191657460 0 0
0.0031071470 -0.0217392780 0 0
0.0037017500 -0.0235273260 0 0
0.0039359500 -0.0243879380 0 0
0.0038216580 -0.0242686630 0 0
0.0034072210 -0.0232059160 0 0
0.0027716630 -0.0213196110 0 0
0.0020152200 -0.0188035170 0 0
0.0012469010 -0.0159090350 0 0
0.0005716690 -0.0129218310 0 0
0.0000801671 -0.0101355500 0 0
-0.0001575990 -0.0078269340 0 0
-0.0000955660 -0.0062316830 0 0
0.0002858190 -0.0055198900 0 0
0.0009769710 -0.0057744060 0 0
0.0019386240 -0.0069779220 0 0
0.0031058310 -0.0090136270 0 0
0.0043959330 -0.0116799390 0 0
0.0057174160 -0.0147139040 0 0
0.0069774170 -0.0178177190 0 0
0.0080883610 -0.0206874470 0 0
0.0089749480 -0.0230431740 0 0
0.0095813390 -0.0246573380 0 0
0.0098775380 -0.0253781430 0 0
0.0098641630 -0.0251452840 0 0
0.0095743950 -0.0239949180 0 0
0.0090717390 -0.0220527900 0 0
0.0084433230 -0.0195177670 0 0
0.0077899810 -0.0166401070 0 0
0.0072145270 -0.0136974370 0 0
0.0068095490 -0.0109693190 0 0
0.0066467230 -0.0087127440 0 0
0.0067702180 -0.0071412590 0 0
0.0071954230 -0.0064071820 0 0
0.0079116640 -0.0065860940 0 0
0.0088859420 -0.0076665990 0 0
0.0100654790 -0.0095494040 0 0
0.0113795290 -0.0120564810 0 0
0.0127429490 -0.0149481990 0 0
0.0140630230 -0.0179456920 0 0
0.0152486290 -0.0207559630 0 0
0.0162197840 -0.0230981720 0 0
0.0169159080 -0.0247303020 0 0
0.0173013570 -0.0254739990 0 0
0.0173673080 -0.0252342510 0 0
0.0171303460 -0.0240118070 0 0
0.0166294490 -0.0219064520 0 0
0.0159230110 -0.0191085910 0 0
0.0150859160 -0.0158792170 0 0
0.0142047910 -0.0125225960 0 0
0.0133695240 -0.0093565490 0 0
0.0126617810 -0.0066824360 0 0
0.0121440170 -0.0047549000 0 0
0.0118520050 -0.0037527340 0 0
0.0117912440 -0.0037563340 0 0
0.0119362290 -0.0047388280 0 0
0.0122324120 -0.0065739100 0 0
0.0126016050 -0.0090566780 0 0
0.0129511360 -0.0119298970 0 0
0.0131856290 -0.0149096380 0 0
0.0132190220 -0.0177091960 0 0
0.0129848450 -0.0200628500 0 0
0.0124440320 -0.0217495110 0 0
0.0115900070 -0.0226143080 0 0
0.0104507660 -0.0225855000 0 0
0.0090877050 -0.0216830500 0 0
0.0075909330 -0.0200152850 0 0
0.0060708350 -0.0177640730 0 0
0.0046464070 -0.0151632980 0 0
0.0034317820 -0.0124754500 0 0
0.0025225900 -0.0099688810 0 0
0.0019841130 -0.0078965230 0 0
0.0018436480 -0.0064756580 0 0
0.0020888550 -0.0058683820 0 0
0.0026721350 -0.0061635650 0 0
0.0035194900 -0.0073622670 0 0
0.0045411360 -0.0093704750 0 0
0.0056409510 -0.0120038820 0 0
0.0067233170 -0.0150063740 0 0
0.0076982370 -0.0180793310 0 0
0.0084865570 -0.0209158030 0 0
0.0090259910 -0.0232332350 0 0
0.0092772700 -0.0248007500 0 0
0.0092294550 -0.0254602330 0 0
0.0089036660 -0.0251417930 0 0
0.0083534980 -0.0238730800 0 0
0.0076602290 -0.0217802570 0 0
0.0069232700 -0.0190780500 0 0
0.0062483570 -0.0160480010 0 0
0.0057357710 -0.0130074000 0 0
0.0054700060 -0.0102745630 0 0
0.0055114730 -0.0081363540 0 0
0.0058901630 -0.0068208190 0 0
0.0066016140 -0.0064748050 0 0
0.0076061520 -0.0071471890 0 0
0.0088322060 -0.0087819460 0 0
0.0101840180 -0.0112242650 0 0
0.0115532010 -0.0142372090 0 0
0.0128317320 -0.0175253350 0 0
0.0139227270 -0.0207637650 0 0
0.0147472400 -0.0236291550 0 0
0.0152487510 -0.0258286520 0 0
0.0153975470 -0.0271274160 0 0
0.0151946330 -0.0273752610 0 0
0.0146730160 -0.0265267180 0 0
0.0138951150 -0.0246472320 0 0
0.0129468690 -0.0219048550 0 0
0.0119301270 -0.0185515890 0 0
0.0109544050 -0.0148973390 0 0
0.0101275860 -0.0112790420 0 0
0.0095454860 -0.0080285520 0 0
0.0092825770 -0.0054420700 0 0
0.0093861510 -0.0037530640 0 0
0.0098730510 -0.0031106770 0 0
0.0107265410 -0.0035655710 0 0
0.0118935240 -0.0050648090 0 0
0.0132856050 -0.0074568330 0 0
0.0147874010 -0.0105063190 0 0
0.0162715570 -0.0139169320 0 0
0.0176157310 -0.0173592960 0 0
0.0187163380 -0.0205017770 0 0
0.0194972560 -0.0230420480 0 0
0.0199149510 -0.0247369920 0 0
0.0199613870 -0.0254273750 0 0
0.0196644130 -0.0250536950 0 0
0.0190842230 -0.0236615840 0 0
0.0183057150 -0.0213967530 0 0
0.0174289330 -0.0184898950 0 0
0.0165596880 -0.0152329930 0 0
0.0158000230 -0.0119503570 0 0
0.0152380930 -0.0089681280 0 0
0.0149393900 -0.0065843840 0 0
0.0149413110 -0.0050412590 0 0
0.0152509790 -0.0045020450 0 0
0.0158450490 -0.0050360740 0 0
0.0166709050 -0.0066114430 0 0
0.0176496360 -0.0090953090 0 0
0.0186811190 -0.0122640330 0 0
0.0196517770 -0.0158247330 0 0
0.0204463950 -0.0194455240 0 0
0.0209633560 -0.0227894230 0 0
0.0211289600 -0.0255476630 0 0
0.0209064310 -0.0274684400 0 0
0.0202987190 -0.0283781780 0 0
0.0193466260 -0.0281955440 0 0
0.0181234700 -0.0269394460 0 0
0.0167266850 -0.0247297100 0 0
0.0152672960 -0.0217775180 0 0
0.0138589820 -0.0183647690 0 0
0.0126082380 -0.0148147210 0 0
0.0116061390 -0.0114588750 0 0
0.0109213690 -0.0086053670 0 0
0.0105943040 -0.0065113810 0 0
0.0106329780 -0.0053599060 0 0
0.0110118060 -0.0052418870 0 0
0.0116731650 -0.0061458110 0 0
0.0125316320 -0.0079567150 0 0
0.0134805870 -0.0104664180 0 0
0.0144009960 -0.0133955580 0 0
0.0151726210 -0.0164244530 0 0
0.0156875980 -0.0192274240 0 0
0.0158647510 -0.0215062070 0 0
0.0156614720 -0.0230194910 0 0
0.0150797980 -0.0236056750 0 0
0.0141649300 -0.0231969720 0 0
0.0129971580 -0.0218241970 0 0
0.0116795850 -0.0196117730 0 0
0.0103240720 -0.0167639590 0 0
0.0090379730 -0.0135452960 0 0
0.0079139040 -0.0102570530 0 0
0.0070230900 -0.0072099470 0 0
0.0064115230 -0.0046952560 0 0
0.0060983820 -0.0029575080 0 0
0.0060763120 -0.0021698700 0 0
0.0063132650 -0.0024134670 0 0
0.0067563540 -0.0036652220 0 0
0.0073376640 -0.0057989120 0 0
0.0079801790 -0.0085993360 0 0
0.0086022900 -0.0117854170 0 0
0.0091224760 -0.0150391530 0 0
0.0094666680 -0.0180393570 0 0
0.0095772080 -0.0204971510 0 0
0.0094196690 -0.0221869170 0 0
0.0089854880 -0.0229667010 0 0
0.0082917310 -0.0227856300 0 0
0.0073802140 -0.0216803810 0 0
0.0063162710 -0.0197661150 0 0
0.0051851440 -0.0172267990 0 0
0.0040844020 -0.0143047220 0 0
0.0031131620 -0.0112841920 0 0
0.0023600960 -0.0084656460 0 0
0.0018921890 -0.0061323930 0 0
0.0017461280 -0.0045175650 0 0
0.0019243160 -0.0037789880 0 0
0.0023967790 -0.0039847050 0 0
0.0031083920 -0.0051077460 0 0
0.0039886200 -0.0070294130 0 0
0.0049600430 -0.0095512570 0 0
0.0059435900 -0.0124151300 0 0
0.0068615670 -0.0153296090 0 0
0.0076410570 -0.0179995480 0 0
0.0082193290 -0.0201546400 0 0
0.0085506060 -0.0215745140 0 0
0.0086119440 -0.0221095790 0 0
0.0084065420 -0.0216962700 0 0
0.0079644920 -0.0203647600 0 0
0.0073411390 -0.0182378020 0 0
0.0066121210 -0.0155201640 0 0
0.0058649770 -0.0124786660 0 0
0.0051893910 -0.0094138730 0 0
0.0046680480 -0.0066266790 0 0
0.0043684710 -0.0043858070 0 0
0.0043363250 -0.0029021420 0 0
0.0045915690 -0.0023111720 0 0
0.0051279170 -0.0026620370 0 0
0.0059144450 -0.0039137100 0 0
0.0068979440 -0.0059397000 0 0
0.0080060210 -0.0085402170 0 0
0.0091521000 -0.0114594380 0 0
0.0102425770 -0.0144072480 0 0
0.0111850110 -0.0170856030 0 0
0.0118967100 -0.0192175810 0 0
0.0123137030 -0.0205754940 0 0
0.0123991440 -0.0210045170 0 0
0.0121493360 -0.0204381730 0 0
0.0115955910 -0.0189038330 0 0
0.0108013060 -0.0165206650 0 0
0.0098551210 -0.0134928720 0 0
0.0088616890 -0.0100959490 0 0
0.0079308420 -0.0066510110 0 0
0.0071656210 -0.0034882900 0 0
0.0066507770 -0.0009094570 0 0
0.0064439470 0.0008416450 0 0
0.0065706210 0.0015977020 0 0
0.0070224920 0.0012787800 0 0
0.0077586720 -0.0001011780 0 0
0.0087094270 -0.0024317590 0 0
0.0097814790 -0.0055126060 0 0
0.0108646180 -0.0090735250 0 0
0.0118415540 -0.0128050190 0 0
0.0126021610 -0.0163914990 0 0
0.0130591020 -0.0195407870 0 0
0.0131599890 -0.0220077890 0 0
0.0128937150 -0.0236135870 0 0
0.0122908530 -0.0242607370 0 0
0.0114183980 -0.0239433630 0 0
0.0103698890 -0.0227499180 0 0
0.0092535810 -0.0208571160 0 0
0.0081812820 -0.0185149800 0 0
0.0072583450 -0.0160240710 0 0
0.0065746090 -0.0137051820 0 0
0.0061972280 -0.0118627730 0 0
0.0061663450 -0.0107480480 0 0
0.0064927660 -0.0105299150 0 0
0.0071561460 -0.0112789080 0 0
0.0081041380 -0.0129640290 0 0
0.0092545780 -0.0154595940 0 0
0.0105017290 -0.0185593670 0 0
0.0117258160 -0.0219966380 0 0
0.0128047310 -0.0254690920 0 0
0.0136269150 -0.0286666670 0 0
0.0141037840 -0.0313004640 0 -1
0.0141798660 -0.0331309580 0 -1
0.0138396740 -0.0339931650 0 -1
0.0131108080 -0.0338155610 0 -1
0.0120623110 -0.0326298120 0 -1
0.0107976900 -0.0305693730 0 -1
0.0094439140 -0.0278564030 0 0
0.0081388670 -0.0247786970 0 0
0.0070188040 -0.0216597670 0 0
0.0062053460 -0.0188253010 0 0
0.0057917800 -0.0165698290 0 0
0.0058313260 -0.0151277010 0 0
0.0063304280 -0.0146503840 0 0
0.0072473880 -0.0151909020 0 0
0.0084960610 -0.0166976960 0 0
0.0099555310 -0.0190204250 0 0
0.0114852800 -0.0219277110 0 0
0.0129422530 -0.0251338200 0 0
0.0141959260 -0.0283295520 0 0
0.0151402910 -0.0312125140 0 -1
0.0157034300 -0.0335135030 0 -1
0.0158539170 -0.0350181770 0 -1
0.0156021220 -0.0355849870 0 -1
0.0149960220 -0.0351591800 0 -1
0.0141129760 -0.0337798500 0 -1
0.0130496710 -0.0315769850 0 -1
0.0119122370 -0.0287586880 0 0
0.0108074500 -0.0255910290 0 0
0.0098348800 -0.0223731130 0 0
0.0090792350 -0.0194093340 0 0
0.0086026750 -0.0169801040 0 0
0.0084385900 -0.0153123730 0 0
0.0085888330 -0.0145532080 0 0
0.0090243900 -0.0147520220 0 0
0.0096882280 -0.0158555190 0 0
0.0104998690 -0.0177152480 0 0
0.0113618600 -0.0201061920 0 0
0.0121679770 -0.0227543680 0 0
0.0128135200 -0.0253686790 0 0
0.0132076350 -0.0276719020 0 0
0.0132849210 -0.0294269300 0 0
0.0130122670 -0.0304553270 0 -1
0.0123897180 -0.0306483390 0 -1
0.0114479060 -0.0299735730 0 0
0.0102447810 -0.0284785780 0 0
0.0088616720 -0.0262894100 0 0
0.0073972770 -0.0236021310 0 0
0.0059594980 -0.0206669420 0 0
0.0046558400 -0.0177661220 0 0
0.0035826130 -0.0151871720 0 0
0.0028138820 -0.0131928100 0 0
0.0023925350 -0.0119917620 0 0
0.0023257440 -0.0117157330 0 0
0.0025855630 -0.0124054720 0 0
0.0031141120 -0.0140060070 0 0
0.0038319250 -0.0163712920 0 0
0.0046472660 -0.0192786290 0 0
0.0054646250 -0.0224511620 0 0
0.0061925580 -0.0255852300 0 0
0.0067517190 -0.0283796660 0 0
0.0070824290 -0.0305645260 0 -1
0.0071499990 -0.0319268000 0 -1
0.0069469910 -0.0323313610 0 -1
0.0064930780 -0.0317355150 0 -1
0.0058332850 -0.0301946240 0 -1
0.0050343640 -0.0278566810 0 0
0.0041786290 -0.0249464900 0 0
0.0033554640 -0.0217424110 0 0
0.0026515870 -0.0185486550 0 0
0.0021413960 -0.0156652010 0 0
0.0018790280 -0.0133579790 0 0
0.0018934480 -0.0118331430 0 0
0.0021866530 -0.0112184100 0 0
0.0027341070 -0.0115518780 0 0
0.0034869480 -0.0127780140 0 0
0.0043760910 -0.0147522650 0 0
0.0053181390 -0.0172560990 0 0
0.0062230300 -0.0200215660 0 0
0.0070032380 -0.0227610600 0 0
0.0075828290 -0.0251964710 0 0
0.0079036930 -0.0270838420 0 0
0.0079286930 -0.0282327990 0 0
0.0076440590 -0.0285209390 0 0
0.0070623910 -0.0279029930 0 0
0.0062249130 -0.0264152170 0 0
0.0052003920 -0.0241752020 0 0
0.0040793450 -0.0213752240 0 0
0.0029641910 -0.0182665250 0 0
0.0019569630 -0.0151338960 0 0
0.0011465150 -0.0122643660 0 0
0.0005978560 -0.0099180130 0 0
0.0003461850 -0.0083069610 0 0
0.0003965840 -0.0075812270 0 0
0.0007281990 -0.0078165690 0 0
0.0012999730 -0.0090035130 0 0
0.0020550250 -0.0110414340 0 0
0.0029234740 -0.0137421460 0 0
0.0038259170 -0.0168453840 0 0
0.0046792810 -0.0200456430 0 0
0.0054047800 -0.0230262320 0 0
0.0059360000 -0.0254945510 0 0
0.0062249960 -0.0272134910 0 0
0.0062459560 -0.0280255440 0 0
0.0059976430 -0.0278675240 0 0
0.0055053940 -0.0267749090 0 0
0.0048214970 -0.0248760700 0 0
0.0040217920 -0.0223778590 0 0
0.0031978240 -0.0195444280 0 0
0.0024464260 -0.0166710290 0 0
0.0018594260 -0.0140551630 0 0
0.0015144400 -0.0119679960 0 0
0.0014663250 -0.0106282270 0 0
0.0017400140 -0.0101798200 0 0
0.0023267080 -0.0106756240 0 0
0.0031840940 -0.0120703050 0 0
0.0042396770 -0.0142251380 0 0
0.0053967290 -0.0169235880 0 0
0.0065433750 -0.0198945110 0 0
0.0075643740 -0.0228398760 0 0
0.0083537430 -0.0254641830 0 0
0.0088267160 -0.0275033850 0 0
0.0089301010 -0.0287511830 0 0
0.0086495040 -0.0290791050 0 0
0.0080121760 -0.0284474870 0 0
0.0070850510 -0.0269074920 0 0
0.0059676080 -0.0245956040 0 0
0.0047801660 -0.0217209800 0 0
0.0036499680 -0.0185454800 0 0
0.0026972620 -0.0153581540 0 0
0.0020223540 -0.0124486690 0 0
0.0016947950 -0.0100832070 0 0
0.0017464260 -0.0084827410 0 0
0.0021691780 -0.0078026230 0 0
0.0029170630 -0.0081151530 0 0
0.0039111900 -0.0093985920 0 0
0.0050470090 -0.0115356600 0 0
0.0062036060 -0.0143231550 0 0
0.0072551550 -0.0174917150 0 0
0.0080837900 -0.0207324650 0 0
0.0085915610 -0.0237273780 0 0
0.0087093160 -0.0261806990 0 0
0.0084022920 -0.0278483090 0 0
0.0076731520 -0.0285620420 0 0
0.0065625630 -0.0282470020 0 0
0.0051466170 -0.0269304770 0 0
0.0035305320 -0.0247411140 0 0
0.0018391210 -0.0218974280 0 0
0.0002054610 -0.0186854730 0 0
-0.0012409960 -0.0154273160 0 0
-0.0023863520 -0.0124453790 0 0
-0.0031439620 -0.0100293460 0 0
-0.0034647300 -0.0084096960 0 0
-0.0033434860 -0.0077385430 0 0
-0.0028190800 -0.0080775570 0 0
-0.0019682180 -0.0093923990 0 0
-0.0008954680 -0.0115539050 0 0
0.0002775770 -0.0143483840 0 0
0.0014224920 -0.0174979120 0 0
0.0024142700 -0.0206869840 0 0
0.0031425770 -0.0235916090 0 0
0.0035224900 -0.0259093310 0 0
0.0035024110 -0.0273877640 0 0
0.0030687970 -0.0278485640 0 0
0.0022481160 -0.0272044630 0 0
0.0011057340 -0.0254672110 0 0
-0.0002586080 -0.0227467790 0 0
-0.0017191180 -0.0192439510 0 0
-0.0031361210 -0.0152350570 0 0
-0.0043708940 -0.0110463200 0 0
-0.0053016010 -0.0070203770 0 0
-0.0058385100 -0.0034815650 0 0
-0.0059355300 -0.0007058320 0 0
-0.0055950690 0.0011024560 0 0
-0.0048653740 0.0018283530 0 0
-0.0038317070 0.0014595350 0 0
-0.0026039440 0.0000907048 0 0
-0.0013033960 -0.0020854600 0 0
-0.0000507672 -0.0048002900 0 0
0.0010434480 -0.0077396610 0 0
0.0018855370 -0.0105786090 0 0
0.0024034000 -0.0130156000 0 0
0.0025521480 -0.0148021310 0 0
0.0023204000 -0.0157652800 0 0
0.0017336140 -0.0158221740 0 0
0.0008512670 -0.0149854650 0 0
-0.0002412530 -0.0133603240 0 0
-0.0014421860 -0.0111342740 0 0
-0.0026421780 -0.0085595060 0 0
-0.0037338790 -0.0059274920 0 0
-0.0046237960 -0.0035388260 0 0
-0.0052434470 -0.0016723790 0 0
-0.0055556470 -0.0005561580 0 0
-0.0055553590 -0.0003416680 0 0
-0.0052675280 -0.0010852290 0 0
-0.0047434200 -0.0027401540 0 0
-0.0040552890 -0.0051609030 0 0
-0.0032894290 -0.0081176130 0 0
-0.0025383620 -0.0113191980 0 0
-0.0018925760 -0.0144439290 0 0
-0.0014315910 -0.0171752710 0 0
-0.0012145310 -0.0192377130 0 0
-0.0012716250 -0.0204262950 0 0
-0.0015992430 -0.0206259050 0 0
-0.0021604760 -0.0198190270 0 0
-0.0028908060 -0.0180824050 0 0
-0.0037065600 -0.0155749650 0 0
-0.0045142200 -0.0125200550 0 0
-0.0052201740 -0.0091840100 0 0
-0.0057406660 -0.0058525090 0 0
-0.0060104960 -0.0028073950 0 0
-0.0059884560 -0.0003065700 0 0
-0.0056592790 0.0014340830 0 0
-0.0050340680 0.0022598010 0 0
-0.0041505110 0.0020956660 0 0
-0.0030718570 0.0009587850 0 0
-0.0018831080 -0.0010404880 0 0
-0.0006843900 -0.0037081540 0 0
0.0004174030 -0.0067849620 0 0
0.0013180900 -0.0099715820 0 0
0.0019269480 -0.0129584200 0 0
0.0021779560 -0.0154569690 0 0
0.0020393420 -0.0172280740 0 0
0.0015193780 -0.0181036890 0 0
0.0006672000 -0.0180018490 0 0
-0.0004318860 -0.0169344980 0 0
-0.0016657520 -0.0150059490 0 0
-0.0029077300 -0.0124021150 0 0
-0.0040305330 -0.0093733590 0 0
-0.0049209590 -0.0062120260 0 0
-0.0054936970 -0.0032244850 0 0
-0.0057009860 -0.0007007890 0 0
-0.0055348190 0.0011125060 0 0
-0.0050219860 0.0020337630 0 0
-0.0042162000 0.0019632210 0 0
-0.0031909740 0.0008961200 0 0
-0.0020332760 -0.0010708780 0 0
-0.0008364880 -0.0037446270 0 0
0.0003070070 -0.0068542580 0 0
0.0013120850 -0.0100816740 0 0
0.0021060960 -0.0130979010 0 0
0.0026344040 -0.0155984610 0 0
0.0028660380 -0.0173330970 0 0
0.0027977360 -0.0181284860 0 0
0.0024553720 -0.0179036110 0 0
0.0018925350 -0.0166765820 0 0
0.0011860250 -0.0145613760 0 0
0.0004285050 -0.0117551690 0 0
-0.0002807210 -0.0085194230 0 0
-0.0008460000 -0.0051562900 0 0
-0.0011863420 -0.0019802150 0 0
-0.0012457650 0.0007124370 0 0
-0.0010000900 0.0026727240 0 0
-0.0004582750 0.0037267840 0 0
0.0003406580 0.0037974760 0 0
0.0013324420 0.0029120980 0 0
0.0024322900 0.0011943800 0 0
0.0035396840 -0.0011527680 0 0
0.0045450460 -0.0038681280 0 0
0.0053401460 -0.0066567170 0 0
0.0058317550 -0.0092184830 0 0
0.0059551110 -0.0112782510 0 0
0.0056830260 -0.0126131130 0 0
0.0050282560 -0.0130749020 0 0
0.0040392630 -0.0126061350 0 0
0.0027917640 -0.0112474230 0 0
0.0013790350 -0.0091347210 0 0
-0.0000975939 -0.0064864860 0 0
-0.0015376160 -0.0035816440 0 0
-0.0028486060 -0.0007294280 0 0
-0.0039512380 0.0017653180 0 0
-0.0047833850 0.0036349060 0 0
-0.0053049080 0.0046750820 0 0
-0.0055026650 0.0047642810 0 0
-0.0053936270 0.0038751640 0 0
-0.0050240350 0.0020758230 0 0
-0.0044640780 -0.0004798480 0 0
-0.0037996230 -0.0035689820 0 0
-0.0031234010 -0.0069198900 0 0
-0.0025271620 -0.0102353240 0 0
-0.0020947010 -0.0132196580 0 0
-0.0018948000 -0.0156076190 0 0
-0.0019740120 -0.0171899260 0 0
-0.0023508180 -0.0178327710 0 0
-0.0030132540 -0.0174906930 0 0
-0.0039205040 -0.0162122370 0 0
-0.0050068330 -0.0141363860 0 0
-0.0061866510 -0.0114785530 0 0
-0.0073615080 -0.0085077120 0 0
-0.0084296280 -0.0055181120 0 0
-0.0092969910 -0.0027992740 0 0
-0.0098887710 -0.0006084800 0 0
-0.0101596780 0.0008506750 0 0
-0.0101007080 0.0014432940 0 0
-0.0097400690 0.0011141110 0 0
-0.0091380980 -0.0001046710 0 0
-0.0083777390 -0.0020912430 0 0
-0.0075529850 -0.0046422080 0 0
-0.0067577840 -0.0074925520 0 0
-0.0060769410 -0.0103443010 0 0
-0.0055784050 -0.0128984160 0 0
-0.0053059910 -0.0148860210 0 0
-0.0052741080 -0.0160963010 0 0
-0.0054676740 -0.0163975800 0 0
-0.0058475880 -0.0157483260 0 0
-0.0063582030 -0.0141980680 0 0
-0.0069327220 -0.0118810280 0 0
-0.0074960910 -0.0090041620 0 0
-0.0079686260 -0.0058286380 0 0
-0.0082728650 -0.0026447250 0 0
-0.0083424510 0.0002566900 0 0
-0.0081301980 0.0026123900 0 0
-0.0076137220 0.0042124620 0 0
-0.0067983920 0.0049205170 0 0
-0.0057176320 0.0046860470 0 0
-0.0044304480 0.0035484950 0 0
-0.0030159330 0.0016336400 0 0
-0.0015647120 -0.0008578390 0 0
-0.0001685880 -0.0036701070 0 0
0.0010888070 -0.0065190810 0 0
0.0021382440 -0.0091222760 0 0
0.0029282610 -0.0112260570 0 0
0.0034277250 -0.0126269090 0 0
0.0036288530 -0.0131873090 0 0
0.0035497320 -0.0128481670 0 0
0.0032343490 -0.0116371720 0 0
0.0027486670 -0.0096702270 0 0
0.0021727610 -0.0071441830 0 0
0.0015909980 -0.0043202340 0 0
0.0010829460 -0.0014975490 0 0
0.0007162910 0.0010212880 0 0
0.0005415600 0.0029672020 0 0
0.0005881440 0.0041358880 0 0
0.0008613300 0.0044081390 0 0
0.0013403500 0.0037586200 0 0
0.0019782220 0.0022547980 0 0
0.0027047380 0.0000479278 0 0
0.0034333380 -0.0026421780 0 0
0.0040710790 -0.0055473730 0 0
0.0045302300 -0.0083756220 0 0
0.0047400660 -0.0108382600 0 0
0.0046565230 -0.0126774160 0 0
0.0042669610 -0.0136909550 0 0
0.0035898560 -0.0137534590 0 0
0.0026718580 -0.0128314860 0 0
0.0015835770 -0.0109901570 0 0
0.0004132890 -0.0083886130 0 0
-0.0007418300 -0.0052643870 0 0
-0.0017855320 -0.0019094000 0 0
-0.0026314850 0.0013587870 0 0
-0.0032102300 0.0042279190 0 0
-0.0034742220 0.0064229340 0 0
-0.0034019380 0.0077362880 0 0
-0.0030010310 0.0080512800 0 0
-0.0023086930 0.0073534260 0 0
-0.0013880530 0.0057294760 0 0
-0.0003215900 0.0033568950 0 0
0.0007966840 0.0004867450 0 0
0.0018687940 -0.0025797440 0 0
0.0027995920 -0.0055220230 0 0
0.0035042300 -0.0080353290 0 0
0.0039177030 -0.0098626470 0 0
0.0040043430 -0.0108186360 0 0
0.0037629420 -0.0108046190 0 0
0.0032251870 -0.0098142470 0 0
0.0024486650 -0.0079297960 0 0
0.0015073780 -0.0053109130 0 0
0.0004821090 -0.0021788180 0 0
-0.0005481720 0.0012017610 0 0
-0.0015128770 0.0045423350 0 0
-0.0023533410 0.0075532270 0 0
-0.0030233970 0.0099695200 0 0
-0.0034893180 0.0115778030 0 0
-0.0037321850 0.0122399780 0 0
-0.0037531120 0.0119111290 0 0
-0.0035783110 0.0106475020 0 0
-0.0032601680 0.0086006230 0 0
-0.0028721530 0.0059987010 0 0
-0.0024982340 0.0031213180 0 0
-0.0022204430 0.0002716170 0 0
-0.0021084930 -0.0022543760 0 0
-0.0022126780 -0.0041996690 0 0
-0.0025591300 -0.0053732590 0 0
-0.0031469200 -0.0056678810 0 0
-0.0039474720 -0.0050680250 0 0
-0.0049068660 -0.0036478380 0 0
-0.0059508710 -0.0015598700 0 0
-0.0069920170 0.0009818850 0 0
-0.0079379720 0.0037215010 0 0
-0.0087009530 0.0063822750 0 0
-0.0092081370 0.0086900890 0 0
-0.0094115540 0.0103987520 0 0
-0.0092942160 0.0113144680 0 0
-0.0088707960 0.0113156880 0 0
-0.0081843520 0.0103665600 0 0
-0.0073012320 0.0085230700 0 0
-0.0063048840 0.0059304160 0 0
-0.0052886850 0.0028111700 0 0
-0.0043477920 -0.0005548610 0 0
-0.0035699370 -0.0038584250 0 0
-0.0030257800 -0.0067945060 0 0
-0.0027602800 -0.0090962040 0 0
-0.0027869380 -0.0105618200 0 0
-0.0030868310 -0.0110723020 0 0
-0.0036129810 -0.0105999670 0 0
-0.0042982870 -0.0092088550 0 0
-0.0050641100 -0.0070462360 0 0
-0.0058274200 -0.0043270470 0 0
-0.0065064000 -0.0013144850 0 0
-0.0070259550 0.0017021280 0 0
-0.0073242990 0.0044329470 0 0
-0.0073602040 0.0066157890 0 0
-0.0071194430 0.0080430100 0 0
-0.0066184170 0.0085822890 0 0
-0.0059032200 0.0081887910 0 0
-0.0050439740 0.0069089020 0 0
-0.0041261740 0.0048765670 0 0
-0.0032410510 0.0023024920 0 0
-0.0024760270 -0.0005444980 0 0
-0.0019061590 -0.0033643290 0 0
-0.0015878420 -0.0058583360 0 0
-0.0015552620 -0.0077622820 0 0
-0.0018185070 -0.0088744970 0 0
-0.0023619260 -0.0090762650 0 0
-0.0031433060 -0.0083429910 0 0
-0.0040961270 -0.0067452960 0 0
-0.0051363190 -0.0044401180 0 0
-0.0061719030 -0.0016530630 0 0
-0.0071117430 0.0013454430 0 0
-0.0078714370 0.0042668090 0 0
-0.0083782430 0.0068311360 0 0
-0.0085779240 0.0087929940 0 0
-0.0084436440 0.0099649010 0 0
-0.0079837700 0.0102363730 0 0
-0.0072442780 0.0095861910 0 0
-0.0063039740 0.0080858860 0 0
-0.0052644530 0.0058928110 0 0
-0.0042378150 0.0032330960 0 0
-0.0033343930 0.0003779030 0 0
-0.0026515920 -0.0023831280 0 0
-0.0022633720 -0.0047691120 0 0
-0.0022106110 -0.0065344870 0 0
-0.0024955300 -0.0074930460 0 0
-0.0030832820 -0.0075374710 0 0
-0.0039094410 -0.0066525980 0 0
-0.0048894210 -0.0049189750 0 0
-0.0059268390 -0.0025017950 0 0
-0.0069200090 0.0003729480 0 0
-0.0077681890 0.0034433370 0 0
-0.0083800230 0.0064296550 0 0
-0.0086840490 0.0090514260 0 0
-0.0086381050 0.0110513120 0 0
-0.0082343470 0.0122244260 0 0
-0.0074992980 0.0124444120 0 0
-0.0064905460 0.0116785390 0 0
-0.0052913250 0.0099903050 0 0
-0.0040029790 0.0075320060 0 0
-0.0027362870 0.0045291030 0 0
-0.0016036210 0.0012576230 0 0
-0.0007118250 -0.0019832750 0 0
-0.0001534200 -0.0049002580 0 0
0.0000049055 -0.0072320810 0 0
-0.0002660440 -0.0087711770 0 0
-0.0009507380 -0.0093820590 0 0
-0.0019896800 -0.0090159880 0 0
-0.0032882390 -0.0077178900 0 0
-0.0047301240 -0.0056231980 0 0
-0.0061914550 -0.0029456550 0 0
-0.0075533930 0.0000426233 0 0
-0.0087130380 0.0030380460 0 0
-0.0095923690 0.0057368070 0 0
-0.0101442770 0.0078654820 0 0
-0.0103546900 0.0092065920 0 0
-0.0102410890 0.0096180920 0 0
-0.0098486940 0.0090473170 0 0
-0.0092451570 0.0075382770 0 0
-0.0085137080 0.0052296710 0 0
-0.0077446780 0.0023415150 0 0
-0.0070261340 -0.0008491370 0 0
-0.0064354020 -0.0040396210 0 0
-0.0060334660 -0.0069346860 0 0
-0.0058623480 -0.0092756080 0 0
-0.0059431470 -0.0108622320 0 0
-0.0062732570 -0.0115684370 0 0
-0.0068243570 -0.0113520350 0 0
-0.0075436930 -0.0102577590 0 0
-0.0083589930 -0.0084122420 0 0
-0.0091849000 -0.0060121170 0 0
-0.0099292640 -0.0033066290 0 0
-0.0105004450 -0.0005748980 0 0
-0.0108171460 0.0019017400 0 0
-0.0108192990 0.0038693090 0 0
-0.0104766600 0.0051273690 0 0
-0.0097929710 0.0055473060 0 0
-0.0088057300 0.0050819620 0 0
-0.0075824170 0.0037687170 0 0
-0.0062137830 0.0017274820 0 0
-0.0048049230 -0.0008477320 0 0
-0.0034654230 -0.0037053340 0 0
-0.0023000460 -0.0065600300 0 0
-0.0014006030 -0.0091216510 0 0
-0.0008383950 -0.0111259790 0 0
-0.0006564130 -0.0123636470 0 0
-0.0008621690 -0.0127033290 0 0
-0.0014239970 -0.0121060150 0 0
-0.0022733750 -0.0106279740 0 0
-0.0033132590 -0.0084128300 0 0
-0.0044300970 -0.0056761700 0 0
-0.0055066240 -0.0026856260 0 0
-0.0064333800 0.0002628430 0 0
-0.0071183770 0.0028717920 0 0
-0.0074949980 0.0048709940 0 0
-0.0075280270 0.0060463180 0 0
-0.0072176440 0.0062653750 0 0
-0.0066006930 0.0054949530 0 0
-0.0057481660 0.0038061060 0 0
-0.0047585820 0.0013660770 0 0
-0.0037479740 -0.0015801870 0 0
-0.0028371290 -0.0047355580 0 0
-0.0021367870 -0.0077819470 0 0
-0.0017331180 -0.0104153660 0 0
-0.0016769600 -0.0123788850 0 0
-0.0019790080 -0.0134864500 0 0
-0.0026107940 -0.0136357910 0 0
-0.0035100910 -0.0128134020 0 0
-0.0045895000 -0.0110942750 0 0
-0.0057470430 -0.0086363720 0 0
-0.0068769290 -0.0056680290 0 0
-0.0078787400 -0.0024674800 0 0
-0.0086651760 0.0006635180 0 0
-0.0091698020 0.0034292780 0 0
-0.0093546930 0.0055707900 0 0
-0.0092156220 0.0068933000 0 0
-0.0087829750 0.0072857670 0 0
-0.0081183670 0.0067295630 0 0
-0.0073075340 0.0052964650 0 0
-0.0064503630 0.0031375900 0 0
-0.0056498930 0.0004666290 0 0
-0.0050025450 -0.0024594450 0 0
-0.0045902400 -0.0053611630 0 0
-0.0044734350 -0.0079591210 0 0
-0.0046847190 -0.0099978160 0 0
-0.0052242330 -0.0112689310 0 0
-0.0060587600 -0.0116320370 0 0
-0.0071252060 -0.0110308680 0 0
-0.0083373360 -0.0095027370 0 0
-0.0095941190 -0.0071785880 0 0
-0.0107886230 -0.0042726070 0 0
-0.0118167700 -0.0010618820 0 0
-0.0125856430 0.0021416640 0 0
-0.0130215410 0.0050236200 0 0
-0.0130772530 0.0073002730 0 0
-0.0127370500 0.0087491050 0 0
-0.0120188260 0.0092320530 0 0
-0.0109737360 0.0087074630 0 0
-0.0096829920 0.0072303320 0 0
-0.0082511390 0.0049445770 0 0
-0.0067961960 0.0020708560 0 0
-0.0054380450 -0.0011107690 0 0
-0.0042868080 -0.0042860130 0 0
-0.0034325220 -0.0071386260 0 0
-0.0029367350 -0.0093846640 0 0
-0.0028265330 -0.0108029140 0 0
-0.0030915510 -0.0112570100 0 0
-0.0036841330 -0.0107068040 0 0
-0.0045229960 -0.0092092610 0 0
-0.0055012050 -0.0069108900 0 0
-0.0064980580 -0.0040329790 0 0
-0.0073925850 -0.0008496940 0 0
-0.0080763410 0.0023389670 0 0
-0.0084640760 0.0052350840 0 0
-0.0085009230 0.0075698390 0 0
-0.0081653890 0.0091303720 0 0
-0.0074692190 0.0097842860 0 0
-0.0064558180 0.0094964420 0 0
-0.0051971200 0.0083334560 0 0
-0.0037874720 0.0064542190 0 0
-0.0023348940 0.0040883420 0 0
-0.0009521910 0.0015076570 0 0
0.0002510560 -0.0010032740 0 0
0.0011771460 -0.0031734890 0 0
0.0017503390 -0.0047682890 0 0
0.0019264290 -0.0056100570 0 0
0.0016992320 -0.0055972790 0 0
0.0011022870 -0.0047174330 0 0
0.0002046100 -0.0030484790 0 0
-0.0008993360 -0.0007491650 0 0
-0.0021023560 0.0019578820 0 0
-0.0032958470 0.0048078190 0 0
-0.0043783410 0.0075185340 0 0
-0.0052627920 0.0098168580 0 0
-0.0058834510 0.0114646230 0 0
-0.0062011970 0.0122825160 0 0
-0.0062067830 0.0121680490 0 0
-0.0059224810 0.0111045750 0 0
-0.0054011860 0.0091613570 0 0
-0.0047210890 0.0064874320 0 0
-0.0039764220 0.0033009630 0 0
-0.0032670000 -0.0001275950 0 0
-0.0026884590 -0.0035004030 0 0
-0.0023234410 -0.0065228360 0 0
-0.0022334200 -0.0089337930 0 0
-0.0024514380 -0.0105308410 0 0
-0.0029770650 -0.0111887400 0 0
-0.0037750520 -0.0108709260 0 0
-0.0047780210 -0.0096329940 0 0
-0.0058924340 -0.0076181630 0 0
-0.0070072060 -0.0050451850 0 0
-0.0080050990 -0.0021880450 0 0
-0.0087765300 0.0006521890 0 0
-0.0092336320 0.0031790610 0 0
-0.0093210590 0.0051297850 0 0
-0.0090208970 0.0062989500 0 0
-0.0083513320 0.0065579810 0 0
-0.0073609700 0.0058700140 0 0
-0.0061216080 0.0042963390 0 0
-0.0047215160 0.0019913970 0 0
-0.0032596410 -0.0008131480 0 0
-0.0018399870 -0.0038333010 0 0
-0.0005651090 -0.0067643140 0 0
0.0004723730 -0.0093145700 0 0
0.0012002370 -0.0112358610 0 0
0.0015770290 -0.0123458590 0 0
0.0015991050 -0.0125417780 0 0
0.0013020560 -0.0118063030 0 0
0.0007562790 -0.0102071580 0 0
0.0000578715 -0.0078911760 0 0
-0.0006835880 -0.0050733330 0 0
-0.0013584610 -0.0020201690 0 0
-0.0018693940 0.0009734520 0 0
-0.0021410540 0.0036128240 0 0
-0.0021268820 0.0056330540 0 0
-0.0018125050 0.0068262630 0 0
-0.0012152120 0.0070642360 0 0
-0.0003805600 0.0063140980 0 0
0.0006216070 0.0046437370 0 0
0.0017011250 0.0022149420 0 0
0.0027531420 -0.0007343980 0 0
0.0036670690 -0.0039152660 0 0
0.0043387590 -0.0070166490 0 0
0.0046838590 -0.0097365460 0 0
0.0046494280 -0.0118114870 0 0
0.0042218420 -0.0130417380 0 0
0.0034305130 -0.0133108070 0 0
0.0023474240 -0.0125976020 0 0
0.0010817250 -0.0109791220 0 0
-0.0002322420 -0.0086221250 0 0
-0.0014535340 -0.0057637080 0 0
-0.0024560750 -0.0026834320 0 0
-0.0031474250 0.0003270990 0 0
-0.0034809730 0.0029912460 0 0
-0.0034602130 0.0050688020 0 0
-0.0031351780 0.0063732110 0 0
-0.0025919620 0.0067863330 0 0
-0.0019382830 0.0062698540 0 0
-0.0012896150 0.0048690340 0 0
-0.0007590360 0.0027067820 0 0
-0.0004508900 -0.0000293904 0 0
-0.0004562890 -0.0031058560 0 0
-0.0008482440 -0.0062671990 0 0
-0.0016759260 -0.0092634830 0 0
-0.0029598100 -0.0118751780 0 0
-0.0046893820 -0.0139332530 0 0
-0.0068236700 -0.0153347190 0 0
-0.0092945870 -0.0160532170 0 0
-0.0120129580 -0.0161426750 0 0
-0.0148760450 -0.0157330680 0 0
-0.0177755870 -0.0150191120 0 0
-0.0206068890 -0.0142421910 0 0
-0.0232793610 -0.0136657030 0 0
-0.0257264250 -0.0135468930 0 0
-0.0279119910 -0.0141101250 0 0
-0.0298326390 -0.0155247640 0 0
-0.0315160730 -0.0178884840 -1 0
-0.0330168060 -0.0212163880 -1 0
-0.0344106060 -0.0254368410 -1 0
-0.0357884710 -0.0303953390 -1 -1
-0.0372490540 -0.0358673170 -1 -1
-0.0388889210 -0.0415788790 -1 -1
-0.0407922130 -0.0472323790 -1 -1
-0.0430213840 -0.0525334960 -1 -1
-0.0456093050 -0.0572177640 -1 -1
-0.0485530700 -0.0610757810 -1 -1
-0.0518114870 -0.0639759690 -1 -1
-0.0553086490 -0.0658816030 -1 -1
-0.0589435000 -0.0668572880 -1 -1
-0.0626024280 -0.0670622230 -1 -1
-0.0661715810 -0.0667318660 -1 -1
-0.0695468910 -0.0661518060 -1 -1
-0.0726412280 -0.0656272600 -1 -1
-0.0753896100 -0.0654514380 -1 -1
-0.0777537920 -0.0658759460 -1 -1
-0.0797254600 -0.0670859280 -1 -1
-0.0813262470 -0.0691817240 -1 -1
-0.0826049060 -0.0721679050 -1 -1
-0.0836332450 -0.0759500700 -1 -1
-0.0845007710 -0.0803405480 -1 -1
-0.0853070620 -0.0850750690 -1 -1
-0.0861519120 -0.0898413350 -1 -1
-0.0871241490 -0.0943158080 -1 -1
-0.0882904930 -0.0982009620 -1 -1
-0.0896865910 -0.1012556780 -1 -1
-0.0913126940 -0.1033156000 -1 -1
-0.0931352050 -0.1043044650 -1 -1
-0.0950931440 -0.1042379720 -1 -1
-0.0971074800 -0.1032201430 -1 -1
-0.0990911010 -0.1014325590 -1 -1
-0.1009576070 -0.0991178370 -1 -1
-0.1026282860 -0.0965580660 -1 -1
-0.1040374320 -0.0940493530 -1 -1
-0.1051359070 -0.0918753790 -1 -1
-0.1058929300 -0.0902832470 -1 -1
-0.1062966360 -0.0894639610 -1 -1
-0.1063541310 -0.0895379070 -1 -1
-0.1060914330 -0.0905441690 -1 -1
-0.1055532610 -0.0924338150 -1 -1
-0.1048022280 -0.0950696290 -1 -1
-0.1039171620 -0.0982351970 -1 -1
-0.1029896510 -0.1016547880 -1 -1
-0.1021173820 -0.1050222070 -1 -1
-0.1013940580 -0.1080332460 -1 -1
-0.1008976930 -0.1104161480 -1 -1
-0.1006798000 -0.1119576540 -1 -1
-0.1007578360 -0.1125242670 -1 -1
-0.1011126300 -0.1120777510 -1 -1
-0.1016910660 -0.1106818370 -1 -1
-0.1024123190 -0.1084964560 -1 -1
-0.1031759350 -0.1057585900 -1 -1
-0.1038720170 -0.1027540030 -1 -1
-0.1043940280 -0.0997862890 -1 -1
-0.1046526140 -0.0971472050 -1 -1
-0.1045876520 -0.0950901570 -1 -1
-0.1041759930 -0.0938086130 -1 -1
-0.1034331710 -0.0934197550 -1 -1
-0.1024093180 -0.0939530620 -1 -1
-0.1011820310 -0.0953455520 -1 -1
-0.0998491640 -0.0974459260 -1 -1
-0.0985219430 -0.1000278100 -1 -1
-0.0973165010 -0.1028109870 -1 -1
-0.0963423850 -0.1054892200 -1 -1
-0.0956890430 -0.1077619090 -1 -1
-0.0954134160 -0.1093658170 -1 -1
-0.0955321740 -0.1101039140 -1 -1
-0.0960201930 -0.1098685040 -1 -1
-0.0968149530 -0.1086542930 -1 -1
-0.0978256990 -0.1065574690 -1 -1
-0.0989452150 -0.1037613160 -1 -1
-0.1000610850 -0.1005135540 -1 -1
-0.1010650030 -0.0971008130 -1 -1
-0.1018612830 -0.0938224300 -1 -1
-0.1023751910 -0.0909640060 -1 -1
-0.1025597760 -0.0887717930 -1 -1
-0.1023999860 -0.0874302060 -1 -1
-0.1019144300 -0.0870450850 -1 -1
-0.1011553810 -0.0876345710 -1 -1
-0.1002063630 -0.0891280310 -1 -1
-0.0991754710 -0.0913726210 -1 -1
-0.0981833570 -0.0941468100 -1 -1
-0.0973475300 -0.0971801600 -1 -1
-0.0967670300 -0.1001788220 -1 -1
-0.0965113870 -0.1028551080 -1 -1
-0.0966153690 -0.1049573270 -1 -1
-0.0970788170 -0.1062952570 -1 -1
-0.0978697880 -0.1067576750 -1 -1
-0.0989287590 -0.1063206560 -1 -1
-0.1001723380 -0.1050477410 -1 -1
-0.1014971980 -0.1030834340 -1 -1
-0.1027868450 -0.1006403110 -1 -1
-0.1039223940 -0.0979787720 -1 -1
-0.1047952930 -0.0953789920 -1 -1
-0.1053189380 -0.0931089740 -1 -1
-0.1054377000 -0.0913957350 -1 -1
-0.1051326800 -0.0904037480 -1 -1
-0.1044236810 -0.0902210590 -1 -1
-0.1033677400 -0.0908528950 -1 -1
-0.1020542190 -0.0922224990 -1 -1
-0.1005956380 -0.0941792660 -1 -1
-0.0991148400 -0.0965138800 -1 -1
-0.0977311520 -0.0989781350 -1 -1
-0.0965483790 -0.1013074620 -1 -1
-0.0956464570 -0.1032459160 -1 -1
-0.0950770220 -0.1045720280 -1 -1
-0.0948620680 -0.1051221500 -1 -1
-0.0949944150 -0.1048086750 -1 -1
-0.0954389400 -0.1036306500 -1 -1
-0.0961343720 -0.1016745610 -1 -1
-0.0969967950 -0.0991060260 -1 -1
-0.0979263860 -0.0961546390 -1 -1
-0.0988178210 -0.0930931090 -1 -1
-0.0995728600 -0.0902117520 -1 -1
-0.1001123500 -0.0877903570 -1 -1
-0.1003850850 -0.0860699310 -1 -1
-0.1003725310 -0.0852276130 -1 -1
-0.1000895860 -0.0853581630 -1 -1
-0.0995813200 -0.0864642700 -1 -1
-0.0989155600 -0.0884562890 -1 -1
-0.0981728440 -0.0911612330 -1 -1
-0.0974366730 -0.0943406510 -1 -1
-0.0967859460 -0.0977150400 -1 -1
-0.0962899190 -0.1009901270 -1 -1
-0.0960050150 -0.1038819680 -1 -1
-0.0959717760 -0.1061409240 -1 -1
-0.0962107670 -0.1075742930 -1 -1
-0.0967183040 -0.1080650370 -1 -1
-0.0974637300 -0.1075835220 -1 -1
-0.0983893340 -0.1061900790 -1 -1
-0.0994136880 -0.1040279280 -1 -1
-0.1004386560 -0.1013087720 -1 -1
-0.1013593720 -0.0982944470 -1 -1
-0.1020757240 -0.0952750880 -1 -1
-0.1025034980 -0.0925426680 -1 -1
-0.1025836280 -0.0903618860 -1 -1
-0.1022891070 -0.0889426910 -1 -1
-0.1016298180 -0.0884177980 -1 -1
-0.1006545570 -0.0888278650 -1 -1
-0.0994485040 -0.0901170030 -1 -1
-0.0981251710 -0.0921393850 -1 -1
-0.0968134350 -0.0946750050 -1 -1
-0.0956414320 -0.0974517950 -1 -1
-0.0947205990 -0.1001724640 -1 -1
-0.0941334710 -0.1025439960 -1 -1
-0.0939266070 -0.1043064250 -1 -1
-0.0941078880 -0.1052585130 -1 -1
-0.0946478420 -0.1052790800 -1 -1
-0.0954848160 -0.1043410970 -1 -1
-0.0965328820 -0.1025152310 -1 -1
-0.0976913650 -0.0999625890 -1 -1
-0.0988554400 -0.0969191930 -1 -1
-0.0999260560 -0.0936741000 -1 -1
-0.1008171140 -0.0905416880 -1 -1
-0.1014598420 -0.0878295450 -1 -1
-0.1018061280 -0.0858057460 -1 -1
-0.1018322290 -0.0846702760 -1 -1
-0.1015423700 -0.0845343880 -1 -1
-0.1009698820 -0.0854096710 -1 -1
-0.1001742060 -0.0872067720 -1 -1
-0.0992342320 -0.0897431850 -1 -1
-0.0982396170 -0.0927599920 -1 -1
-0.0972819960 -0.0959472120 -1 -1
-0.0964475310 -0.0989757640 -1 -1
-0.0958106170 -0.1015324830 -1 -1
-0.0954276200 -0.1033539190 -1 -1
-0.0953303830 -0.1042541600 -1 -1
-0.0955207660 -0.1041424090 -1 -1
-0.0959682270 -0.1030285690 -1 -1
-0.0966117420 -0.1010177210 -1 -1
-0.0973656820 -0.0982956730 -1 -1
-0.0981284990 -0.0951083300 -1 -1
-0.0987932000 -0.0917376220 -1 -1
-0.0992587020 -0.0884761490 -1 -1
-0.0994412150 -0.0856028920 -1 -1
-0.0992848810 -0.0833615420 -1 -1
-0.0987702860 -0.0819409440 -1 -1
-0.0979185530 -0.0814571350 -1 -1
-0.0967892130 -0.0819394970 -1 -1
-0.0954721840 -0.0833247700 -1 -1
-0.0940759670 -0.0854594860 -1 -1
-0.0927147800 -0.0881094450 -1 -1
-0.0914973850 -0.0909782760 -1 -1
-0.0905192340 -0.0937378060 -1 -1
-0.0898569740 -0.0960667700 -1 -1
-0.0895633740 -0.0976891090 -1 -1
-0.0896622900 -0.0984041210 -1 -1
-0.0901449470 -0.0981045550 -1 -1
-0.0909692310 -0.0967820680 -1 -1
-0.0920626920 -0.0945222800 -1 -1
-0.0933287640 -0.0914939080 -1 -1
-0.0946555380 -0.0879353890 -1 -1
-0.0959265050 -0.0841378840 -1 -1
-0.0970325550 -0.0804217160 -1 -1
-0.0978839780 -0.0771071120 -1 -1
-0.0984202150 -0.0744836300 -1 -1
-0.0986153800 -0.0727812300 -1 -1
-0.0984796340 -0.0721441350 -1 -1
-0.0980576440 -0.0726111120 -1 -1
-0.0974241510 -0.0741087400 -1 -1
-0.0966757110 -0.0764612160 -1 -1
-0.0959194720 -0.0794133200 -1 -1
-0.0952619920 -0.0826595920 -1 -1
-0.0947999950 -0.0858744670 -1 -1
-0.0946123760 -0.0887416780 -1 -1
-0.0947529130 -0.0909827010 -1 -1
-0.0952442840 -0.0923827150 -1 -1
-0.0960741730 -0.0928109030 -1 -1
-0.0971945610 -0.0922320320 -1 -1
-0.0985256910 -0.0907079840 -1 -1
-0.0999646590 -0.0883908210 -1 -1
-0.1013960370 -0.0855096950 -1 -1
-0.1027014260 -0.0823510170 -1 -1
-0.1037672780 -0.0792305300 -1 -1
-0.1044927160 -0.0764602950 -1 -1
-0.1047985470 -0.0743167880 -1 -1
-0.1046365320 -0.0730138530 -1 -1
-0.1039972680 -0.0726811390 -1 -1
-0.1029149470 -0.0733498900 -1 -1
-0.1014667150 -0.0749497450 -1 -1
-0.0997651150 -0.0773179900 -1 -1
-0.0979448900 -0.0802192790 -1 -1
-0.0961476430 -0.0833725780 -1 -1
-0.0945073060 -0.0864813920 -1 -1
-0.0931381620 -0.0892624520 -1 -1
-0.0921263570 -0.0914700970 -1 -1
-0.0915245550 -0.0929167250 -1 -1
-0.0913488090 -0.0934893020 -1 -1
-0.0915779380 -0.0931597880 -1 -1
-0.0921564020 -0.0919878270 -1 -1
-0.0930003130 -0.0901157970 -1 -1
-0.0940050020 -0.0877562110 -1 -1
-0.0950534550 -0.0851708010 -1 -1
-0.0960264480 -0.0826429820 -1 -1
-0.0968145820 -0.0804487010 -1 -1
-0.0973303550 -0.0788301120 -1 -1
-0.0975180260 -0.0779730310 -1 -1
-0.0973601110 -0.0779878510 -1 -1
-0.0968793500 -0.0788958250 -1 -1
-0.0961353530 -0.0806247420 -1 -1
-0.0952170050 -0.0830163220 -1 -1
-0.0942322250 -0.0858434610 -1 -1
-0.0932952090 -0.0888337210 -1 -1
-0.0925115310 -0.0916961730 -1 -1
-0.0919637190 -0.0941488520 -1 -1
-0.0917006610 -0.0959443730 -1 -1
-0.0917328230 -0.0968928750 -1 -1
-0.0920335240 -0.0968815470 -1 -1
-0.0925451230 -0.0958884320 -1 -1
-0.0931881270 -0.0939880710 -1 -1
-0.0938711350 -0.0913478770 -1 -1
-0.0944999680 -0.0882144990 -1 -1
-0.0949854280 -0.0848895480 -1 -1
-0.0952500970 -0.0816964850 -1 -1
-0.0952346490 -0.0789440320 -1 -1
-0.0949031890 -0.0768927120 -1 -1
-0.0942462320 -0.0757290150 -1 -1
-0.0932805580 -0.0755485990 -1 -1
-0.0920472090 -0.0763489190 -1 -1
-0.0906093360 -0.0780320690 -1 -1
-0.0890499830 -0.0804172090 -1 -1
-0.0874683770 -0.0832596280 -1 -1
-0.0859732920 -0.0862741640 -1 -1
-0.0846733340 -0.0891617600 -1 -1
-0.0836656200 -0.0916371390 -1 -1
-0.0830249570 -0.0934552060 -1 -1
-0.0827951010 -0.0944341240 -1 -1
-0.0829832350 -0.0944727700 -1 -1
-0.0835585920 -0.0935609020 -1 -1
-0.0844557200 -0.0917817770 -1 -1
-0.0855824210 -0.0893064080 -1 -1
-0.0868311030 -0.0863774280 -1 -1
-0.0880909260 -0.0832825970 -1 -1
-0.0892586210 -0.0803231890 -1 -1
-0.0902474490 -0.0777846760 -1 -1
-0.0909940920 -0.0759130620 -1 -1
-0.0914630630 -0.0748949510 -1 -1
-0.0916487680 -0.0748399340 -1 -1
-0.0915753890 -0.0757678180 -1 -1
-0.0912938810 -0.0776044880 -1 -1
-0.0908756320 -0.0801875970 -1 -1
-0.0904037840 -0.0832814590 -1 -1
-0.0899638610 -0.0866003760 -1 -1
-0.0896350300 -0.0898378880 -1 -1
-0.0894832860 -0.0926963500 -1 -1
-0.0895573360 -0.0949122200 -1 -1
-0.0898862380 -0.0962771700 -1 -1
-0.0904771050 -0.0966570340 -1 -1
-0.0913126580 -0.0960080480 -1 -1
-0.0923501750 -0.0943869240 -1 -1
-0.0935238960 -0.0919507690 -1 -1
-0.0947515480 -0.0889438560 -1 -1
-0.0959432890 -0.0856711730 -1 -1
-0.0970106060 -0.0824637640 -1 -1
-0.0978738050 -0.0796431970 -1 -1
-0.0984679700 -0.0774896150 -1 -1
-0.0987477830 -0.0762140530 -1 -1
-0.0986915600 -0.0759352220 -1 -1
-0.0983047470 -0.0766641300 -1 -1
-0.0976224340 -0.0783020700 -1 -1
-0.0967089630 -0.0806531300 -1 -1
-0.0956524330 -0.0834469940 -1 -1
-0.0945537480 -0.0863675540 -1 -1
-0.0935121660 -0.0890847920 -1 -1
-0.0926114080 -0.0912882890 -1 -1
-0.0919110080 -0.0927204090 -1 -1
-0.0914444380 -0.0932049820 -1 -1
-0.0912213430 -0.0926664720 -1 -1
-0.0912305320 -0.0911365550 -1 -1
-0.0914425550 -0.0887470850 -1 -1
-0.0918122920 -0.0857116480 -1 -1
-0.0922822400 -0.0823020350 -1 -1
-0.0927866700 -0.0788240710 -1 -1
-0.0932566600 -0.0755922290 -1 -1
-0.0936261580 -0.0729028640 -1 -1
-0.0938389010 -0.0710083090 -1 -1
-0.0938556310 -0.0700935650 -1 -1
-0.0936606350 -0.0702567880 -1 -1
-0.0932657680 -0.0714961410 -1 -1
-0.0927100320 -0.0737066620 -1 -1
-0.0920547630 -0.0766890720 -1 -1
-0.0913763840 -0.0801684850 -1 -1
-0.0907583670 -0.0838200280 -1 -1
-0.0902829180 -0.0873003930 -1 -1
-0.0900221780 -0.0902835830 -1 -1
-0.0900287190 -0.0924954550 -1 -1
-0.0903268250 -0.0937408090 -1 -1
-0.0909074490 -0.0939200120 -1 -1
-0.0917281630 -0.0930355480 -1 -1
-0.0927169700 -0.0911895070 -1 -1
-0.0937787900 -0.0885721590 -1 -1
-0.0948045930 -0.0854420730 -1 -1
-0.0956832190 -0.0820997340 -1 -1
-0.0963147300 -0.0788578460 -1 -1
-0.0966229730 -0.0760120040 -1 -1
-0.0965651270 -0.0738152820 -1 -1
-0.0961374370 -0.0724583350 -1 -1
-0.0953770580 -0.0720540400 -1 -1
-0.0943592600 -0.0726261790 -1 -1
-0.0931896580 -0.0741043820 -1 -1
-0.0919927740 -0.0763279950 -1 -1
-0.0908989530 -0.0790599640 -1 -1
-0.0900313940 -0.0820103220 -1 -1
-0.0894948320 -0.0848672810 -1 -1
-0.0893667310 -0.0873317950 -1 -1
-0.0896911740 -0.0891495680 -1 -1
-0.0904751690 -0.0901357000 -1 -1
-0.0916868000 -0.0901915000 -1 -1
-0.0932554300 -0.0893147590 -1 -1
-0.0950758670 -0.0876017640 -1 -1
-0.0970179720 -0.0852375610 -1 -1
-0.0989402420 -0.0824745210 -1 -1
-0.1007043480 -0.0796033900 -1 -1
-0.1021887300 -0.0769216790 -1 -1
-0.1033006640 -0.0747035340 -1 -1
-0.1039852670 -0.0731742120 -1 -1
-0.1042291240 -0.0724904890 -1 -1
-0.1040579640 -0.0727271070 -1 -1
-0.1035300210 -0.0738692920 -1 -1
-0.1027270640 -0.0758123850 -1 -1
-0.1017451450 -0.0783707600 -1 -1
-0.1006867430 -0.0812967750 -1 -1
-0.0996543160 -0.0843072880 -1 -1
-0.0987437930 -0.0871129540 -1 -1
-0.0980375890 -0.0894453260 -1 -1
-0.0975984350 -0.0910791000 -1 -1
-0.0974646750 -0.0918501320 -1 -1
-0.0976463840 -0.0916703890 -1 -1
-0.0981228360 -0.0905386700 -1 -1
-0.0988441230 -0.0885440300 -1 -1
-0.0997383100 -0.0858599890 -1 -1
-0.1007215550 -0.0827298170 -1 -1
-0.1017075900 -0.0794439970 -1 -1
-0.1026154510 -0.0763116730 -1 -1
-0.1033760480 -0.0736297120 -1 -1
-0.1039380140 -0.0716535050 -1 -1
-0.1042724720 -0.0705713340 -1 -1
-0.1043760860 -0.0704829950 -1 -1
-0.1042719100 -0.0713865310 -1 -1
-0.1040075900 -0.0731791660 -1 -1
-0.1036505680 -0.0756730760 -1 -1
-0.1032804930 -0.0786186690 -1 -1
-0.1029796080 -0.0817289490 -1 -1
-0.1028227490 -0.0847053990 -1 -1
-0.1028689470 -0.0872663700 -1 -1
-0.1031553740 -0.0891734000 -1 -1
-0.1036931500 -0.0902501220 -1 -1
-0.1044649860 -0.0903933090 -1 -1
-0.1054254090 -0.0895794180 -1 -1
-0.1065044860 -0.0878694790 -1 -1
-0.1076151980 -0.0854104640 -1 -1
-0.1086631690 -0.0824274770 -1 -1
-0.1095565730 -0.0792041330 -1 -1
-0.1102148810 -0.0760540670 -1 -1
-0.1105761320 -0.0732880920 -1 -1
-0.1106026330 -0.0711811050 -1 -1
-0.1102850330 -0.0699423350 -1 -1
-0.1096444960 -0.0696911370 -1 -1
-0.1087325450 -0.0704412770 -1 -1
-0.1076278100 -0.0720990710 -1 -1
-0.1064290070 -0.0744781320 -1 -1
-0.1052447340 -0.0773257210 -1 -1
-0.1041823780 -0.0803521290 -1 -1
-0.1033383570 -0.0832579630 -1 -1
-0.1027904180 -0.0857588760 -1 -1
-0.1025912640 -0.0876087800 -1 -1
-0.1027626590 -0.0886215710 -1 -1
-0.1032904290 -0.0886896180 -1 -1
-0.1041226540 -0.0877960830 -1 -1
-0.1051729860 -0.0860187980 -1 -1
-0.1063290220 -0.0835251370 -1 -1
-0.1074646540 -0.0805573000 -1 -1
-0.1084551480 -0.0774077090 -1 -1
-0.1091924730 -0.0743875310 -1 -1
-0.1095974320 -0.0717943970 -1 -1
-0.1096262950 -0.0698837240 -1 -1
-0.1092721650 -0.0688448510 -1 -1
-0.1085628760 -0.0687830440 -1 -1
-0.1075566200 -0.0697089750 -1 -1
-0.1063354180 -0.0715370200 -1 -1
-0.1049964380 -0.0740931600 -1 -1
-0.1036420380 -0.0771319820 -1 -1
-0.1023704340 -0.0803608330 -1 -1
-0.1012685580 -0.0834687060 -1 -1
-0.1004072360 -0.0861570260 -1 -1
-0.0998377630 -0.0881695190 -1 -1
-0.0995886900 -0.0893186240 -1 -1
-0.0996622010 -0.0895055500 -1 -1
-0.1000310460 -0.0887309190 -1 -1
-0.1006381680 -0.0870941960 -1 -1
-0.1014007820 -0.0847817800 -1 -1
-0.1022188340 -0.0820454780 -1 -1
-0.1029857500 -0.0791746450 -1 -1
-0.1035993200 -0.0764657460 -1 -1
-0.1039718510 -0.0741923310 -1 -1
-0.1040390350 -0.0725780060 -1 -1
-0.1037667720 -0.0717749590 -1 -1
-0.1031556050 -0.0718499810 -1 -1
-0.1022422010 -0.0727789800 -1 -1
-0.1010964760 -0.0744503180 -1 -1
-0.0998138540 -0.0766764490 -1 -1
-0.0985041180 -0.0792128850 -1 -1
-0.0972786350 -0.0817828450 -1 -1
-0.0962372870 -0.0841043020 -1 -1
-0.0954568280 -0.0859162110 -1 -1
-0.0949825300 -0.0870029000 -1 -1
-0.0948240170 -0.0872158420 -1 -1
-0.0949555010 -0.0864903640 -1 -1
-0.0953202010 -0.0848544310 -1 -1
-0.0958379790 -0.0824275880 -1 -1
-0.0964149950 -0.0794098240 -1 -1
-0.0969541320 -0.0760622090 -1 -1
-0.0973647950 -0.0726816370 -1 -1
-0.0975711870 -0.0695718630 -1 -1
-0.0975187380 -0.0670144710 -1 -1
-0.0971782540 -0.0652431360 -1 -1
-0.0965475340 -0.0644223630 -1 -1
-0.0956505000 -0.0646319550 -1 -1
-0.0945338420 -0.0658592140 -1 -1
-0.0932618650 -0.0679994970 -1 -1
-0.0919115810 -0.0708649600 -1 -1
-0.0905690220 -0.0742012060 -1 -1
-0.0893248890 -0.0777102370 -1 -1
-0.0882669520 -0.0810773660 -1 -1
-0.0874693600 -0.0840006240 -1 -1
-0.0869821750 -0.0862204310 -1 -1
-0.0868246110 -0.0875451390 -1 -1
-0.0869830250 -0.0878683150 -1 -1
-0.0874128550 -0.0871769250 -1 -1
-0.0880435560 -0.0855514170 -1 -1
-0.0887859960 -0.0831580460 -1 -1
-0.0895415070 -0.0802338100 -1 -1
-0.0902116050 -0.0770652760 -1 -1
-0.0907073810 -0.0739624140 -1 -1
-0.0909578920 -0.0712294420 -1 -1
-0.0909178150 -0.0691361970 -1 -1
-0.0905747430 -0.0678927260 -1 -1
-0.0899544670 -0.0676278800 -1 -1
-0.0891214910 -0.0683734050 -1 -1
-0.0881732380 -0.0700571860 -1 -1
-0.0872281000 -0.0725090640 -1 -1
-0.0864095460 -0.0754794600 -1 -1
-0.0858301270 -0.0786673000 -1 -1
-0.0855786390 -0.0817522040 -1 -1
-0.0857116960 -0.0844271990 -1 -1
-0.0862497720 -0.0864294140 -1 -1
-0.0871773590 -0.0875652110 -1 -1
-0.0884463730 -0.0877270880 -1 -1
-0.0899813650 -0.0869027710 -1 -1
-0.0916855330 -0.0851767590 -1 -1
-0.0934476670 -0.0827228850 -1 -1
-0.0951507860 -0.0797874350 -1 -1
-0.0966828240 -0.0766642160 -1 -1
-0.0979482910 -0.0736639600 -1 -1
-0.0988783610 -0.0710818710 -1 -1
-0.0994369990 -0.0691683530 -1 -1
-0.0996224840 -0.0681064140 -1 -1
-0.0994652180 -0.0679960180 -1 -1
-0.0990233480 -0.0688450190 -1 -1
-0.0983777940 -0.0705678380 -1 -1
-0.0976269960 -0.0729930220 -1 -1
-0.0968798410 -0.0758793160 -1 -1
-0.0962452680 -0.0789388470 -1 -1
-0.0958196870 -0.0818652370 -1 -1
-0.0956756480 -0.0843640060 -1 -1
-0.0958544570 -0.0861826440 -1 -1
-0.0963631250 -0.0871366190 -1 -1
-0.0971748190 -0.0871273330 -1 -1
-0.0982320520 -0.0861508350 -1 -1
-0.0994520110 -0.0842978610 -1 -1
-0.1007335010 -0.0817442510 -1 -1
-0.1019650430 -0.0787315520 -1 -1
-0.1030338940 -0.0755415930 -1 -1
-0.1038361570 -0.0724692230 -1 -1
-0.1042873070 -0.0697949150 -1 -1
-0.1043310370 -0.0677581350 -1 -1
-0.1039444980 -0.0665338300 -1 -1
-0.1031400280 -0.0662161650 -1 -1
-0.1019651190 -0.0668118650 -1 -1
-0.1005013430 -0.0682414310 -1 -1
-0.0988603670 -0.0703458150 -1 -1
-0.0971747990 -0.0728988590 -1 -1
-0.0955839230 -0.0756262850 -1 -1
-0.0942164110 -0.0782300490 -1 -1
-0.0931733510 -0.0804163390 -1 -1
-0.0925157570 -0.0819257340 -1 -1
-0.0922591540 -0.0825623890 -1 -1
-0.0923747440 -0.0822179790 -1 -1
-0.0927953260 -0.0808865610 -1 -1
-0.0934246560 -0.0786677030 -1 -1
-0.0941493850 -0.0757578100 -1 -1
-0.0948522340 -0.0724310980 -1 -1
-0.0954245070 -0.0690117300 -1 -1
-0.0957763110 -0.0658398280 -1 -1
-0.0958434660 -0.0632351980 -1 -1
-0.0955907090 -0.0614626680 -1 -1
-0.0950117830 -0.0607030170 -1 -1
-0.0941279570 -0.0610334350 -1 -1
-0.0929860510 -0.0624205690 -1 -1
-0.0916556890 -0.0647270600 -1 -1
-0.0902251810 -0.0677290070 -1 -1
-0.0887956600 -0.0711398990 -1 -1
-0.0874725180 -0.0746381170 -1 -1
-0.0863538240 -0.0778973970 -1 -1
-0.0855175860 -0.0806187580 -1 -1
-0.0850110750 -0.0825601090 -1 -1
-0.0848446880 -0.0835595430 -1 -1
-0.0849910800 -0.0835502020 -1 -1
-0.0853888290 -0.0825658500 -1 -1
-0.0859497050 -0.0807362240 -1 -1
-0.0865684770 -0.0782720420 -1 -1
-0.0871336470 -0.0754418300 -1 -1
-0.0875381210 -0.0725443010 -1 -1
-0.0876898580 -0.0698795660 -1 -1
-0.0875217760 -0.0677209000 -1 -1
-0.0869990990 -0.0662880770 -1 -1
-0.0861232610 -0.0657239290 -1 -1
-0.0849327400 -0.0660777780 -1 -1
-0.0835001290 -0.0673010250 -1 -1
-0.0819236960 -0.0692575500 -1 -1
-0.0803143780 -0.0717449980 -1 -1
-0.0787826300 -0.0745190060 -1 -1
-0.0774288740 -0.0773150980 -1 -1
-0.0763377760 -0.0798689030 -1 -1
-0.0755744540 -0.0819376730 -1 -1
-0.0751809780 -0.0833227380 -1 -1
-0.0751728220 -0.0838884830 -1 -1
-0.0755360960 -0.0835741770 -1 -1
-0.0762267360 -0.0823987500 -1 -1
-0.0771722520 -0.0804600290 -1 -1
-0.0782760730 -0.0779286560 -1 -1
-0.0794245650 -0.0750353040 -1 -1
-0.0804967200 -0.0720499850 -1 -1
-0.0813758780 -0.0692554710 -1 -1
-0.0819618410 -0.0669188820 -1 -1
-0.0821813730 -0.0652625460 -1 -1
-0.0819961820 -0.0644364020 -1 -1
-0.0814086560 -0.0645014300 -1 -1
-0.0804650070 -0.0654302460 -1 -1
-0.0792533440 -0.0671184020 -1 -1
-0.0778943030 -0.0693973460 -1 -1
-0.0765253920 -0.0720472880 -1 -1
-0.0752832030 -0.0748131060 -1 -1
-0.0742872700 -0.0774256380 -1 -1
-0.0736276530 -0.0796266040 -1 -1
-0.0733575170 -0.0811930530 -1 -1
-0.0734912320 -0.0819587830 -1 -1
-0.0740069480 -0.0818317050 -1 -1
-0.0748510600 -0.0808053190 -1 -1
-0.0759428060 -0.0789619480 -1 -1
-0.0771799420 -0.0764665250 -1 -1
-0.0784471410 -0.0735512530 -1 -1
-0.0796267260 -0.0704924780 -1 -1
-0.0806101840 -0.0675825530 -1 -1
-0.0813096210 -0.0651007350 -1 -1
-0.0816684390 -0.0632857290 -1 -1
-0.0816695870 -0.0623105670 -1 -1
-0.0813394060 -0.0622623420 -1 -1
-0.0807462040 -0.0631318940 -1 -1
-0.0799933090 -0.0648164240 -1 -1
-0.0792067070 -0.0671330020 -1 -1
-0.0785187450 -0.0698382480 -1 -1
-0.0780512730 -0.0726511170 -1 -1
-0.0779016640 -0.0752786540 -1 -1
-0.0781334420 -0.0774444930 -1 -1
-0.0787717210 -0.0789170040 -1 -1
-0.0798032390 -0.0795328300 -1 -1
-0.0811801790 -0.0792133210 -1 -1
-0.0828261330 -0.0779727290 -1 -1
-0.0846425730 -0.0759168270 -1 -1
-0.0865156000 -0.0732314980 -1 -1
-0.0883236860 -0.0701635480 -1 -1
-0.0899465640 -0.0669974320 -1 -1
-0.0912749010 -0.0640297790 -1 -1
-0.0922202610 -0.0615425250 -1 -1
-0.0927241950 -0.0597766590 -1 -1
-0.0927650560 -0.0589087060 -1 -1
-0.0923616380 -0.0590314180 -1 -1
-0.0915731210 -0.0601411450 -1 -1
-0.0904950280 -0.0621351350 -1 -1
-0.0892511800 -0.0648202440 -1 -1
-0.0879820040 -0.0679319020 -1 -1
-0.0868301080 -0.0711603200 -1 -1
-0.0859244490 -0.0741813690 -1 -1
-0.0853650820 -0.0766902460 -1 -1
-0.0852112280 -0.0784342080 -1 -1
-0.0854747930 -0.0792390980 -1 -1
-0.0861197250 -0.0790257340 -1 -1
-0.0870665310 -0.0778144060 -1 -1
-0.0882013880 -0.0757184260 -1 -1
-0.0893892940 -0.0729302900 -1 -1
-0.0904897980 -0.0697038080 -1 -1
-0.0913724230 -0.0663324200 -1 -1
-0.0919288360 -0.0631225840 -1 -1
-0.0920809730 -0.0603642920 -1 -1
-0.0917864380 -0.0583030290 -1 -1
-0.0910421410 -0.0571151350 -1 -1
-0.0898853480 -0.0568882760 -1 -1
-0.0883906620 -0.0576115160 -1 -1
-0.0866626700 -0.0591780790 -1 -1
-0.0848255860 -0.0613986230 -1 -1
-0.0830120390 -0.0640209450 -1 -1
-0.0813520940 -0.0667539100 -1 -1
-0.0799621240 -0.0692948900 -1 -1
-0.0789336260 -0.0713590940 -1 -1
-0.0783232020 -0.0727080760 -1 -1
-0.0781449720 -0.0731746090 -1 -1
-0.0783668310 -0.0726810890 -1 -1
-0.0789124840 -0.0712487280 -1 -1
-0.0796708560 -0.0689961570 -1 -1
-0.0805117350 -0.0661279920 -1 -1
-0.0813030520 -0.0629149100 -1 -1
-0.0819248390 -0.0596669000 -1 -1
-0.0822782580 -0.0567020820 -1 -1
-0.0822909680 -0.0543149680 -1 -1
-0.0819206530 -0.0527472300 -1 -1
-0.0811578630 -0.0521621460 -1 -1
-0.0800284150 -0.0526254060 -1 -1
-0.0785946470 -0.0540975690 -1 -1
-0.0769531640 -0.0564408470 -1 -1
-0.0752260300 -0.0594372140 -1 -1
-0.0735450870 -0.0628118620 -1 -1
-0.0720337170 -0.0662576230 -1 -1
-0.0707919600 -0.0694600580 -1 -1
-0.0698880420 -0.0721250710 -1 -1
-0.0693556990 -0.0740082750 -1 -1
-0.0691955160 -0.0749414090 -1 -1
-0.0693786810 -0.0748497740 -1 -1
-0.0698516760 -0.0737575220 -1 -1
-0.0705414280 -0.0717824940 -1 -1
-0.0713615240 -0.0691238770 -1 -1
-0.0722197500 -0.0660437340 -1 -1
-0.0730264770 -0.0628426750 -1 -1
-0.0737031470 -0.0598317950 -1 -1
-0.0741898430 -0.0573042610 -1 -1
-0.0744508330 -0.0555091580 -1 -1
-0.0744771670 -0.0546289330 -1 -1
-0.0742858330 -0.0547609400 -1 -1
-0.0739157220 -0.0559042030 -1 -1
-0.0734217620 -0.0579542090 -1 -1
-0.0728691970 -0.0607091110 -1 -1
-0.0723288730 -0.0638887710 -1 -1
-0.0718728930 -0.0671651120 -1 -1
-0.0715697210 -0.0701997770 -1 -1
-0.0714779680 -0.0726827490 -1 -1
-0.0716390580 -0.0743648720 -1 -1
-0.0720707030 -0.0750799920 -1 -1
-0.0727632750 -0.0747571060 -1 -1
-0.0736797100 -0.0734249400 -1 -1
-0.0747582910 -0.0712096360 -1 -1
-0.0759175050 -0.0683244120 -1 -1
-0.0770629660 -0.0650497170 -1 -1
-0.0780963180 -0.0617035980 -1 -1
-0.0789251210 -0.0586059110 -1 -1
-0.0794731400 -0.0560443420 -1 -1
-0.0796908520 -0.0542488520 -1 -1
-0.0795639690 -0.0533749360 -1 -1
-0.0791166740 -0.0534921310 -1 -1
-0.0784084160 -0.0545764010 -1 -1
-0.0775254640 -0.0565097220 -1 -1
-0.0765697940 -0.0590904040 -1 -1
-0.0756485910 -0.0620531720 -1 -1
-0.0748661250 -0.0650957840 -1 -1
-0.0743165290 -0.0679094780 -1 -1
-0.0740752930 -0.0702096310 -1 -1
-0.0741895960 -0.0717628950 -1 -1
-0.0746700610 -0.0724101360 -1 -1
-0.0754865710 -0.0720843750 -1 -1
-0.0765690480 -0.0708190800 -1 -1
-0.0778137510 -0.0687435120 -1 -1
-0.0790957120 -0.0660675440 -1 -1
-0.0802851790 -0.0630594870 -1 -1
-0.0812638600 -0.0600177390 -1 -1
-0.0819383980 -0.0572384650 -1 -1
-0.0822503160 -0.0549851790 -1 -1
-0.0821810560 -0.0534647960 -1 -1
-0.0817507390 -0.0528111680 -1 -1
-0.0810115790 -0.0530758460 -1 -1
-0.0800388830 -0.0542247320 -1 -1
-0.0789224810 -0.0561399360 -1 -1
-0.0777600860 -0.0586287360 -1 -1
-0.0766514290 -0.0614396350 -1 -1
-0.0756906270 -0.0642835090 -1 -1
-0.0749570040 -0.0668603640 -1 -1
-0.0745072590 -0.0688912540 -1 -1
-0.0743708610 -0.0701508100 -1 -1
-0.0745485210 -0.0704947120 -1 -1
-0.0750131720 -0.0698766180 -1 -1
-0.0757129000 -0.0683512320 -1 -1
-0.0765754740 -0.0660644810 -1 -1
-0.0775149480 -0.0632338180 -1 -1
-0.0784405500 -0.0601226440 -1 -1
-0.0792656920 -0.0570139000 -1 -1
-0.0799137970 -0.0541861430 -1 -1
-0.0803204570 -0.0518922710 -1 -1
-0.0804352510 -0.0503402950 -1 -1
-0.0802263970 -0.0496761730 -1 -1
-0.0796872140 -0.0499694160 -1 -1
-0.0788407630 -0.0512037100 -1 -1
-0.0777405550 -0.0532756810 -1 -1
-0.0764675460 -0.0560029850 -1 -1
-0.0751243700 -0.0591400270 -1 -1
-0.0738271840 -0.0623992130 -1 -1
-0.0726949410 -0.0654770580 -1 -1
-0.0718358750 -0.0680837510 -1 -1
-0.0713323490 -0.0699725000 -1 -1
-0.0712273830 -0.0709648930 -1 -1
-0.0715173910 -0.0709698770 -1 -1
-0.0721539660 -0.0699942080 -1 -1
-0.0730539070 -0.0681426580 -1 -1
-0.0741134450 -0.0656075460 -1 -1
-0.0752224460 -0.0626485800 -1 -1
-0.0762764920 -0.0595657430 -1 -1
-0.0771864030 -0.0566688170 -1 -1
-0.0778846310 -0.0542466620 -1 -1
-0.0783278570 -0.0525393830 -1 -1
-0.0784968380 -0.0517160210 -1 -1
-0.0783958320 -0.0518585930 -1 -1
-0.0780527670 -0.0529534070 -1 -1
-0.0775189900 -0.0548914480 -1 -1
-0.0768662210 -0.0574783360 -1 -1
-0.0761795170 -0.0604531140 -1 -1
-0.0755475490 -0.0635146230 -1 -1
-0.0750521960 -0.0663529570 -1 -1
-0.0747586350 -0.0686821650 -1 -1
-0.0747073710 -0.0702699750 -1 -1
-0.0749101190 -0.0709604330 -1 -1
-0.0753502400 -0.0706869180 -1 -1
-0.0759867580 -0.0694754450 -1 -1
-0.0767603560 -0.0674392740 -1 -1
-0.0775997040 -0.0647658980 -1 -1
-0.0784272060 -0.0616979200 -1 -1
-0.0791645370 -0.0585100920 -1 -1
-0.0797390400 -0.0554844280 -1 -1
-0.0800909940 -0.0528851060 -1 -1
-0.0801803350 -0.0509353310 -1 -1
-0.0799912780 -0.0497974090 -1 -1
-0.0795344220 -0.0495565400 -1 -1
-0.0788462330 -0.0502103090 -1 -1
-0.0779852110 -0.0516669380 -1 -1
-0.0770250530 -0.0537537340 -1 -1
-0.0760471120 -0.0562345930 -1 -1
-0.0751340610 -0.0588337540 -1 -1
-0.0743642790 -0.0612626720 -1 -1
-0.0738054540 -0.0632476340 -1 -1
-0.0735070640 -0.0645567460 -1 -1
