-0.0566370370 -0.0482245410 -1 -1
-0.0562021370 -0.0510466730 -1 -1
-0.0558185490 -0.0542547610 -1 -1
-0.0556024990 -0.0575554500 -1 -1
-0.0556504440 -0.0606445760 -1 -1
-0.0560286700 -0.0632383210 -1 -1
-0.0567657470 -0.0651009470 -1 -1
-0.0578487950 -0.0660664870 -1 -1
-0.0592240720 -0.0660518040 -1 -1
-0.0608017060 -0.0650598380 -1 -1
-0.0624641310 -0.0631755050 -1 -1
-0.0640776800 -0.0605587980 -1 -1
-0.0655061870 -0.0574364070 -1 -1
-0.0666248530 -0.0540873450 -1 -1
-0.0673328200 -0.0508183710 -1 -1
-0.0675632550 -0.0479319870 -1 -1
-0.0672896970 -0.0456945350 -1 -1
-0.0665278530 -0.0443098070 -1 -1
-0.0653335280 -0.0438993300 -1 -1
-0.0637978740 -0.0444893260 -1 -1
-0.0620397290 -0.0460068030 -1 -1
-0.0601945220 -0.0482871570 -1 -1
-0.0584008450 -0.0510913800 -1 -1
-0.0567871810 -0.0541288710 -1 -1
-0.0554607480 -0.0570846860 -1 -1
-0.0544990540 -0.0596516290 -1 -1
-0.0539443780 -0.0615640380 -1 -1
-0.0538018480 -0.0626262170 -1 -1
-0.0540413150 -0.0627302580 -1 -1
-0.0546015920 -0.0618632350 -1 -1
-0.0553951810 -0.0601062320 -1 -1
-0.0563133150 -0.0576265210 -1 -1
-0.0572329860 -0.0546627520 -1 -1
-0.0580272140 -0.0515030680 -1 -1
-0.0585778570 -0.0484570890 -1 -1
-0.0587888670 -0.0458244980 -1 -1
-0.0585976550 -0.0438649190 -1 -1
-0.0579826570 -0.0427735260 -1 -1
-0.0569659680 -0.0426638440 -1 -1
-0.0556106120 -0.0435574790 -1 -1
-0.0540122970 -0.0453818120 -1 -1
-0.0522865290 -0.0479769370 -1 -1
-0.0505541020 -0.0511106960 -1 -1
-0.0489284490 -0.0544987280 -1 -1
-0.0475063960 -0.0578283120 -1 -1
-0.0463620180 -0.0607869070 -1 -1
-0.0455431140 -0.0630938680 -1 -1
-0.0450697000 -0.0645304520 -1 -1
-0.0449332230 -0.0649632140 -1 -1
-0.0450959380 -0.0643569290 -1 -1
-0.0454921900 -0.0627754890 -1 -1
-0.0460341220 -0.0603733210 -1 -1
-0.0466218650 -0.0573801040 -1 -1
-0.0471553710 -0.0540791720 -1 -1
-0.0475454650 -0.0507813700 -1 -1
-0.0477235370 -0.0477967770 -1 -1
-0.0476491670 -0.0454043870 -1 -1
-0.0473141700 -0.0438216270 -1 -1
-0.0467423210 -0.0431804420 -1 -1
-0.0459854450 -0.0435150250 -1 -1
-0.0451171070 -0.0447605650 -1 -1
-0.0442245860 -0.0467604080 -1 -1
-0.0433992670 -0.0492802400 -1 -1
-0.0427264540 -0.0520297360 -1 -1
-0.0422768700 -0.0546930600 -1 -1
-0.0421015980 -0.0569659100 -1 -1
-0.0422303950 -0.0585919440 -1 -1
-0.0426714920 -0.0593917270 -1 -1
-0.0434106890 -0.0592803530 -1 -1
-0.0444094980 -0.0582723450 -1 -1
-0.0456045680 -0.0564751180 -1 -1
-0.0469112460 -0.0540739680 -1 -1
-0.0482322560 -0.0513114900 -1 -1
-0.0494697240 -0.0484635290 -1 -1
-0.0505375280 -0.0458137710 -1 -1
-0.0513714060 -0.0436294180 -1 -1
-0.0519349840 -0.0421388180 -1 -1
-0.0522209550 -0.0415106660 -1 -1
-0.0522484770 -0.0418364970 -1 -1
-0.0520589320 -0.0431195750 -1 -1
-0.0517113350 -0.0452715690 -1 -1
-0.0512773790 -0.0481173100 -1 -1
-0.0508357260 -0.0514086980 -1 -1
-0.0504652690 -0.0548479340 -1 -1
-0.0502375530 -0.0581176620 -1 -1
-0.0502091480 -0.0609145340 -1 -1
-0.0504151230 -0.0629821900 -1 -1
-0.0508650790 -0.0641385390 -1 -1
-0.0515426370 -0.0642932170 -1 -1
-0.0524076990 -0.0634541720 -1 -1
-0.0534000410 -0.0617239740 -1 -1
-0.0544433910 -0.0592875590 -1 -1
-0.0554500330 -0.0563941260 -1 -1
-0.0563267760 -0.0533352690 -1 -1
-0.0569838960 -0.0504200480 -1 -1
-0.0573476040 -0.0479473100 -1 -1
-0.0573732410 -0.0461758920 -1 -1
-0.0570545210 -0.0452954180 -1 -1
-0.0564259270 -0.0454034920 -1 -1
-0.0555582720 -0.0464945390 -1 -1
-0.0545493130 -0.0484618630 -1 -1
-0.0535121370 -0.0511114030 -1 -1
-0.0525634700 -0.0541833230 -1 -1
-0.0518127240 -0.0573776910 -1 -1
-0.0513514400 -0.0603833140 -1 -1
-0.0512427990 -0.0629090850 -1 -1
-0.0515128190 -0.0647140520 -1 -1
-0.0521466540 -0.0656311540 -1 -1
-0.0530918190 -0.0655821620 -1 -1
-0.0542666130 -0.0645837470 -1 -1
-0.0555701680 -0.0627446860 -1 -1
-0.0568917640 -0.0602542630 -1 -1
-0.0581189670 -0.0573631640 -1 -1
-0.0591451960 -0.0543593290 -1 -1
-0.0598778760 -0.0515413990 -1 -1
-0.0602473190 -0.0491920310 -1 -1
-0.0602144610 -0.0475534110 -1 -1
-0.0597754940 -0.0468062650 -1 -1
-0.0589632080 -0.0470519440 -1 -1
-0.0578450620 -0.0482987320 -1 -1
-0.0565170000 -0.0504562140 -1 -1
-0.0550930000 -0.0533405320 -1 -1
-0.0536927100 -0.0566907580 -1 -1
-0.0524300670 -0.0601943780 -1 -1
-0.0514041750 -0.0635184120 -1 -1
-0.0506921190 -0.0663429880 -1 -1
-0.0503431980 -0.0683950560 -1 -1
-0.0503748750 -0.0694781530 -1 -1
-0.0507711680 -0.0694929960 -1 -1
-0.0514837410 -0.0684463850 -1 -1
-0.0524357190 -0.0664494680 -1 -1
-0.0535282300 -0.0637063160 -1 -1
-0.0546493520 -0.0604923010 -1 -1
-0.0556850840 -0.0571243270 -1 -1
-0.0565318880 -0.0539283650 -1 -1
-0.0571084380 -0.0512073740 -1 -1
-0.0573632220 -0.0492111110 -1 -1
-0.0572774070 -0.0481118680 -1 -1
-0.0568650250 -0.0479884110 -1 -1
-0.0561713890 -0.0488178630 -1 -1
-0.0552690960 -0.0504784720 -1 -1
-0.0542515350 -0.0527666180 -1 -1
-0.0532241370 -0.0554243450 -1 -1
-0.0522938190 -0.0581685510 -1 -1
-0.0515580900 -0.0607154740 -1 -1
-0.0510951650 -0.0628008020 -1 -1
-0.0509553860 -0.0642004700 -1 -1
-0.0511549330 -0.0647551950 -1 -1
-0.0516733240 -0.0643936960 -1 -1
-0.0524551520 -0.0631451320 -1 -1
-0.0534157180 -0.0611362670 -1 -1
-0.0544497360 -0.0585759100 -1 -1
-0.0554416610 -0.0557314670 -1 -1
-0.0562765180 -0.0529013670 -1 -1
-0.0568510750 -0.0503852580 -1 -1
-0.0570850680 -0.0484539010 -1 -1
-0.0569306640 -0.0473226920 -1 -1
-0.0563780870 -0.0471321860 -1 -1
-0.0554569080 -0.0479361710 -1 -1
-0.0542331980 -0.0496975190 -1 -1
-0.0528023360 -0.0522926420 -1 -1
-0.0512782440 -0.0555233790 -1 -1
-0.0497813500 -0.0591334790 -1 -1
-0.0484271070 -0.0628282550 -1 -1
-0.0473153850 -0.0662979710 -1 -1
-0.0465211540 -0.0692451620 -1 -1
-0.0460878920 -0.0714143780 -1 -1
-0.0460246790 -0.0726212060 -1 -1
-0.0463064910 -0.0727750810 -1 -1
-0.0468768670 -0.0718896010 -1 -1
-0.0476527730 -0.0700779680 -1 -1
-0.0485317500 -0.0675372470 -1 -1
-0.0494008920 -0.0645276540 -1 -1
-0.0501467640 -0.0613505040 -1 -1
-0.0506659870 -0.0583237190 -1 -1
-0.0508759700 -0.0557522380 -1 -1
-0.0507240930 -0.0538955300 -1 -1
-0.0501940120 -0.0529394350 -1 -1
-0.0493088820 -0.0529775400 -1 -1
-0.0481303430 -0.0540020980 -1 -1
-0.0467510570 -0.0559036960 -1 -1
-0.0452813000 -0.0584814800 -1 -1
-0.0438339910 -0.0614654840 -1 -1
-0.0425126000 -0.0645482510 -1 -1
-0.0414036560 -0.0674195180 -1 -1
-0.0405733390 -0.0697983860 -1 -1
-0.0400658730 -0.0714596650 -1 -1
-0.0399012690 -0.0722528610 -1 -1
-0.0400726580 -0.0721140100 -1 -1
-0.0405453080 -0.0710707440 -1 -1
-0.0412584540 -0.0692394690 -1 -1
-0.0421299110 -0.0668131520 -1 -1
-0.0430632550 -0.0640407310 -1 -1
-0.0439567310 -0.0612018080 -1 -1
-0.0447126810 -0.0585794960 -1 -1
-0.0452465410 -0.0564329720 -1 -1
-0.0454947100 -0.0549725180 -1 -1
-0.0454208570 -0.0543405430 -1 -1
-0.0450209230 -0.0546006200 -1 -1
-0.0443264870 -0.0557344640 -1 -1
-0.0434042160 -0.0576449220 -1 -1
-0.0423495450 -0.0601632670 -1 -1
-0.0412758050 -0.0630616740 -1 -1
-0.0403015980 -0.0660724980 -1 -1
-0.0395383020 -0.0689131070 -1 -1
-0.0390786130 -0.0713129220 -1 -1
-0.0389869980 -0.0730395210 -1 -1
-0.0392928200 -0.0739215670 -1 -1
-0.0399864750 -0.0738669700 -1 -1
-0.0410193470 -0.0728749110 -1 -1
-0.0423085780 -0.0710394040 -1 -1
-0.0437461840 -0.0685414990 -1 -1
-0.0452108960 -0.0656299990 -1 -1
-0.0465812280 -0.0625947300 -1 -1
-0.0477485070 -0.0597370820 -1 -1
-0.0486283560 -0.0573407250 -1 -1
-0.0491689300 -0.0556438940 -1 -1
-0.0493546610 -0.0548148100 -1 -1
-0.0492056610 -0.0549334500 -1 -1
-0.0487740160 -0.0559833530 -1 -1
-0.0481379700 -0.0578546680 -1 -1
-0.0473945580 -0.0603566470 -1 -1
-0.0466510300 -0.0632369540 -1 -1
-0.0460150980 -0.0662063380 -1 -1
-0.0455837710 -0.0689677160 -1 -1
-0.0454317570 -0.0712470350 -1 -1
-0.0456021960 -0.0728212180 -1 -1
-0.0461023800 -0.0735390460 -1 -1
-0.0469050820 -0.0733334470 -1 -1
-0.0479539060 -0.0722255900 -1 -1
-0.0491701950 -0.0703215170 -1 -1
-0.0504597590 -0.0678018090 -1 -1
-0.0517195040 -0.0649051170 -1 -1
-0.0528450260 -0.0619069370 -1 -1
-0.0537396180 -0.0590951350 -1 -1
-0.0543239710 -0.0567438640 -1 -1
-0.0545452340 -0.0550878890 -1 -1
-0.0543839060 -0.0542996140 -1 -1
-0.0538571490 -0.0544709930 -1 -1
-0.0530178380 -0.0556012050 -1 -1
-0.0519497350 -0.0575908640 -1 -1
-0.0507597180 -0.0602473440 -1 -1
-0.0495676970 -0.0633056400 -1 -1
-0.0484945120 -0.0664610160 -1 -1
-0.0476487150 -0.0694041820 -1 -1
-0.0471142960 -0.0718530180 -1 -1
-0.0469418710 -0.0735791610 -1 -1
-0.0471451910 -0.0744286550 -1 -1
-0.0477028980 -0.0743353670 -1 -1
-0.0485635970 -0.0733257060 -1 -1
-0.0496522640 -0.0715139180 -1 -1
-0.0508771110 -0.0690887750 -1 -1
-0.0521368020 -0.0662936060 -1 -1
-0.0533279640 -0.0634017710 -1 -1
-0.0543531450 -0.0606896160 -1 -1
-0.0551291380 -0.0584097520 -1 -1
-0.0555948030 -0.0567675680 -1 -1
-0.0557170600 -0.0559029510 -1 -1
-0.0554941970 -0.0558789280 -1 -1
-0.0549560140 -0.0566778040 -1 -1
-0.0541602710 -0.0582032990 -1 -1
-0.0531854420 -0.0602875630 -1 -1
-0.0521210880 -0.0627032960 -1 -1
-0.0510582190 -0.0651816740 -1 -1
-0.0500814450 -0.0674370880 -1 -1
-0.0492626200 -0.0691973950 -1 -1
-0.0486545270 -0.0702351610 -1 -1
-0.0482848890 -0.0703952230 -1 -1
-0.0481530680 -0.0696138790 -1 -1
-0.0482310040 -0.0679252390 -1 -1
-0.0484671560 -0.0654547750 -1 -1
-0.0487909470 -0.0624040250 -1 -1
-0.0491167980 -0.0590291720 -1 -1
-0.0493493250 -0.0556154520 -1 -1
-0.0493915060 -0.0524504550 -1 -1
-0.0491554070 -0.0497984160 -1 -1
-0.0485732370 -0.0478775750 -1 -1
-0.0476073560 -0.0468432000 -1 -1
-0.0462587160 -0.0467756800 -1 -1
-0.0445721220 -0.0476713420 -1 -1
-0.0426356500 -0.0494378850 -1 -1
-0.0405731390 -0.0518993000 -1 -1
-0.0385313830 -0.0548121520 -1 -1
-0.0366645390 -0.0578903360 -1 -1
-0.0351179810 -0.0608344440 -1 -1
-0.0340132100 -0.0633626670 -1 -1
-0.0334347390 -0.0652393570 -1 -1
-0.0334196600 -0.0662970780 -1 -1
-0.0339515480 -0.0664505200 -1 -1
-0.0349607660 -0.0657022970 -1 -1
-0.0363322370 -0.0641406800 -1 -1
-0.0379193670 -0.0619302510 -1 -1
-0.0395605170 -0.0592969620 -1 -1
-0.0410948030 -0.0565081350 -1 -1
-0.0423766090 -0.0538478520 -1 -1
-0.0432893340 -0.0515896890 -1 -1
-0.0437572630 -0.0499699080 -1 -1
-0.0437529250 -0.0491640750 -1 -1
-0.0432983340 -0.0492695100 -1 -1
-0.0424609940 -0.0502948530 -1 -1
-0.0413460150 -0.0521567430 -1 -1
-0.0400843240 -0.0546840960 -1 -1
-0.0388173910 -0.0576318040 -1 -1
-0.0376810570 -0.0607050210 -1 -1
-0.0367912680 -0.0635921460 -1 -1
-0.0362331670 -0.0660008940 -1 -1
-0.0360544300 -0.0676905830 -1 -1
-0.0362634450 -0.0684963300 -1 -1
-0.0368318920 -0.0683437270 -1 -1
-0.0377005640 -0.0672534630 -1 -1
-0.0387874580 -0.0653360280 -1 -1
-0.0399972280 -0.0627782420 -1 -1
-0.0412301980 -0.0598242930 -1 -1
-0.0423897150 -0.0567536150 -1 -1
-0.0433885840 -0.0538569550 -1 -1
-0.0441554880 -0.0514115390 -1 -1
-0.0446409550 -0.0496569020 -1 -1
-0.0448222370 -0.0487735680 -1 -1
-0.0447063680 -0.0488654630 -1 -1
-0.0443304510 -0.0499461030 -1 -1
-0.0437591640 -0.0519308850 -1 -1
-0.0430803040 -0.0546404010 -1 -1
-0.0423985090 -0.0578176810 -1 -1
-0.0418262900 -0.0611566000 -1 -1
-0.0414720400 -0.0643356460 -1 -1
-0.0414265770 -0.0670524870 -1 -1
-0.0417509700 -0.0690554830 -1 -1
-0.0424676030 -0.0701684040 -1 -1
-0.0435557300 -0.0703066650 -1 -1
-0.0449530720 -0.0694850440 -1 -1
-0.0465639440 -0.0678159590 -1 -1
-0.0482719230 -0.0654974510 -1 -1
-0.0499542700 -0.0627924440 -1 -1
-0.0514963730 -0.0600020470 -1 -1
-0.0528046990 -0.0574349180 -1 -1
-0.0538157710 -0.0553751890 -1 -1
-0.0544991680 -0.0540529450 -1 -1
-0.0548556220 -0.0536213720 -1 -1
-0.0549140170 -0.0541433580 -1 -1
-0.0547294530 -0.0555880900 -1 -1
-0.0543802530 -0.0578358040 -1 -1
-0.0539603410 -0.0606885560 -1 -1
-0.0535666560 -0.0638871210 -1 -1
-0.0532854450 -0.0671348540 -1 -1
-0.0531820580 -0.0701264120 -1 -1
-0.0532958580 -0.0725754200 -1 -1
-0.0536381510 -0.0742363320 -1 -1
-0.0541906000 -0.0749240070 -1 -1
-0.0549047250 -0.0745380320 -1 -1
-0.0557049050 -0.0730872760 -1 -1
-0.0564958580 -0.0706996720 -1 -1
-0.0571739090 -0.0676098700 -1 -1
-0.0576403410 -0.0641300430 -1 -1
-0.0578138560 -0.0606115720 -1 -1
-0.0576392790 -0.0574040850 -1 -1
-0.0570916970 -0.0548188310 -1 -1
-0.0561769740 -0.0531002020 -1 -1
-0.0549293350 -0.0524037980 -1 -1
-0.0534067380 -0.0527813040 -1 -1
-0.0516862860 -0.0541784140 -1 -1
-0.0498616340 -0.0564483640 -1 -1
-0.0480408110 -0.0593740190 -1 -1
-0.0463407900 -0.0626906090 -1 -1
-0.0448773180 -0.0661074650 -1 -1
-0.0437517280 -0.0693306750 -1 -1
-0.0430377110 -0.0720866390 -1 -1
-0.0427709090 -0.0741443960 -1 -1
-0.0429434360 -0.0753360770 -1 -1
-0.0435041100 -0.0755757460 -1 -1
-0.0443642260 -0.0748727380 -1 -1
-0.0454081510 -0.0733328130 -1 -1
-0.0465070200 -0.0711456520 -1 -1
-0.0475328120 -0.0685637410 -1 -1
-0.0483704790 -0.0658769500 -1 -1
-0.0489274160 -0.0633835110 -1 -1
-0.0491403160 -0.0613589450 -1 -1
-0.0489786910 -0.0600278930 -1 -1
-0.0484437640 -0.0595437890 -1 -1
-0.0475636040 -0.0599774630 -1 -1
-0.0463881980 -0.0613124940 -1 -1
-0.0449871430 -0.0634456780 -1 -1
-0.0434483040 -0.0661933020 -1 -1
-0.0418737440 -0.0693046750 -1 -1
-0.0403716170 -0.0724837020 -1 -1
-0.0390460980 -0.0754177220 -1 -1
-0.0379879820 -0.0778104520 -1 -1
-0.0372663340 -0.0794139930 -1 -1
-0.0369205510 -0.0800548750 -1 -1
-0.0369541180 -0.0796506320 -1 -1
-0.0373326830 -0.0782160090 -1 -1
-0.0379878230 -0.0758605900 -1 -1
-0.0388256230 -0.0727804120 -1 -1
-0.0397375130 -0.0692438080 -1 -1
-0.0406111880 -0.0655692100 -1 -1
-0.0413411220 -0.0620940930 -1 -1
-0.0418389290 -0.0591387180 -1 -1
-0.0420431330 -0.0569711070 -1 -1
-0.0419272950 -0.0557790920 -1 -1
-0.0415049100 -0.0556525330 -1 -1
-0.0408287140 -0.0565762960 -1 -1
-0.0399829300 -0.0584340670 -1 -1
-0.0390704400 -0.0610228950 -1 -1
-0.0381990900 -0.0640764080 -1 -1
-0.0374700020 -0.0672930700 -1 -1
-0.0369684290 -0.0703664260 -1 -1
-0.0367569030 -0.0730148070 -1 -1
-0.0368704950 -0.0750070100 -1 -1
-0.0373138090 -0.0761804730 -1 -1
-0.0380596290 -0.0764513660 -1 -1
-0.0390503580 -0.0758184390 -1 -1
-0.0402038300 -0.0743619190 -1 -1
-0.0414230410 -0.0722376020 -1 -1
-0.0426070800 -0.0696652000 -1 -1
-0.0436609700 -0.0669090540 -1 -1
-0.0445041400 -0.0642517370 -1 -1
-0.0450778670 -0.0619652160 -1 -1
-0.0453510950 -0.0602836570 -1 -1
-0.0453230150 -0.0593790920 -1 -1
-0.0450214280 -0.0593417020 -1 -1
-0.0444980630 -0.0601684640 -1 -1
-0.0438233100 -0.0617632250 -1 -1
-0.0430819200 -0.0639478940 -1 -1
-0.0423687060 -0.0664819000 -1 -1
-0.0417818920 -0.0690873970 -1 -1
-0.0414131040 -0.0714783400 -1 -1
-0.0413356210 -0.0733902500 -1 -1
-0.0415939960 -0.0746066160 -1 -1
-0.0421977650 -0.0749794270 -1 -1
-0.0431202180 -0.0744432020 -1 -1
-0.0443016180 -0.0730216640 -1 -1
-0.0456555430 -0.0708256830 -1 -1
-0.0470770570 -0.0680431180 -1 -1
-0.0484517430 -0.0649231400 -1 -1
-0.0496646960 -0.0617560420 -1 -1
-0.0506090470 -0.0588473810 -1 -1
-0.0511944590 -0.0564867290 -1 -1
-0.0513562640 -0.0549154140 -1 -1
-0.0510643720 -0.0542996260 -1 -1
-0.0503298470 -0.0547131350 -1 -1
-0.0492073560 -0.0561307550 -1 -1
-0.0477920120 -0.0584317630 -1 -1
-0.0462094920 -0.0614118240 -1 -1
-0.0446002910 -0.0648021480 -1 -1
-0.0431020250 -0.0682941410 -1 -1
-0.0418345500 -0.0715674260 -1 -1
-0.0408900080 -0.0743194280 -1 -1
-0.0403272110 -0.0762946360 -1 -1
-0.0401690550 -0.0773107030 -1 -1
-0.0404018760 -0.0772777610 -1 -1
-0.0409770160 -0.0762080130 -1 -1
-0.0418162420 -0.0742145440 -1 -1
-0.0428207590 -0.0715000450 -1 -1
-0.0438810950 -0.0683373120 -1 -1
-0.0448859790 -0.0650434860 -1 -1
-0.0457306700 -0.0619493180 -1 -1
-0.0463256720 -0.0593652500 -1 -1
-0.0466056400 -0.0575482360 -1 -1
-0.0465364340 -0.0566745940 -1 -1
-0.0461178920 -0.0568228260 -1 -1
-0.0453818000 -0.0579677620 -1 -1
-0.0443864710 -0.0599861820 -1 -1
-0.0432096770 -0.0626731920 -1 -1
-0.0419413100 -0.0657656110 -1 -1
-0.0406766080 -0.0689676960 -1 -1
-0.0395096510 -0.0719769860 -1 -1
-0.0385258270 -0.0745085580 -1 -1
-0.0377929000 -0.0763166070 -1 -1
-0.0373529220 -0.0772157140 -1 -1
-0.0372179250 -0.0771030950 -1 -1
-0.0373701750 -0.0759766400 -1 -1
-0.0377659530 -0.0739413780 -1 -1
-0.0383414620 -0.0712018240 -1 -1
-0.0390195820 -0.0680418850 -1 -1
-0.0397170530 -0.0647940960 -1 -1
-0.0403520120 -0.0618009240 -1 -1
-0.0408513420 -0.0593742730 -1 -1
-0.0411576730 -0.0577617930 -1 -1
-0.0412360660 -0.0571259060 -1 -1
-0.0410792890 -0.0575344200 -1 -1
-0.0407101280 -0.0589586740 -1 -1
-0.0401800950 -0.0612784870 -1 -1
-0.0395647170 -0.0642940960 -1 -1
-0.0389556510 -0.0677436090 -1 -1
-0.0384501310 -0.0713252780 -1 -1
-0.0381392660 -0.0747246250 -1 -1
-0.0380969450 -0.0776445660 -1 -1
-0.0383705520 -0.0798348700 -1 -1
-0.0389748040 -0.0811175310 -1 -1
-0.0398899030 -0.0814049260 -1 -1
-0.0410637210 -0.0807080380 -1 -1
-0.0424171010 -0.0791344350 -1 -1
-0.0438516080 -0.0768779980 -1 -1
-0.0452585370 -0.0742010140 -1 -1
-0.0465275420 -0.0714076430 -1 -1
-0.0475548820 -0.0688105690 -1 -1
-0.0482530110 -0.0666968910 -1 -1
-0.0485616030 -0.0652990630 -1 -1
-0.0484569770 -0.0647729140 -1 -1
-0.0479566700 -0.0651831840 -1 -1
-0.0471186860 -0.0664981400 -1 -1
-0.0460369590 -0.0685944680 -1 -1
-0.0448336600 -0.0712712950 -1 -1
-0.0436476540 -0.0742708560 -1 -1
-0.0426194380 -0.0773039320 -1 -1
-0.0418749870 -0.0800789650 -1 -1
-0.0415110640 -0.0823330030 -1 -1
-0.0415838120 -0.0838597760 -1 -1
-0.0421021440 -0.0845291680 -1 -1
-0.0430269760 -0.0842953100 -1 -1
-0.0442760090 -0.0831947220 -1 -1
-0.0457335230 -0.0813388720 -1 -1
-0.0472649300 -0.0789052760 -1 -1
-0.0487339360 -0.0761266630 -1 -1
-0.0500176490 -0.0732740350 -1 -1
-0.0510163170 -0.0706321000 -1 -1
-0.0516585120 -0.0684700460 -1 -1
-0.0519048480 -0.0670118950 -1 -1
-0.0517515960 -0.0664106490 -1 -1
-0.0512323760 -0.0667304270 -1 -1
-0.0504152670 -0.0679394850 -1 -1
-0.0493950880 -0.0699145140 -1 -1
-0.0482830520 -0.0724543700 -1 -1
-0.0471961610 -0.0753000150 -1 -1
-0.0462473370 -0.0781589700 -1 -1
-0.0455361170 -0.0807346080 -1 -1
-0.0451396490 -0.0827578410 -1 -1
-0.0451046910 -0.0840151870 -1 -1
-0.0454421190 -0.0843694020 -1 -1
-0.0461253960 -0.0837720950 -1 -1
-0.0470929920 -0.0822674750 -1 -1
-0.0482536490 -0.0799868790 -1 -1
-0.0494940910 -0.0771358930 -1 -1
-0.0506894580 -0.0739757040 -1 -1
-0.0517162000 -0.0707989630 -1 -1
-0.0524667940 -0.0679018780 -1 -1
-0.0528644900 -0.0655561910 -1 -1
-0.0528742090 -0.0639842480 -1 -1
-0.0525061110 -0.0633387710 -1 -1
-0.0518116600 -0.0636881620 -1 -1
-0.0508745340 -0.0650086150 -1 -1
-0.0497988200 -0.0671850100 -1 -1
-0.0486964180 -0.0700217550 -1 -1
-0.0476753160 -0.0732615720 -1 -1
-0.0468297720 -0.0766084380 -1 -1
-0.0462328330 -0.0797533350 -1 -1
-0.0459316530 -0.0824036470 -1 -1
-0.0459458520 -0.0843141810 -1 -1
-0.0462683220 -0.0853137040 -1 -1
-0.0468672470 -0.0853215170 -1 -1
-0.0476881660 -0.0843526640 -1 -1
-0.0486557960 -0.0825134730 -1 -1
-0.0496771160 -0.0799893390 -1 -1
-0.0506480710 -0.0770260560 -1 -1
-0.0514644090 -0.0739067110 -1 -1
-0.0520343310 -0.0709272190 -1 -1
-0.0522897620 -0.0683727710 -1 -1
-0.0521938020 -0.0664948260 -1 -1
-0.0517431130 -0.0654875440 -1 -1
-0.0509656810 -0.0654646990 -1 -1
-0.0499159260 -0.0664416670 -1 -1
-0.0486694470 -0.0683292300 -1 -1
-0.0473183340 -0.0709427930 -1 -1
-0.0459662610 -0.0740244360 -1 -1
-0.0447218980 -0.0772722410 -1 -1
-0.0436900510 -0.0803722460 -1 -1
-0.0429615200 -0.0830301500 -1 -1
-0.0426032770 -0.0850003030 -1 -1
-0.0426498440 -0.0861088900 -1 -1
-0.0430964830 -0.0862688440 -1 -1
-0.0438960360 -0.0854861040 -1 -1
-0.0449616360 -0.0838580060 -1 -1
-0.0461761250 -0.0815634330 -1 -1
-0.0474064630 -0.0788432220 -1 -1
-0.0485194770 -0.0759722030 -1 -1
-0.0493959190 -0.0732294510 -1 -1
-0.0499420630 -0.0708732180 -1 -1
-0.0500988990 -0.0691216770 -1 -1
-0.0498483440 -0.0681373600 -1 -1
-0.0492155340 -0.0680136710 -1 -1
-0.0482664360 -0.0687637640 -1 -1
-0.0471008420 -0.0703146870 -1 -1
-0.0458415620 -0.0725100070 -1 -1
-0.0446211490 -0.0751218870 -1 -1
-0.0435678830 -0.0778721550 -1 -1
-0.0427927040 -0.0804609610 -1 -1
-0.0423785830 -0.0826001950 -1 -1
-0.0423736150 -0.0840472950 -1 -1
-0.0427883670 -0.0846337770 -1 -1
-0.0435968930 -0.0842837840 -1 -1
-0.0447403330 -0.0830213040 -1 -1
-0.0461321810 -0.0809663240 -1 -1
-0.0476649370 -0.0783207720 -1 -1
-0.0492184770 -0.0753471700 -1 -1
-0.0506701210 -0.0723438260 -1 -1
-0.0519059720 -0.0696176260 -1 -1
-0.0528326330 -0.0674543210 -1 -1
-0.0533875170 -0.0660895190 -1 -1
-0.0535456760 -0.0656855210 -1 -1
-0.0533220300 -0.0663163050 -1 -1
-0.0527688820 -0.0679602130 -1 -1
-0.0519693870 -0.0705003390 -1 -1
-0.0510281880 -0.0737336310 -1 -1
-0.0500604190 -0.0773888960 -1 -1
-0.0491798700 -0.0811524240 -1 -1
-0.0484873040 -0.0846989810 -1 -1
-0.0480606370 -0.0877243820 -1 -1
-0.0479484840 -0.0899745900 -1 -1
-0.0481670000 -0.0912680110 -1 -1
-0.0486991340 -0.0915110670 -1 -1
-0.0494960820 -0.0907073320 -1 -1
-0.0504815350 -0.0889581000 -1 -1
-0.0515591600 -0.0864523650 -1 -1
-0.0526226470 -0.0834473920 -1 -1
-0.0535662000 -0.0802429010 -1 -1
-0.0542935340 -0.0771514610 -1 -1
-0.0547253530 -0.0744676040 -1 -1
-0.0548056200 -0.0724389950 -1 -1
-0.0545061740 -0.0712430020 -1 -1
-0.0538301250 -0.0709707970 -1 -1
-0.0528150320 -0.0716195400 -1 -1
-0.0515347420 -0.0730923250 -1 -1
-0.0500968500 -0.0752060170 -1 -1
-0.0486341480 -0.0777075320 -1 -1
-0.0472911380 -0.0802982340 -1 -1
-0.0462079100 -0.0826646140 -1 -1
-0.0455032990 -0.0845117050 -1 -1
-0.0452588410 -0.0855948510 -1 -1
-0.0455060400 -0.0857463840 -1 -1
-0.0462203020 -0.0848946830 -1 -1
-0.0473238300 -0.0830732840 -1 -1
-0.0486969330 -0.0804189790 -1 -1
-0.0501942710 -0.0771591870 -1 -1
-0.0516612010 -0.0735893690 -1 -1
-0.0529473560 -0.0700424040 -1 -1
-0.0539182330 -0.0668534980 -1 -1
-0.0544664540 -0.0643251500 -1 -1
-0.0545223310 -0.0626964170 -1 -1
-0.0540621810 -0.0621196190 -1 -1
-0.0531130080 -0.0626468480 -1 -1
-0.0517520330 -0.0642279270 -1 -1
-0.0500999100 -0.0667192390 -1 -1
-0.0483082300 -0.0699003800 -1 -1
-0.0465431630 -0.0734948130 -1 -1
-0.0449671400 -0.0771922630 -1 -1
-0.0437209700 -0.0806729040 -1 -1
-0.0429090470 -0.0836343920 -1 -1
-0.0425889240 -0.0858208770 -1 -1
-0.0427653500 -0.0870497680 -1 -1
-0.0433895040 -0.0872312880 -1 -1
-0.0443644520 -0.0863780910 -1 -1
-0.0455563250 -0.0846035440 -1 -1
-0.0468095100 -0.0821085550 -1 -1
-0.0479646030 -0.0791596570 -1 -1
-0.0488776870 -0.0760625540 -1 -1
-0.0494378440 -0.0731338910 -1 -1
-0.0495788670 -0.0706724030 -1 -1
-0.0492828300 -0.0689306860 -1 -1
-0.0485760120 -0.0680892790 -1 -1
-0.0475199450 -0.0682353260 -1 -1
-0.0462010020 -0.0693505440 -1 -1
-0.0447209710 -0.0713127160 -1 -1
-0.0431893110 -0.0739093290 -1 -1
-0.0417163450 -0.0768600380 -1 -1
-0.0404061280 -0.0798465210 -1 -1
-0.0393477560 -0.0825447070 -1 -1
-0.0386048270 -0.0846522430 -1 -1
-0.0382060440 -0.0859126010 -1 -1
-0.0381427750 -0.0861434560 -1 -1
-0.0383757410 -0.0852676090 -1 -1
-0.0388456770 -0.0833327990 -1 -1
-0.0394816610 -0.0805094040 -1 -1
-0.0402058400 -0.0770671280 -1 -1
-0.0409363320 -0.0733388750 -1 -1
-0.0415900990 -0.0696803650 -1 -1
-0.0420877190 -0.0664330040 -1 -1
-0.0423610310 -0.0638947150 -1 -1
-0.0423618020 -0.0622982360 -1 -1
-0.0420681380 -0.0617938530 -1 -1
-0.0414870270 -0.0624365410 -1 -1
-0.0406534240 -0.0641806190 -1 -1
-0.0396271620 -0.0668840360 -1 -1
-0.0384888680 -0.0703218360 -1 -1
-0.0373351440 -0.0742070630 -1 -1
-0.0362722580 -0.0782166510 -1 -1
-0.0354072800 -0.0820189820 -1 -1
-0.0348360290 -0.0853007590 -1 -1
-0.0346288840 -0.0877929520 -1 -1
-0.0348178010 -0.0892958450 -1 -1
-0.0353887110 -0.0897010520 -1 -1
-0.0362824040 -0.0890061050 -1 -1
-0.0374043930 -0.0873169370 -1 -1
-0.0386405080 -0.0848364180 -1 -1
-0.0398728970 -0.0818415820 -1 -1
-0.0409929710 -0.0786542650 -1 -1
-0.0419108570 -0.0756084590 -1 -1
-0.0425618750 -0.0730164430 -1 -1
-0.0429101000 -0.0711371230 -1 -1
-0.0429493450 -0.0701509130 -1 -1
-0.0427024400 -0.0701441860 -1 -1
-0.0422194590 -0.0711046870 -1 -1
-0.0415743140 -0.0729270710 -1 -1
-0.0408579810 -0.0754252940 -1 -1
-0.0401682460 -0.0783495680 -1 -1
-0.0395989380 -0.0814089650 -1 -1
-0.0392316010 -0.0843003230 -1 -1
-0.0391297030 -0.0867397280 -1 -1
-0.0393343800 -0.0884904520 -1 -1
-0.0398615600 -0.0893833660 -1 -1
-0.0407001840 -0.0893303070 -1 -1
-0.0418105480 -0.0883326700 -1 -1
-0.0431230160 -0.0864845930 -1 -1
-0.0445396000 -0.0839672080 -1 -1
-0.0459413180 -0.0810319930 -1 -1
-0.0472017810 -0.0779745740 -1 -1
-0.0482044850 -0.0751026790 -1 -1
-0.0488593820 -0.0727035450 -1 -1
-0.0491143480 -0.0710160730 -1 -1
-0.0489591820 -0.0702106230 -1 -1
-0.0484232320 -0.0703756820 -1 -1
-0.0475697100 -0.0715095880 -1 -1
-0.0464891130 -0.0735183030 -1 -1
-0.0452925030 -0.0762220350 -1 -1
-0.0441040490 -0.0793712050 -1 -1
-0.0430517080 -0.0826704190 -1 -1
-0.0422556600 -0.0858087800 -1 -1
-0.0418154810 -0.0884925140 -1 -1
-0.0417975960 -0.0904738340 -1 -1
-0.0422252590 -0.0915727490 -1 -1
-0.0430737090 -0.0916928780 -1 -1
-0.0442720260 -0.0908316970 -1 -1
-0.0457110470 -0.0890823010 -1 -1
-0.0472555260 -0.0866242450 -1 -1
-0.0487588750 -0.0837048910 -1 -1
-0.0500793120 -0.0806149210 -1 -1
-0.0510953920 -0.0776605360 -1 -1
-0.0517178700 -0.0751338730 -1 -1
-0.0518962690 -0.0732841460 -1 -1
-0.0516210460 -0.0722924400 -1 -1
-0.0509227800 -0.0722521270 -1 -1
-0.0498684880 -0.0731575400 -1 -1
-0.0485547040 -0.0749045890 -1 -1
-0.0470984610 -0.0773041320 -1 -1
-0.0456276600 -0.0801044920 -1 -1
-0.0442705520 -0.0830191660 -1 -1
-0.0431436480 -0.0857565480 -1 -1
-0.0423392570 -0.0880472590 -1 -1
-0.0419153790 -0.0896666180 -1 -1
-0.0418902120 -0.0904539430 -1 -1
-0.0422416390 -0.0903284910 -1 -1
-0.0429101050 -0.0892982860 -1 -1
-0.0438036910 -0.0874598170 -1 -1
-0.0448061290 -0.0849894600 -1 -1
-0.0457882840 -0.0821278500 -1 -1
-0.0466217280 -0.0791580300 -1 -1
-0.0471926370 -0.0763776230 -1 -1
-0.0474149400 -0.0740669370 -1 -1
-0.0472404870 -0.0724589080 -1 -1
-0.0466629340 -0.0717174570 -1 -1
-0.0457148440 -0.0719255000 -1 -1
-0.0444613690 -0.0730794670 -1 -1
-0.0429934440 -0.0750880050 -1 -1
-0.0414204350 -0.0777750680 -1 -1
-0.0398617320 -0.0808907670 -1 -1
-0.0384380280 -0.0841350970 -1 -1
-0.0372622610 -0.0871932320 -1 -1
-0.0364288430 -0.0897728040 -1 -1
-0.0360015790 -0.0916344480 -1 -1
-0.0360036330 -0.0926136460 -1 -1
-0.0364132420 -0.0926353510 -1 -1
-0.0371663110 -0.0917214960 -1 -1
-0.0381648190 -0.0899889840 -1 -1
-0.0392891390 -0.0876357780 -1 -1
-0.0404117700 -0.0849171050 -1 -1
-0.0414099670 -0.0821178520 -1 -1
-0.0421763790 -0.0795257130 -1 -1
-0.0426281070 -0.0774061200 -1 -1
-0.0427140550 -0.0759796920 -1 -1
-0.0424196460 -0.0754034050 -1 -1
-0.0417683130 -0.0757556170 -1 -1
-0.0408192450 -0.0770256450 -1 -1
-0.0396606480 -0.0791110340 -1 -1
-0.0383994350 -0.0818252980 -1 -1
-0.0371501640 -0.0849158240 -1 -1
-0.0360248710 -0.0880897980 -1 -1
-0.0351235010 -0.0910450840 -1 -1
-0.0345247620 -0.0935019490 -1 -1
-0.0342787770 -0.0952312660 -1 -1
-0.0344035180 -0.0960756520 -1 -1
-0.0348853260 -0.0959619860 -1 -1
-0.0356817770 -0.0949057320 -1 -1
-0.0367252690 -0.0930077620 -1 -1
-0.0379272610 -0.0904441940 -1 -1
-0.0391838600 -0.0874504890 -1 -1
-0.0403832060 -0.0843012420 -1 -1
-0.0414147300 -0.0812865750 -1 -1
-0.0421803970 -0.0786866910 -1 -1
-0.0426072040 -0.0767467860 -1 -1
-0.0426584140 -0.0756534770 -1 -1
-0.0423402810 -0.0755144030 -1 -1
-0.0417023920 -0.0763449760 -1 -1
-0.0408315940 -0.0780652770 -1 -1
-0.0398408090 -0.0805061390 -1 -1
-0.0388552210 -0.0834232030 -1 -1
-0.0379983790 -0.0865196020 -1 -1
-0.0373796570 -0.0894760530 -1 -1
-0.0370837670 -0.0919841780 -1 -1
-0.0371633790 -0.0937789520 -1 -1
-0.0376353290 -0.0946672190 -1 -1
-0.0384795750 -0.0945493290 -1 -1
-0.0396399620 -0.0934307930 -1 -1
-0.0410274550 -0.0914215080 -1 -1
-0.0425273040 -0.0887226970 -1 -1
-0.0440103680 -0.0856050080 -1 -1
-0.0453474610 -0.0823815380 -1 -1
-0.0464245890 -0.0793767720 -1 -1
-0.0471559740 -0.0768924350 -1 -1
-0.0474922010 -0.0751748130 -1 -1
-0.0474227080 -0.0743888310 -1 -1
-0.0469734290 -0.0746014720 -1 -1
-0.0462012110 -0.0757758210 -1 -1
-0.0451871810 -0.0777770650 -1 -1
-0.0440312160 -0.0803896970 -1 -1
-0.0428472200 -0.0833419510 -1 -1
-0.0417558040 -0.0863329450 -1 -1
-0.0408718900 -0.0890600560 -1 -1
-0.0402896220 -0.0912451430 -1 -1
-0.0400698210 -0.0926589020 -1 -1
-0.0402336250 -0.0931434070 -1 -1
-0.0407621900 -0.0926309350 -1 -1
-0.0415998770 -0.0911543630 -1 -1
-0.0426594470 -0.0888453970 -1 -1
-0.0438299510 -0.0859206520 -1 -1
-0.0449880660 -0.0826585870 -1 -1
-0.0460119850 -0.0793706550 -1 -1
-0.0467953110 -0.0763692140 -1 -1
-0.0472578910 -0.0739358160 -1 -1
-0.0473520570 -0.0722947450 -1 -1
-0.0470650250 -0.0715946260 -1 -1
-0.0464186050 -0.0718971020 -1 -1
-0.0454664040 -0.0731709750 -1 -1
-0.0442886220 -0.0752929050 -1 -1
-0.0429853470 -0.0780568710 -1 -1
-0.0416690770 -0.0811927830 -1 -1
-0.0404565810 -0.0843924960 -1 -1
-0.0394603990 -0.0873403640 -1 -1
-0.0387799290 -0.0897450960 -1 -1
-0.0384907080 -0.0913700450 -1 -1
-0.0386321500 -0.0920588390 -1 -1
-0.0391978990 -0.0917522300 -1 -1
-0.0401334640 -0.0904926630 -1 -1
-0.0413426470 -0.0884167970 -1 -1
-0.0427007130 -0.0857399520 -1 -1
-0.0440705150 -0.0827359550 -1 -1
-0.0453182870 -0.0797125460 -1 -1
-0.0463270410 -0.0769813010 -1 -1
-0.0470063850 -0.0748245110 -1 -1
-0.0472985300 -0.0734650870 -1 -1
-0.0471814080 -0.0730447310 -1 -1
-0.0466699110 -0.0736123410 -1 -1
-0.0458150620 -0.0751223800 -1 -1
-0.0447000020 -0.0774417940 -1 -1
-0.0434324510 -0.0803634310 -1 -1
-0.0421346890 -0.0836244930 -1 -1
-0.0409323820 -0.0869292370 -1 -1
-0.0399427120 -0.0899745020 -1 -1
-0.0392619640 -0.0924752900 -1 -1
-0.0389542020 -0.0941878040 -1 -1
-0.0390437420 -0.0949309060 -1 -1
-0.0395132540 -0.0946073090 -1 -1
-0.0403072860 -0.0932196160 -1 -1
-0.0413394120 -0.0908742150 -1 -1
-0.0425005110 -0.0877719250 -1 -1
-0.0436667390 -0.0841887730 -1 -1
-0.0447085620 -0.0804503320 -1 -1
-0.0455031600 -0.0769010690 -1 -1
-0.0459496530 -0.0738689770 -1 -1
-0.0459837070 -0.0716293810 -1 -1
-0.0455878160 -0.0703756570 -1 -1
-0.0447947330 -0.0702011110 -1 -1
-0.0436830450 -0.0710913960 -1 -1
-0.0423655960 -0.0729276320 -1 -1
-0.0409733800 -0.0755002480 -1 -1
-0.0396389390 -0.0785312770 -1 -1
-0.0384828050 -0.0817035240 -1 -1
-0.0376042400 -0.0846940500 -1 -1
-0.0370754260 -0.0872068080 -1 -1
-0.0369377420 -0.0890011400 -1 -1
-0.0371993360 -0.0899143410 -1 -1
-0.0378339880 -0.0898754900 -1 -1
-0.0387823840 -0.0889096690 -1 -1
-0.0399568250 -0.0871335600 -1 -1
-0.0412487500 -0.0847431080 -1 -1
-0.0425382740 -0.0819941890 -1 -1
-0.0437064180 -0.0791775690 -1 -1
-0.0446498030 -0.0765900000 -1 -1
-0.0452945600 -0.0745045680 -1 -1
-0.0456055060 -0.0731434310 -1 -1
-0.0455886660 -0.0726548910 -1 -1
-0.0452875300 -0.0730969400 -1 -1
-0.0447748400 -0.0744307820 -1 -1
-0.0441423240 -0.0765271050 -1 -1
-0.0434900520 -0.0791834390 -1 -1
-0.0429159380 -0.0821468200 -1 -1
-0.0425054710 -0.0851372080 -1 -1
-0.0423223640 -0.0878713520 -1 -1
-0.0424018240 -0.0900880760 -1 -1
-0.0427482600 -0.0915735680 -1 -1
-0.0433375360 -0.0921833190 -1 -1
-0.0441215500 -0.0918577680 -1 -1
-0.0450328370 -0.0906293620 -1 -1
-0.0459885200 -0.0886188800 -1 -1
-0.0468942720 -0.0860216680 -1 -1
-0.0476499130 -0.0830877480 -1 -1
-0.0481583080 -0.0800990080 -1 -1
-0.0483373540 -0.0773441270 -1 -1
-0.0481323750 -0.0750921660 -1 -1
-0.0475252200 -0.0735672810 -1 -1
-0.0465373920 -0.0729275180 -1 -1
-0.0452271400 -0.0732497630 -1 -1
-0.0436821910 -0.0745212180 -1 -1
-0.0420102670 -0.0766377480 -1 -1
-0.0403295450 -0.0794109330 -1 -1
-0.0387599220 -0.0825843350 -1 -1
-0.0374141980 -0.0858568620 -1 -1
-0.0363881030 -0.0889109290 -1 -1
-0.0357503160 -0.0914437050 -1 -1
-0.0355355280 -0.0931984990 -1 -1
-0.0357423810 -0.0939924180 -1 -1
-0.0363357470 -0.0937371380 -1 -1
-0.0372523160 -0.0924499850 -1 -1
-0.0384082680 -0.0902527910 -1 -1
-0.0397069160 -0.0873584360 -1 -1
-0.0410450330 -0.0840478730 -1 -1
-0.0423184530 -0.0806408800 -1 -1
-0.0434283230 -0.0774631250 -1 -1
-0.0442886550 -0.0748128090 -1 -1
-0.0448342480 -0.0729313250 -1 -1
-0.0450274180 -0.0719811430 -1 -1
-0.0448624690 -0.0720319200 -1 -1
-0.0443669800 -0.0730551240 -1 -1
-0.0435994110 -0.0749271320 -1 -1
-0.0426435210 -0.0774403430 -1 -1
-0.0416005020 -0.0803234010 -1 -1
-0.0405794590 -0.0832718400 -1 -1
-0.0396866600 -0.0859850560 -1 -1
-0.0390140710 -0.0882001310 -1 -1
-0.0386282850 -0.0897155640 -1 -1
-0.0385621020 -0.0904047880 -1 -1
-0.0388107940 -0.0902224190 -1 -1
-0.0393330620 -0.0892042710 -1 -1
-0.0400551640 -0.0874605250 -1 -1
-0.0408778870 -0.0851634090 -1 -1
-0.0416875470 -0.0825327150 -1 -1
-0.0423709300 -0.0798198310 -1 -1
-0.0428310730 -0.0772878250 -1 -1
-0.0429996610 -0.0751875540 -1 -1
-0.0428439320 -0.0737341780 -1 -1
-0.0423682340 -0.0730873150 -1 -1
-0.0416111340 -0.0733344500 -1 -1
-0.0406395100 -0.0744784480 -1 -1
-0.0395410210 -0.0764320640 -1 -1
-0.0384151150 -0.0790215130 -1 -1
-0.0373628990 -0.0820006120 -1 -1
-0.0364777090 -0.0850755720 -1 -1
-0.0358375780 -0.0879367820 -1 -1
-0.0354991670 -0.0902928060 -1 -1
-0.0354933070 -0.0919031290 -1 -1
-0.0358229650 -0.0926055800 -1 -1
-0.0364630740 -0.0923338190 -1 -1
-0.0373613800 -0.0911226300 -1 -1
-0.0384414540 -0.0891019890 -1 -1
-0.0396097190 -0.0864821480 -1 -1
-0.0407658010 -0.0835319250 -1 -1
-0.0418131810 -0.0805521350 -1 -1
-0.0426677490 -0.0778461230 -1 -1
-0.0432642570 -0.0756899550 -1 -1
-0.0435614090 -0.0743055790 -1 -1
-0.0435451550 -0.0738392800 -1 -1
-0.0432294980 -0.0743466930 -1 -1
-0.0426551790 -0.0757875020 -1 -1
-0.0418869830 -0.0780327810 -1 -1
-0.0410097740 -0.0808823170 -1 -1
-0.0401224630 -0.0840853220 -1 -1
-0.0393284990 -0.0873611980 -1 -1
-0.0387230820 -0.0904216750 -1 -1
-0.0383801360 -0.0929954560 -1 -1
-0.0383425640 -0.0948529820 -1 -1
-0.0386170710 -0.0958277190 -1 -1
-0.0391736910 -0.0958323190 -1 -1
-0.0399496680 -0.0948694200 -1 -1
-0.0408560700 -0.0930353750 -1 -1
-0.0417860030 -0.0905137770 -1 -1
-0.0426252870 -0.0875578830 -1 -1
-0.0432658460 -0.0844642040 -1 -1
-0.0436189190 -0.0815407900 -1 -1
-0.0436245530 -0.0790744270 -1 -1
-0.0432563800 -0.0773012580 -1 -1
-0.0425231450 -0.0763834080 -1 -1
-0.0414681850 -0.0763924730 -1 -1
-0.0401662890 -0.0773015500 -1 -1
-0.0387168200 -0.0789883320 -1 -1
-0.0372337700 -0.0812497090 -1 -1
-0.0358351140 -0.0838253940 -1 -1
-0.0346334640 -0.0864271280 -1 -1
-0.0337280090 -0.0887700890 -1 -1
-0.0331965360 -0.0906025760 -1 -1
-0.0330877460 -0.0917300030 -1 -1
-0.0334153380 -0.0920313580 -1 -1
-0.0341553090 -0.0914692260 -1 -1
-0.0352475560 -0.0900939370 -1 -1
-0.0366017630 -0.0880394280 -1 -1
-0.0381061940 -0.0855088740 -1 -1
-0.0396377760 -0.0827523410 -1 -1
-0.0410726050 -0.0800409340 -1 -1
-0.0422961960 -0.0776406730 -1 -1
-0.0432122720 -0.0757877490 -1 -1
-0.0437494310 -0.0746664840 -1 -1
-0.0438663570 -0.0743919760 -1 -1
-0.0435565030 -0.0749994100 -1 -1
-0.0428519380 -0.0764410420 -1 -1
-0.0418247130 -0.0785906830 -1 -1
-0.0405835080 -0.0812544010 -1 -1
-0.0392636380 -0.0841865780 -1 -1
-0.0380104550 -0.0871120360 -1 -1
-0.0369594070 -0.0897533940 -1 -1
-0.0362177100 -0.0918586200 -1 -1
-0.0358513060 -0.0932237510 -1 -1
-0.0358784930 -0.0937101160 -1 -1
-0.0362704600 -0.0932574910 -1 -1
-0.0369579660 -0.0918925670 -1 -1
-0.0378419800 -0.0897300660 -1 -1
-0.0388060540 -0.0869646450 -1 -1
-0.0397294370 -0.0838538620 -1 -1
-0.0405000190 -0.0806938540 -1 -1
-0.0410251710 -0.0777903290 -1 -1
-0.0412386130 -0.0754281620 -1 -1
-0.0411035020 -0.0738422340 -1 -1
-0.0406138110 -0.0731918450 -1 -1
-0.0397950090 -0.0735425670 -1 -1
-0.0387024940 -0.0748586650 -1 -1
-0.0374165430 -0.0770051140 -1 -1
-0.0360354490 -0.0797580020 -1 -1
-0.0346692200 -0.0828261910 -1 -1
-0.0334330920 -0.0858857140 -1 -1
-0.0324382480 -0.0886204130 -1 -1
-0.0317797440 -0.0907582120 -1 -1
-0.0315246690 -0.0920970180 -1 -1
-0.0317031750 -0.0925206690 -1 -1
-0.0323034450 -0.0920068340 -1 -1
-0.0332713300 -0.0906270060 -1 -1
-0.0345151950 -0.0885379120 -1 -1
-0.0359155690 -0.0859645230 -1 -1
-0.0373381600 -0.0831764340 -1 -1
-0.0386487740 -0.0804604980 -1 -1
-0.0397287290 -0.0780925350 -1 -1
-0.0404884350 -0.0763112860 -1 -1
-0.0408760740 -0.0752982420 -1 -1
-0.0408800210 -0.0751648690 -1 -1
-0.0405263310 -0.0759449050 -1 -1
-0.0398736000 -0.0775893210 -1 -1
-0.0390066080 -0.0799660080 -1 -1
-0.0380288380 -0.0828682790 -1 -1
-0.0370530820 -0.0860331000 -1 -1
-0.0361897680 -0.0891661110 -1 -1
-0.0355341120 -0.0919698890 -1 -1
-0.0351543360 -0.0941719930 -1 -1
-0.0350831930 -0.0955495710 -1 -1
-0.0353148130 -0.0959498710 -1 -1
-0.0358083980 -0.0953070370 -1 -1
-0.0364981470 -0.0936521900 -1 -1
-0.0373053280 -0.0911122150 -1 -1
-0.0381474820 -0.0878960270 -1 -1
-0.0389433010 -0.0842721720 -1 -1
-0.0396156430 -0.0805442410 -1 -1
-0.0400953160 -0.0770262930 -1 -1
-0.0403261810 -0.0740154570 -1 -1
-0.0402711490 -0.0717625570 -1 -1
-0.0399184900 -0.0704474310 -1 -1
-0.0392869380 -0.0701627220 -1 -1
-0.0384271250 -0.0709049030 -1 -1
-0.0374178790 -0.0725723560 -1 -1
-0.0363586400 -0.0749721330 -1 -1
-0.0353605690 -0.0778358600 -1 -1
-0.0345376730 -0.0808443960 -1 -1
-0.0339972230 -0.0836605440 -1 -1
-0.0338287700 -0.0859674990 -1 -1
-0.0340926180 -0.0875072970 -1 -1
-0.0348098270 -0.0881113460 -1 -1
-0.0359557760 -0.0877173740 -1 -1
-0.0374591770 -0.0863715720 -1 -1
-0.0392080730 -0.0842180880 -1 -1
-0.0410629230 -0.0814794200 -1 -1
-0.0428745220 -0.0784309580 -1 -1
-0.0445028120 -0.0753730150 -1 -1
-0.0458328620 -0.0726034460 -1 -1
-0.0467852570 -0.0703921040 -1 -1
-0.0473192840 -0.0689572000 -1 -1
-0.0474298530 -0.0684449630 -1 -1
-0.0471422230 -0.0689154830 -1 -1
-0.0465079800 -0.0703368710 -1 -1
-0.0456023260 -0.0725878200 -1 -1
-0.0445206600 -0.0754677880 -1 -1
-0.0433723070 -0.0787147990 -1 -1
-0.0422706970 -0.0820306430 -1 -1
-0.0413218750 -0.0851110240 -1 -1
-0.0406135760 -0.0876762030 -1 -1
-0.0402053800 -0.0894979040 -1 -1
-0.0401207810 -0.0904202730 -1 -1
-0.0403435360 -0.0903736050 -1 -1
-0.0408200730 -0.0893792630 -1 -1
-0.0414675180 -0.0875458280 -1 -1
-0.0421851940 -0.0850585600 -1 -1
-0.0428669890 -0.0821628370 -1 -1
-0.0434126030 -0.0791408960 -1 -1
-0.0437366840 -0.0762838770 -1 -1
-0.0437755570 -0.0738635850 -1 -1
-0.0434916510 -0.0721071960 -1 -1
-0.0428761020 -0.0711764690 -1 -1
-0.0419497730 -0.0711529870 -1 -1
-0.0407623570 -0.0720310090 -1 -1
-0.0393886420 -0.0737185340 -1 -1
-0.0379212280 -0.0760456220 -1 -1
-0.0364604130 -0.0787789030 -1 -1
-0.0351037250 -0.0816429700 -1 -1
-0.0339375740 -0.0843490500 -1 -1
-0.0330313640 -0.0866269400 -1 -1
-0.0324324270 -0.0882532490 -1 -1
-0.0321607750 -0.0890715870 -1 -1
-0.0322050370 -0.0890050130 -1 -1
-0.0325216550 -0.0880625290 -1 -1
-0.0330377930 -0.0863398230 -1 -1
-0.0336573400 -0.0840132130 -1 -1
-0.0342700220 -0.0813254240 -1 -1
-0.0347631980 -0.0785623760 -1 -1
-0.0350343810 -0.0760231430 -1 -1
-0.0350024550 -0.0739883700 -1 -1
-0.0346162320 -0.0726915620 -1 -1
-0.0338591550 -0.0722943230 -1 -1
-0.0327500740 -0.0728663960 -1 -1
-0.0313415570 -0.0743744470 -1 -1
-0.0297169820 -0.0766842340 0 -1
-0.0279858860 -0.0795764380 0 -1
-0.0262762650 -0.0827712110 0 -1
-0.0247232930 -0.0859558720 0 -1
-0.0234551060 -0.0888139640 0 -1
-0.0225778150 -0.0910558440 0 -1
-0.0221625360 -0.0924485950 0 -1
-0.0222364300 -0.0928409280 0 -1
-0.0227787960 -0.0921793540 0 -1
-0.0237229750 -0.0905131580 0 -1
-0.0249644130 -0.0879875010 0 -1
-0.0263739030 -0.0848271480 0 -1
-0.0278134180 -0.0813146840 0 -1
-0.0291514020 -0.0777648360 0 -1
-0.0302756630 -0.0744951650 -1 -1
-0.0311032370 -0.0717956830 -1 -1
-0.0315867690 -0.0699014290 -1 -1
-0.0317169050 -0.0689703660 -1 -1
-0.0315207610 -0.0690679120 -1 -1
-0.0310568920 -0.0701603230 -1 -1
-0.0304078450 -0.0721182760 -1 -1
-0.0296720890 -0.0747303750 0 -1
-0.0289559530 -0.0777258710 0 -1
-0.0283645690 -0.0808038130 0 -1
-0.0279916170 -0.0836632740 0 -1
-0.0279096890 -0.0860307490 0 -1
-0.0281630730 -0.0876842680 0 -1
-0.0287633970 -0.0884743210 0 -1
-0.0296879940 -0.0883392530 0 -1
-0.0308810790 -0.0873106950 -1 -1
-0.0322582670 -0.0855064480 -1 -1
-0.0337153890 -0.0831143990 -1 -1
-0.0351413920 -0.0803731000 -1 -1
-0.0364324730 -0.0775500740 -1 -1
-0.0375034650 -0.0749169500 -1 -1
-0.0382942720 -0.0727238990 -1 -1
-0.0387722180 -0.0711765850 -1 -1
-0.0389330570 -0.0704170690 -1 -1
-0.0388023550 -0.0705094390 -1 -1
-0.0384356560 -0.0714312280 -1 -1
-0.0379143730 -0.0730733050 -1 -1
-0.0373368190 -0.0752505340 -1 -1
-0.0368066740 -0.0777203840 -1 -1
-0.0364214310 -0.0802050820 -1 -1
-0.0362626140 -0.0824176020 -1 -1
-0.0363890310 -0.0840927260 -1 -1
-0.0368328430 -0.0850183180 -1 -1
-0.0375965860 -0.0850590850 -1 -1
-0.0386507380 -0.0841698340 -1 -1
-0.0399339910 -0.0823994760 -1 -1
-0.0413580480 -0.0798866360 -1 -1
-0.0428167620 -0.0768471380 -1 -1
-0.0441976480 -0.0735536460 -1 -1
-0.0453929400 -0.0703084770 -1 -1
-0.0463087440 -0.0674127200 -1 -1
-0.0468732640 -0.0651358620 -1 -1
-0.0470452310 -0.0636894790 -1 -1
-0.0468210560 -0.0632073540 -1 -1
-0.0462375360 -0.0637333300 -1 -1
-0.0453683540 -0.0652180250 -1 -1
-0.0443152990 -0.0675245780 -1 -1
-0.0431967010 -0.0704421350 -1 -1
-0.0421352850 -0.0737052250 -1 -1
-0.0412460180 -0.0770171650 -1 -1
-0.0406238830 -0.0800758180 -1 -1
-0.0403332160 -0.0826003210 -1 -1
-0.0404016680 -0.0843574000 -1 -1
-0.0408204130 -0.0851854170 -1 -1
-0.0415490960 -0.0850133140 -1 -1
-0.0425225580 -0.0838703100 -1 -1
-0.0436575000 -0.0818830960 -1 -1
-0.0448588000 -0.0792615330 -1 -1
-0.0460257350 -0.0762763880 -1 -1
-0.0470586760 -0.0732314230 -1 -1
-0.0478672130 -0.0704321660 -1 -1
-0.0483791740 -0.0681560410 -1 -1
-0.0485477500 -0.0666280390 -1 -1
-0.0483547870 -0.0660023230 -1 -1
-0.0478113990 -0.0663486520 -1 -1
-0.0469577320 -0.0676445110 -1 -1
-0.0458616530 -0.0697749780 -1 -1
-0.0446146710 -0.0725411750 -1 -1
-0.0433244470 -0.0756774350 -1 -1
-0.0421049470 -0.0788770280 -1 -1
-0.0410649500 -0.0818243120 -1 -1
-0.0402946890 -0.0842289570 -1 -1
-0.0398521660 -0.0858571530 -1 -1
-0.0397528700 -0.0865551780 -1 -1
-0.0399658200 -0.0862625240 -1 -1
-0.0404164880 -0.0850143970 -1 -1
-0.0409960930 -0.0829357190 -1 -1
-0.0415760040 -0.0802295320 -1 -1
-0.0420248390 -0.0771610320 -1 -1
-0.0422249190 -0.0740356250 -1 -1
-0.0420848430 -0.0711697840 -1 -1
-0.0415469310 -0.0688578940 -1 -1
-0.0405910070 -0.0673412810 -1 -1
-0.0392365470 -0.0667834450 -1 -1
-0.0375430370 -0.0672521810 -1 -1
-0.0356067380 -0.0687097250 -1 -1
-0.0335526380 -0.0710146360 -1 -1
-0.0315222280 -0.0739374630 -1 -1
-0.0296591470 -0.0771866170 0 -1
-0.0280948650 -0.0804393980 0 -1
-0.0269358440 -0.0833759650 0 -1
-0.0262533540 -0.0857137220 0 -1
-0.0260774290 -0.0872365770 0 -1
-0.0263959480 -0.0878140140 0 -1
-0.0271583620 -0.0874088090 0 -1
-0.0282823350 -0.0860754730 0 -1
-0.0296611240 -0.0839523890 0 -1
-0.0311707880 -0.0812492010 -1 -1
-0.0326788140 -0.0782295370 -1 -1
-0.0340560100 -0.0751887190 -1 -1
-0.0351901450 -0.0724265390 -1 -1
-0.0359976200 -0.0702171050 -1 -1
-0.0364308410 -0.0687804580 -1 -1
-0.0364815100 -0.0682604370 -1 -1
-0.0361806410 -0.0687106060 -1 -1
-0.0355952800 -0.0700887420 -1 -1
-0.0348219190 -0.0722608550 -1 -1
-0.0339768520 -0.0750143970 -1 -1
-0.0331837370 -0.0780783070 -1 -1
-0.0325594060 -0.0811482650 -1 -1
-0.0321998900 -0.0839166750 -1 -1
-0.0321690820 -0.0861051660 -1 -1
-0.0324926490 -0.0874946030 -1 -1
-0.0331581150 -0.0879477310 -1 -1
-0.0341191330 -0.0874211190 -1 -1
-0.0353010840 -0.0859636400 -1 -1
-0.0366070510 -0.0837034890 -1 -1
-0.0379259470 -0.0808331610 -1 -1
-0.0391445580 -0.0775976580 -1 -1
-0.0401613710 -0.0742796280 -1 -1
-0.0408977490 -0.0711755230 -1 -1
-0.0413045550 -0.0685655660 -1 -1
-0.0413655200 -0.0666835710 -1 -1
-0.0410986800 -0.0656916710 -1 -1
-0.0405553140 -0.0656636400 -1 -1
-0.0398150600 -0.0665786050 -1 -1
-0.0389774850 -0.0683252660 -1 -1
-0.0381522460 -0.0707157520 -1 -1
-0.0374495820 -0.0735065330 -1 -1
-0.0369714550 -0.0764223800 -1 -1
-0.0368031820 -0.0791807100 -1 -1
-0.0370052640 -0.0815158870 -1 -1
-0.0376058320 -0.0832025920 -1 -1
-0.0385956300 -0.0840771490 -1 -1
-0.0399273800 -0.0840564570 -1 -1
-0.0415191040 -0.0831514450 -1 -1
-0.0432599080 -0.0814686530 -1 -1
-0.0450182330 -0.0791974930 -1 -1
-0.0466538260 -0.0765883740 -1 -1
-0.0480333390 -0.0739279750 -1 -1
-0.0490469790 -0.0715132630 -1 -1
-0.0496224640 -0.0696236540 -1 -1
-0.0497331600 -0.0684928070 -1 -1
-0.0493988250 -0.0682834000 -1 -1
-0.0486796650 -0.0690684740 -1 -1
-0.0476661980 -0.0708222570 -1 -1
-0.0464679050 -0.0734214190 -1 -1
-0.0452024290 -0.0766555910 -1 -1
-0.0439852060 -0.0802456770 -1 -1
-0.0429186350 -0.0838697640 -1 -1
-0.0420817790 -0.0871958740 -1 -1
-0.0415236330 -0.0899178460 -1 -1
-0.0412619180 -0.0917882640 -1 -1
-0.0412863590 -0.0926435800 -1 -1
-0.0415635790 -0.0924197440 -1 -1
-0.0420409970 -0.0911579860 -1 -1
-0.0426491890 -0.0890001560 -1 -1
-0.0433043760 -0.0861741040 -1 -1
-0.0439131140 -0.0829713430 -1 -1
-0.0443800850 -0.0797192900 -1 -1
-0.0446184000 -0.0767497750 -1 -1
-0.0445605280 -0.0743661820 -1 -1
-0.0441675840 -0.0728132130 -1 -1
-0.0434353850 -0.0722538720 -1 -1
-0.0423958670 -0.0727563820 -1 -1
-0.0411127570 -0.0742905770 -1 -1
-0.0396723110 -0.0767314370 -1 -1
-0.0381720480 -0.0798684570 -1 -1
-0.0367103870 -0.0834223650 -1 -1
-0.0353783260 -0.0870706510 -1 -1
-0.0342531050 -0.0904794860 -1 -1
-0.0333936540 -0.0933373840 -1 -1
-0.0328374300 -0.0953868700 -1 -1
-0.0325981180 -0.0964506850 -1 -1
-0.0326642810 -0.0964486880 -1 -1
-0.0329998290 -0.0954035540 -1 -1
-0.0335468330 -0.0934362990 -1 -1
-0.0342300840 -0.0907537570 -1 -1
-0.0349622370 -0.0876293070 -1 -1
-0.0356494900 -0.0843777810 -1 -1
-0.0361987180 -0.0813257720 -1 -1
-0.0365261500 -0.0787790550 -1 -1
-0.0365664460 -0.0769903480 -1 -1
-0.0362810860 -0.0761321810 -1 -1
-0.0356654210 -0.0762784090 -1 -1
-0.0347534220 -0.0773961860 -1 -1
-0.0336180280 -0.0793500880 -1 -1
-0.0323645770 -0.0819185620 -1 -1
-0.0311171550 -0.0848194200 -1 -1
-0.0300015170 -0.0877398170 -1 -1
-0.0291294790 -0.0903677240 0 -1
-0.0285871860 -0.0924229320 0 -1
-0.0284270000 -0.0936851450 0 -1
-0.0286627900 -0.0940160290 0 -1
-0.0292689550 -0.0933728090 0 -1
-0.0301830630 -0.0918115470 -1 -1
-0.0313117200 -0.0894782490 -1 -1
-0.0325393110 -0.0865885510 -1 -1
-0.0337392310 -0.0834013220 -1 -1
-0.0347871950 -0.0801926760 -1 -1
-0.0355754410 -0.0772333650 -1 -1
-0.0360255510 -0.0747692260 -1 -1
-0.0360976990 -0.0730037110 -1 -1
-0.0357948060 -0.0720817070 -1 -1
-0.0351607030 -0.0720745680 -1 -1
-0.0342730280 -0.0729695520 -1 -1
-0.0332336270 -0.0746680320 -1 -1
-0.0321584490 -0.0769928430 -1 -1
-0.0311667580 -0.0797035180 -1 -1
-0.0303697820 -0.0825203430 -1 -1
-0.0298603800 -0.0851550990 0 -1
-0.0297051040 -0.0873416310 0 -1
-0.0299389410 -0.0888615420 0 -1
-0.0305622870 -0.0895638030 -1 -1
-0.0315402870 -0.0893772270 -1 -1
-0.0328058030 -0.0883152630 -1 -1
-0.0342663010 -0.0864735360 -1 -1
-0.0358128060 -0.0840214000 -1 -1
-0.0373292690 -0.0811886100 -1 -1
-0.0387027570 -0.0782465640 -1 -1
-0.0398352000 -0.0754834120 -1 -1
-0.0406552840 -0.0731753430 -1 -1
-0.0411277730 -0.0715586830 -1 -1
-0.0412581120 -0.0708063880 -1 -1
-0.0410910220 -0.0710100500 -1 -1
-0.0407031710 -0.0721681460 -1 -1
-0.0401914420 -0.0741825500 -1 -1
-0.0396587800 -0.0768655600 -1 -1
-0.0391999220 -0.0799572600 -1 -1
-0.0388894060 -0.0831504990 -1 -1
-0.0387734280 -0.0861204090 -1 -1
-0.0388662130 -0.0885563080 -1 -1
-0.0391508800 -0.0901936560 -1 -1
-0.0395836960 -0.0908431120 -1 -1
-0.0401004130 -0.0904133910 -1 -1
-0.0406238730 -0.0889239050 -1 -1
-0.0410718150 -0.0865031330 -1 -1
-0.0413636750 -0.0833719120 -1 -1
-0.0414264490 -0.0798157980 -1 -1
-0.0412001880 -0.0761521520 -1 -1
-0.0406425000 -0.0726957680 -1 -1
-0.0397312150 -0.0697260360 -1 -1
-0.0384656370 -0.0674591830 -1 -1
-0.0368672710 -0.0660293320 -1 -1
-0.0349799500 -0.0654805340 -1 -1
-0.0328686710 -0.0657687710 -1 -1
-0.0306167240 -0.0667710560 -1 -1
-0.0283210370 -0.0682989900 0 -1
-0.0260860270 -0.0701151120 0 -1
-0.0240168060 -0.0719519560 0 -1
-0.0222121740 -0.0735351040 0 -1
-0.0207570100 -0.0746100600 0 -1
-0.0197141120 -0.0749690630 0 -1
-0.0191168700 -0.0744719500 0 -1
-0.0189639610 -0.0730583360 0 -1
-0.0192165050 -0.0707526380 0 -1
-0.0197988300 -0.0676635760 0 -1
-0.0206049310 -0.0639777880 0 -1
-0.0215111380 -0.0599461640 0 -1
-0.0223920540 -0.0558615920 0 -1
-0.0231352820 -0.0520289000 0 -1
-0.0236521020 -0.0487317400 0 -1
-0.0238838860 -0.0462029590 0 -1
-0.0238053440 -0.0446023880 0 -1
-0.0234253660 -0.0440023310 0 -1
-0.0227850590 -0.0443810260 0 -1
-0.0219517950 -0.0456255100 0 -1
-0.0210092190 -0.0475439670 0 -1
-0.0200456040 -0.0498860010 0 -1
-0.0191437240 -0.0523693980 0 -1
-0.0183731830 -0.0547102240 0 -1
-0.0177839560 -0.0566500740 0 -1
-0.0174005880 -0.0579763270 0 -1
-0.0172184590 -0.0585371970 0 -1
-0.0172038690 -0.0582546600 0 -1
-0.0172981920 -0.0571340510 0 -1
-0.0174250940 -0.0552668280 0 -1
-0.0174996480 -0.0528243900 0 -1
-0.0174385660 -0.0500428250 0 -1
-0.0171709410 -0.0472006250 0 -1
-0.0166479950 -0.0445921490 0 -1
-0.0158496140 -0.0424982950 0 -1
-0.0147865010 -0.0411560630 0 -1
-0.0134984230 -0.0407312190 0 -1
-0.0120495850 -0.0412997820 0 -1
-0.0105223000 -0.0428418790 0 -1
-0.0090099180 -0.0452469060 0 -1
-0.0076092100 -0.0483262790 0 -1
-0.0064119780 -0.0518307520 0 -1
-0.0054965640 -0.0554713630 0 -1
-0.0049209230 -0.0589446350 0 -1
-0.0047188240 -0.0619613180 0 -1
-0.0048989460 -0.0642750700 0 -1
-0.0054448170 -0.0657073210 0 -1
-0.0063145540 -0.0661657450 0 -1
-0.0074415480 -0.0656536380 0 -1
-0.0087378090 -0.0642684970 0 -1
-0.0101005330 -0.0621911750 0 -1
-0.0114207670 -0.0596677160 0 -1
-0.0125923540 -0.0569841770 0 -1
-0.0135205320 -0.0544354770 0 -1
-0.0141308140 -0.0522931120 0 -1
-0.0143774390 -0.0507781840 0 -1
-0.0142487680 -0.0500428050 0 -1
-0.0137678880 -0.0501585950 0 -1
-0.0129897960 -0.0511113190 0 -1
-0.0119969410 -0.0528033390 0 -1
-0.0108923180 -0.0550638360 0 -1
-0.0097889000 -0.0576642990 0 -1
-0.0087970950 -0.0603382680 0 -1
-0.0080133930 -0.0628059800 0 -1
-0.0075113380 -0.0648027950 0 -1
-0.0073344150 -0.0661077400 0 -1
-0.0074915050 -0.0665675620 0 -1
-0.0079568440 -0.0661131170 0 -1
-0.0086749210 -0.0647672320 0 -1
-0.0095683800 -0.0626439520 0 -1
-0.0105467260 -0.0599385980 0 -1
-0.0115148040 -0.0569088290 0 -1
-0.0123805560 -0.0538487560 0 -1
-0.0130621190 -0.0510595310 0 -1
-0.0134948010 -0.0488195470 0 -1
-0.0136376490 -0.0473563920 0 -1
-0.0134782770 -0.0468228460 0 -1
-0.0130344120 -0.0472796190 0 -1
-0.0123512890 -0.0486871000 0 -1
-0.0114955760 -0.0509083320 0 -1
-0.0105479670 -0.0537234000 0 -1
-0.0095960610 -0.0568525810 0 -1
-0.0087273460 -0.0599846520 0 -1
-0.0080211910 -0.0628045810 0 -1
-0.0075397570 -0.0650149410 0 -1
-0.0073201840 -0.0663553310 0 -1
-0.0073715970 -0.0666310390 0 -1
-0.0076773340 -0.0657503940 0 -1
-0.0081991770 -0.0637531550 0 -1
-0.0088809600 -0.0608134370 0 -1
-0.0096515580 -0.0572167180 0 -1
-0.0104284640 -0.0533215000 0 -1
-0.0111234380 -0.0495162920 0 -1
-0.0116509960 -0.0461784400 0 -1
-0.0119386670 -0.0436379590 0 -1
-0.0119373100 -0.0421487020 0 -1
-0.0116300820 -0.0418683900 0 -1
-0.0110375630 -0.0428471480 0 -1
-0.0102162190 -0.0450234780 0 -1
-0.0092501000 -0.0482279810 0 -1
-0.0082389270 -0.0521963750 0 -1
-0.0072863590 -0.0565927250 0 -1
-0.0064906780 -0.0610417090 0 -1
-0.0059379780 -0.0651659510 0 -1
-0.0056964720 -0.0686225260 0 -1
-0.0058102740 -0.0711338110 0 -1
-0.0062924420 -0.0725105190 0 -1
-0.0071196010 -0.0726664560 0 -1
-0.0082314850 -0.0716249770 0 -1
-0.0095364610 -0.0695168660 0 -1
-0.0109209620 -0.0665688780 0 -1
-0.0122602500 -0.0630827890 0 -1
-0.0134299890 -0.0594067500 0 -1
-0.0143190140 -0.0559021720 0 -1
-0.0148419180 -0.0529095780 0 -1
-0.0149484120 -0.0507166870 0 -1
-0.0146277530 -0.0495312880 0 -1
-0.0139091860 -0.0494608760 0 -1
-0.0128597190 -0.0505020120 0 -1
-0.0115788370 -0.0525421590 0 -1
-0.0101893580 -0.0553731120 0 -1
-0.0088251750 -0.0587128110 0 -1
-0.0076175130 -0.0622334020 0 -1
-0.0066809620 -0.0655939690 0 -1
-0.0061010430 -0.0684748510 0 -1
-0.0059253860 -0.0706094150 0 -1
-0.0061595430 -0.0718097510 0 -1
-0.0067674970 -0.0719840570 0 -1
-0.0076767380 -0.0711441870 0 -1
-0.0087873600 -0.0694022850 0 -1
-0.0099835710 -0.0669570260 0 -1
-0.0111455600 -0.0640718520 0 -1
-0.0121603770 -0.0610478530 0 -1
-0.0129313360 -0.0581930650 0 -1
-0.0133853650 -0.0557908330 0 -1
-0.0134776480 -0.0540715060 0 -1
-0.0131933330 -0.0531910750 0 -1
-0.0125470200 -0.0532182820 0 -1
-0.0115817890 -0.0541304910 0 -1
-0.0103690010 -0.0558182340 0 -1
-0.0090074870 -0.0580977550 0 -1
-0.0076193080 -0.0607301370 0 -1
-0.0063406130 -0.0634455540 0 -1
-0.0053082780 -0.0659706030 0 -1
-0.0046441160 -0.0680548680 0 -1
-0.0044387620 -0.0694929300 0 -1
-0.0047378050 -0.0701414830 0 -1
-0.0055333900 -0.0699329600 0 -1
-0.0067644690 -0.0688847250 0 -1
-0.0083262350 -0.0671001140 0 -1
-0.0100853180 -0.0647588590 0 -1
-0.0118958380 -0.0620980380 0 -1
-0.0136137480 -0.0593870050 0 -1
-0.0151095340 -0.0569001110 0 -1
-0.0162792690 -0.0548907460 0 -1
-0.0170528420 -0.0535689030 0 -1
-0.0173983820 -0.0530822600 0 -1
-0.0173229990 -0.0535005020 0 -1
-0.0168705680 -0.0548049030 0 -1
-0.0161168020 -0.0568859850 0 -1
-0.0151610320 -0.0595503600 0 -1
-0.0141149270 -0.0625377340 0 -1
-0.0130902650 -0.0655478910 0 -1
-0.0121879500 -0.0682732210 0 -1
-0.0114889360 -0.0704310150 0 -1
-0.0110467430 -0.0717913480 0 -1
-0.0108819300 -0.0721976500 0 -1
-0.0109800230 -0.0715801460 0 -1
-0.0112944910 -0.0699631600 0 -1
-0.0117546660 -0.0674643230 0 -1
-0.0122763380 -0.0642847990 0 -1
-0.0127718870 -0.0606934530 0 -1
-0.0131584140 -0.0570057690 0 -1
-0.0133646520 -0.0535550270 0 -1
-0.0133377620 -0.0506568630 0 -1
-0.0130494230 -0.0485736810 0 -1
-0.0124995150 -0.0474858880 0 -1
-0.0117162060 -0.0474746740 0 -1
-0.0107522300 -0.0485181100 0 -1
-0.0096779490 -0.0504988510 0 -1
-0.0085729640 -0.0532194380 0 -1
-0.0075187710 -0.0564214910 0 -1
-0.0065937960 -0.0598077950 0 -1
-0.0058698990 -0.0630682540 0 -1
-0.0054086400 -0.0659089060 0 -1
-0.0052560770 -0.0680801150 0 -1
-0.0054358050 -0.0693997880 0 -1
-0.0059417580 -0.0697700880 0 -1
-0.0067340240 -0.0691873850 0 -1
-0.0077402040 -0.0677438870 0 -1
-0.0088618360 -0.0656192250 0 -1
-0.0099839700 -0.0630624270 0 -1
-0.0109874660 -0.0603659940 0 -1
-0.0117639720 -0.0578339910 0 -1
-0.0122309470 -0.0557484510 0 -1
-0.0123422980 -0.0543403960 0 -1
-0.0120918430 -0.0537685460 0 -1
-0.0115102060 -0.0541049060 0 -1
-0.0106579100 -0.0553272140 0 -1
-0.0096169270 -0.0573202230 0 -1
-0.0084820080 -0.0598877070 0 -1
-0.0073530130 -0.0627752320 0 -1
-0.0063284920 -0.0657005370 0 -1
-0.0054991470 -0.0683855890 0 -1
-0.0049404120 -0.0705842770 0 -1
-0.0047051910 -0.0721024460 0 -1
-0.0048179740 -0.0728112400 0 -1
-0.0052710240 -0.0726567770 0 -1
-0.0060236350 -0.0716664760 0 -1
-0.0070052620 -0.0699490100 0 -1
-0.0081219430 -0.0676849040 0 -1
-0.0092646910 -0.0651080550 0 -1
-0.0103194290 -0.0624819910 0 -1
-0.0111786430 -0.0600750020 0 -1
-0.0117537640 -0.0581357710 0 -1
-0.0119858400 -0.0568697790 0 -1
-0.0118525220 -0.0564178080 0 -1
-0.0113710550 -0.0568392660 0 -1
-0.0105977040 -0.0581039000 0 -1
-0.0096228490 -0.0600946000 0 -1
-0.0085608940 -0.0626201400 0 -1
-0.0075369080 -0.0654338330 0 -1
-0.0066735310 -0.0682557600 0 -1
-0.0060792510 -0.0707986750 0 -1
-0.0058369350 -0.0727965250 0 -1
-0.0059931100 -0.0740319700 0 -1
-0.0065510400 -0.0743593000 0 -1
-0.0074701740 -0.0737200070 0 -1
-0.0086719710 -0.0721486560 0 -1
-0.0100500540 -0.0697684690 0 -1
-0.0114821350 -0.0667789390 0 -1
-0.0128417660 -0.0634378570 0 -1
-0.0140092460 -0.0600386520 0 -1
-0.0148819590 -0.0568839040 0 -1
-0.0153842740 -0.0542568600 0 -1
-0.0154763450 -0.0523938400 0 -1
-0.0151598570 -0.0514609210 0 -1
-0.0144781040 -0.0515378280 0 -1
-0.0135092670 -0.0526108940 0 -1
-0.0123544940 -0.0545752480 0 -1
-0.0111243610 -0.0572442890 0 -1
-0.0099272270 -0.0603647920 0 -1
-0.0088613030 -0.0636383310 0 -1
-0.0080102610 -0.0667498630 0 -1
-0.0074411200 -0.0694004670 0 -1
-0.0072025980 -0.0713384280 0 -1
-0.0073221350 -0.0723841660 0 -1
-0.0078008650 -0.0724471680 0 -1
-0.0086082430 -0.0715339110 0 -1
-0.0096801440 -0.0697464300 0 -1
-0.0109233310 -0.0672722030 0 -1
-0.0122259370 -0.0643666420 0 -1
-0.0134714730 -0.0613290570 0 -1
-0.0145533640 -0.0584727340 0 -1
-0.0153875370 -0.0560916970 0 -1
-0.0159213400 -0.0544297460 0 -1
-0.0161377870 -0.0536564840 0 -1
-0.0160548840 -0.0538514540 0 -1
-0.0157206990 -0.0549969140 0 -1
-0.0152055920 -0.0569809290 0 -1
-0.0145933260 -0.0596106470 0 -1
-0.0139724880 -0.0626328020 0 -1
-0.0134287890 -0.0657585970 0 -1
-0.0130377180 -0.0686910020 0 -1
-0.0128569090 -0.0711518510 0 -1
-0.0129191320 -0.0729061810 0 -1
-0.0132284060 -0.0737830670 0 -1
-0.0137607380 -0.0736928850 0 -1
-0.0144679960 -0.0726394150 0 -1
-0.0152825430 -0.0707232460 0 -1
-0.0161223760 -0.0681333210 0 -1
-0.0168973020 -0.0651272250 0 -1
-0.0175157520 -0.0620041520 0 -1
-0.0178923490 -0.0590744910 0 -1
-0.0179569920 -0.0566284160 0 -1
-0.0176642810 -0.0549054100 0 -1
-0.0170004460 -0.0540679850 0 -1
-0.0159864720 -0.0541835740 0 -1
-0.0146779460 -0.0552173100 0 -1
-0.0131613190 -0.0570371400 0 -1
-0.0115453990 -0.0594302890 0 -1
-0.0099493210 -0.0621269310 0 -1
-0.0084907430 -0.0648277890 0 -1
-0.0072768150 -0.0672345110 0 -1
-0.0063973390 -0.0690795590 0 -1
-0.0059182540 -0.0701504760 0 -1
-0.0058750920 -0.0703069940 0 -1
-0.0062678050 -0.0694935220 0 -1
-0.0070582560 -0.0677479370 0 -1
-0.0081709870 -0.0652025890 0 -1
-0.0094979400 -0.0620730240 0 -1
-0.0109075070 -0.0586358700 0 -1
-0.0122573850 -0.0552011840 0 -1
-0.0134100010 -0.0520821070 0 -1
-0.0142488620 -0.0495636520 0 -1
-0.0146933530 -0.0478753400 0 -1
-0.0147089710 -0.0471714930 0 -1
-0.0143108660 -0.0475183990 0 -1
-0.0135609030 -0.0488870320 0 -1
-0.0125596190 -0.0511531580 0 -1
-0.0114339580 -0.0541070570 0 -1
-0.0103218560 -0.0574722530 0 -1
-0.0093561620 -0.0609310400 0 -1
-0.0086506040 -0.0641555880 0 -1
-0.0082894670 -0.0668426020 0 -1
-0.0083214680 -0.0687458580 0 -1
-0.0087571770 -0.0697004250 0 -1
-0.0095687620 -0.0696369130 0 -1
-0.0106917800 -0.0685864710 0 -1
-0.0120302830 -0.0666759160 0 -1
-0.0134661940 -0.0641128490 0 -1
-0.0148720500 -0.0611637410 0 -1
-0.0161251440 -0.0581283590 0 -1
-0.0171203880 -0.0553115500 0 -1
-0.0177790800 -0.0529928770 0 -1
-0.0180531710 -0.0513966620 0 -1
-0.0179271830 -0.0506676200 0 -1
-0.0174191130 -0.0508578770 0 -1
-0.0165796420 -0.0519277250 0 -1
-0.0154891590 -0.0537567990 0 -1
-0.0142527420 -0.0561601740 0 -1
-0.0129926330 -0.0589066730 0 -1
-0.0118372520 -0.0617389100 0 -1
-0.0109069170 -0.0643941840 0 -1
-0.0102984540 -0.0666258110 0 -1
-0.0100720760 -0.0682247190 0 -1
-0.0102435830 -0.0690396860 0 -1
-0.0107835570 -0.0689935050 0 -1
-0.0116231840 -0.0680922420 0 -1
-0.0126647870 -0.0664258420 0 -1
-0.0137947900 -0.0641608550 0 -1
-0.0148971080 -0.0615269770 0 -1
-0.0158653530 -0.0587969890 0 -1
-0.0166127060 -0.0562593840 0 -1
-0.0170785970 -0.0541869530 0 -1
-0.0172317460 -0.0528074650 0 -1
-0.0170697670 -0.0522813170 0 -1
-0.0166165580 -0.0526873330 0 -1
-0.0159189860 -0.0540149080 0 -1
-0.0150433950 -0.0561613730 0 -1
-0.0140711120 -0.0589373020 0 -1
-0.0130923030 -0.0620833040 0 -1
-0.0121987020 -0.0652978030 0 -1
-0.0114755220 -0.0682709720 0 -1
-0.0109920160 -0.0707186750 0 -1
-0.0107918330 -0.0724105370 0 -1
-0.0108866650 -0.0731886080 0 -1
-0.0112558400 -0.0729775230 0 -1
-0.0118514500 -0.0717887950 0 -1
-0.0126064410 -0.0697202110 0 -1
-0.0134430690 -0.0669502650 0 -1
-0.0142801960 -0.0637265550 0 -1
-0.0150390190 -0.0603460450 0 -1
-0.0156478510 -0.0571275030 0 -1
-0.0160474290 -0.0543798240 0 -1
-0.0161973280 -0.0523702280 0 -1
-0.0160819600 -0.0512952080 0 -1
-0.0157134850 -0.0512571380 0 -1
-0.0151302910 -0.0522494800 0 -1
-0.0143920000 -0.0541540960 0 -1
-0.0135729290 -0.0567534650 0 -1
-0.0127551600 -0.0597556820 0 -1
-0.0120215940 -0.0628264470 0 -1
-0.0114486840 -0.0656243590 0 -1
-0.0110982980 -0.0678376850 0 -1
-0.0110097120 -0.0692196420 0 -1
-0.0111943770 -0.0696175180 0 -1
-0.0116348050 -0.0689890130 0 -1
-0.0122866140 -0.0674013900 0 -1
-0.0130824890 -0.0650171210 0 -1
-0.0139374550 -0.0620742130 0 -1
-0.0147554970 -0.0588649620 0 -1
-0.0154384300 -0.0557107750 0 -1
-0.0158972860 -0.0529313420 0 -1
-0.0160640570 -0.0508117660 0 -1
-0.0159000900 -0.0495737160 0 -1
-0.0153990400 -0.0493542730 0 -1
-0.0145850800 -0.0501930350 0 -1
-0.0135085010 -0.0520276150 0 -1
-0.0122403000 -0.0546988230 0 -1
-0.0108664380 -0.0579663870 0 -1
-0.0094817990 -0.0615332820 0 -1
-0.0081836640 -0.0650753270 0 -1
-0.0070650130 -0.0682730010 0 -1
-0.0062086030 -0.0708421090 0 -1
-0.0056819520 -0.0725597600 0 -1
-0.0055316130 -0.0732836470 0 -1
-0.0057752610 -0.0729636750 0 -1
-0.0063929510 -0.0716453390 0 -1
-0.0073222260 -0.0694648370 0 -1
-0.0084615940 -0.0666359350 0 -1
-0.0096825370 -0.0634292230 0 -1
-0.0108463330 -0.0601461570 0 -1
-0.0118217360 -0.0570904640 0 -1
-0.0125011570 -0.0545387300 0 -1
-0.0128146490 -0.0527141830 0 -1
-0.0127403820 -0.0517682870 0 -1
-0.0123078000 -0.0517702880 0 -1
-0.0115908590 -0.0527022750 0 -1
-0.0106942550 -0.0544597970 0 -1
-0.0097380710 -0.0568594210 0 -1
-0.0088438260 -0.0596531620 0 -1
-0.0081225140 -0.0625494850 0 -1
-0.0076649690 -0.0652415480 0 -1
-0.0075351360 -0.0674412270 0 -1
-0.0077659070 -0.0689129290 0 -1
-0.0083563870 -0.0694998020 0 -1
-0.0092705710 -0.0691385650 0 -1
-0.0104392060 -0.0678636970 0 -1
-0.0117663480 -0.0658033530 0 -1
-0.0131397350 -0.0631682560 0 -1
-0.0144422720 -0.0602336700 0 -1
-0.0155623880 -0.0573139100 0 -1
-0.0164028270 -0.0547299710 0 -1
-0.0168887770 -0.0527747540 0 -1
-0.0169758820 -0.0516824240 0 -1
-0.0166566840 -0.0516054220 0 -1
-0.0159629590 -0.0525995140 0 -1
-0.0149629850 -0.0546174440 0 -1
-0.0137545040 -0.0575124330 0 -1
-0.0124543250 -0.0610515950 0 -1
-0.0111855770 -0.0649374770 0 -1
-0.0100645470 -0.0688356720 0 -1
-0.0091891850 -0.0724071210 0 -1
-0.0086302840 -0.0753424520 0 -1
-0.0084259610 -0.0773937170 0 -1
-0.0085798230 -0.0783990440 0 -1
-0.0090622070 -0.0782972370 0 -1
-0.0098134330 -0.0771305440 0 -1
-0.0107490080 -0.0750363690 0 -1
-0.0117679460 -0.0722313720 0 -1
-0.0127645370 -0.0689907560 0 -1
-0.0136409350 -0.0656233220 0 -1
-0.0143166930 -0.0624435490 0 -1
-0.0147339610 -0.0597437890 0 -1
-0.0148599500 -0.0577695870 0 -1
-0.0146883180 -0.0566990510 0 -1
-0.0142401190 -0.0566257350 0 -1
-0.0135644800 -0.0575461910 0 -1
-0.0127384530 -0.0593561210 0 -1
-0.0118643690 -0.0618585920 0 -1
-0.0110625720 -0.0647846670 0 -1
-0.0104586780 -0.0678233970 0 -1
-0.0101671550 -0.0706562130 0 -1
-0.0102755110 -0.0729912570 0 -1
-0.0108336260 -0.0745946220 0 -1
-0.0118500640 -0.0753151450 0 -1
-0.0132936000 -0.0750988370 0 -1
-0.0150973550 -0.0739909970 0 -1
-0.0171647110 -0.0721270110 0 -1
-0.0193774810 -0.0697144930 0 -1
-0.0216060950 -0.0670103180 0 -1
-0.0237206420 -0.0642959380 0 -1
-0.0256020110 -0.0618526690 0 -1
-0.0271530470 -0.0599367740 0 -1
-0.0283092250 -0.0587539120 0 -1
-0.0290473140 -0.0584346180 0 -1
-0.0293894300 -0.0590159420 0 -1
-0.0294000740 -0.0604359270 0 -1
-0.0291764580 -0.0625442060 0 -1
-0.0288357540 -0.0651247060 0 -1
-0.0285030790 -0.0679221710 0 -1
-0.0283001100 -0.0706670310 0 -1
-0.0283317530 -0.0730981450 0 -1
-0.0286715790 -0.0749845770 0 -1
-0.0293512030 -0.0761458300 0 -1
-0.0303578070 -0.0764685600 -1 -1
-0.0316392980 -0.0759179770 -1 -1
-0.0331140740 -0.0745421010 -1 -1
-0.0346826260 -0.0724676580 -1 -1
-0.0362384340 -0.0698885840 -1 -1
-0.0376759200 -0.0670491600 -1 -1
-0.0388957760 -0.0642231190 -1 -1
-0.0398103370 -0.0616895540 -1 -1
-0.0403508020 -0.0597068590 -1 -1
-0.0404755890 -0.0584867010 -1 -1
-0.0401775580 -0.0581707690 -1 -1
-0.0394873320 -0.0588132830 -1 -1
-0.0384710130 -0.0603718230 -1 -1
-0.0372229450 -0.0627081610 -1 -1
-0.0358557920 -0.0655994820 -1 -1
-0.0344898580 -0.0687600360 -1 -1
-0.0332427970 -0.0718728150 -1 -1
-0.0322202320 -0.0746267900 -1 -1
-0.0315065960 -0.0767509170 -1 -1
-0.0311554170 -0.0780390680 -1 -1
-0.0311810350 -0.0783666620 -1 -1
-0.0315560020 -0.0777005380 -1 -1
-0.0322159180 -0.0761003150 -1 -1
-0.0330694650 -0.0737104230 -1 -1
-0.0340106660 -0.0707456240 -1 -1
-0.0349312140 -0.0674725930 -1 -1
-0.0357311380 -0.0641876960 -1 -1
-0.0363271670 -0.0611907170 -1 -1
-0.0366585640 -0.0587557760 -1 -1
-0.0366899360 -0.0571032810 -1 -1
-0.0364115350 -0.0563776900 -1 -1
-0.0358390640 -0.0566337790 -1 -1
-0.0350144140 -0.0578322600 -1 -1
-0.0340066380 -0.0598442790 -1 -1
-0.0329106710 -0.0624633920 -1 -1
-0.0318412420 -0.0654242610 -1 -1
-0.0309212660 -0.0684278250 -1 -1
-0.0302664300 -0.0711711530 -1 -1
-0.0299685740 -0.0733781840 0 -1
-0.0300805940 -0.0748273940 -1 -1
-0.0306065930 -0.0753734950 -1 -1
-0.0315006510 -0.0749611170 -1 -1
-0.0326742660 -0.0736289250 -1 -1
-0.0340090860 -0.0715039260 -1 -1
-0.0353709580 -0.0687878700 -1 -1
-0.0366229540 -0.0657379130 -1 -1
-0.0376368640 -0.0626424030 -1 -1
-0.0383041300 -0.0597933210 -1 -1
-0.0385474060 -0.0574587370 -1 -1
-0.0383317500 -0.0558583360 -1 -1
-0.0376716560 -0.0551436590 -1 -1
-0.0366298940 -0.0553842270 -1 -1
-0.0353075980 -0.0565606630 -1 -1
-0.0338291980 -0.0585655430 -1 -1
-0.0323269750 -0.0612119790 -1 -1
-0.0309281180 -0.0642494970 -1 -1
-0.0297450110 -0.0673867510 0 -1
-0.0288677350 -0.0703199910 0 -1
-0.0283569470 -0.0727646500 0 -1
-0.0282373410 -0.0744860360 0 -1
-0.0284945370 -0.0753247690 0 -1
-0.0290774050 -0.0752131090 0 -1
-0.0299047320 -0.0741799860 0 -1
-0.0308741650 -0.0723447650 -1 -1
-0.0318725010 -0.0699019870 -1 -1
-0.0327865840 -0.0671008370 -1 -1
-0.0335136150 -0.0642228600 -1 -1
-0.0339696250 -0.0615594450 -1 -1
-0.0340956180 -0.0593883460 -1 -1
-0.0338615370 -0.0579477970 -1 -1
-0.0332683360 -0.0574093860 -1 -1
-0.0323482260 -0.0578548840 -1 -1
-0.0311628020 -0.0592629030 -1 -1
-0.0297981620 -0.0615084880 0 -1
-0.0283568440 -0.0643756800 0 -1
-0.0269483100 -0.0675806500 0 -1
-0.0256798560 -0.0708012700 0 -1
-0.0246485990 -0.0737095480 0 -1
-0.0239347120 -0.0760046980 0 -1
-0.0235954970 -0.0774441520 0 -1
-0.0236590270 -0.0778683770 0 -1
-0.0241174360 -0.0772163890 0 -1
-0.0249226820 -0.0755314560 0 -1
-0.0259882920 -0.0729575030 0 -1
-0.0271986060 -0.0697266050 0 -1
-0.0284243070 -0.0661380160 0 -1
-0.0295402340 -0.0625295400 0 -1
-0.0304407780 -0.0592434970 -1 -1
-0.0310510700 -0.0565913240 -1 -1
-0.0313345000 -0.0548213730 -1 -1
-0.0312958940 -0.0540942580 -1 -1
-0.0309789480 -0.0544687960 -1 -1
-0.0304584190 -0.0558993520 -1 -1
-0.0298290000 -0.0582432280 0 -1
-0.0291933750 -0.0612754850 0 -1
-0.0286521440 -0.0647096770 0 -1
-0.0282968060 -0.0682243560 0 -1
-0.0282045920 -0.0714940830 0 -1
-0.0284331910 -0.0742214280 0 -1
-0.0290148250 -0.0761647800 0 -1
-0.0299512280 -0.0771585160 0 -1
-0.0312118310 -0.0771263900 -1 -1
-0.0327358080 -0.0760887330 -1 -1
-0.0344364800 -0.0741604860 -1 -1
-0.0362068610 -0.0715397280 -1 -1
-0.0379270280 -0.0684911240 -1 -1
-0.0394745850 -0.0653254790 -1 -1
-0.0407379230 -0.0623719360 -1 -1
-0.0416298130 -0.0599433650 -1 -1
-0.0420976620 -0.0583013410 -1 -1
-0.0421284190 -0.0576269150 -1 -1
-0.0417488560 -0.0580007180 -1 -1
-0.0410226770 -0.0593946540 -1 -1
-0.0400449770 -0.0616761060 -1 -1
-0.0389338610 -0.0646236660 -1 -1
-0.0378189670 -0.0679519010 -1 -1
-0.0368276770 -0.0713418990 -1 -1
-0.0360712130 -0.0744735710 -1 -1
-0.0356334540 -0.0770561410 -1 -1
-0.0355645010 -0.0788553040 -1 -1
-0.0358784010 -0.0797159240 -1 -1
-0.0365526700 -0.0795773020 -1 -1
-0.0375288660 -0.0784784840 -1 -1
-0.0387162260 -0.0765537880 -1 -1
-0.0400005210 -0.0740195760 -1 -1
-0.0412573070 -0.0711522440 -1 -1
-0.0423655600 -0.0682586400 -1 -1
-0.0432176900 -0.0656437240 -1 -1
-0.0437254050 -0.0635811440 -1 -1
-0.0438238720 -0.0622889070 -1 -1
-0.0434766870 -0.0619097910 -1 -1
-0.0426818840 -0.0624973010 -1 -1
-0.0414766930 -0.0640101080 -1 -1
-0.0399380470 -0.0663170960 -1 -1
-0.0381775490 -0.0692113860 -1 -1
-0.0363316780 -0.0724293480 -1 -1
-0.0345487350 -0.0756731240 -1 -1
-0.0329736610 -0.0786376500 -1 -1
-0.0317321520 -0.0810406830 -1 -1
-0.0309163060 -0.0826509250 -1 -1
-0.0305743160 -0.0833101690 -1 -1
-0.0307052680 -0.0829483310 -1 -1
-0.0312589260 -0.0815911510 -1 -1
-0.0321409950 -0.0793594920 -1 -1
-0.0332243750 -0.0764596370 -1 -1
-0.0343646570 -0.0731654420 -1 -1
-0.0354169870 -0.0697933340 -1 -1
-0.0362520480 -0.0666713020 -1 -1
-0.0367689110 -0.0641052090 -1 -1
-0.0369030120 -0.0623473390 -1 -1
-0.0366299470 -0.0615711930 -1 -1
-0.0359667570 -0.0618546340 -1 -1
-0.0349704670 -0.0631718250 -1 -1
-0.0337320800 -0.0653933640 -1 -1
-0.0323655160 -0.0682951820 -1 -1
-0.0309935180 -0.0715790710 -1 -1
-0.0297339540 -0.0749056050 0 -1
-0.0286892110 -0.0779341830 0 -1
-0.0279392000 -0.0803614390 0 -1
-0.0275367720 -0.0819512470 0 -1
-0.0275038100 -0.0825540920 0 -1
-0.0278274600 -0.0821167220 0 -1
-0.0284585880 -0.0806834060 0 -1
-0.0293154380 -0.0783897270 0 -1
-0.0302930750 -0.0754498620 -1 -1
-0.0312765350 -0.0721381840 -1 -1
-0.0321548490 -0.0687652810 -1 -1
-0.0328332960 -0.0656488810 -1 -1
-0.0332422870 -0.0630823340 -1 -1
-0.0333426290 -0.0613052980 -1 -1
-0.0331278920 -0.0604806200 -1 -1
-0.0326246980 -0.0606789070 -1 -1
-0.0318909470 -0.0618709000 -1 -1
-0.0310110380 -0.0639279200 -1 -1
-0.0300872740 -0.0666314590 -1 -1
-0.0292281600 -0.0696930860 0 -1
-0.0285359200 -0.0727840590 0 -1
-0.0280961010 -0.0755716730 0 -1
-0.0279710330 -0.0777569060 0 -1
-0.0281958320 -0.0791059310 0 -1
-0.0287736580 -0.0794709950 0 -1
-0.0296703760 -0.0788023360 0 -1
-0.0308136580 -0.0771533710 -1 -1
-0.0321004940 -0.0746766380 -1 -1
-0.0334113450 -0.0716076960 -1 -1
-0.0346257220 -0.0682392790 -1 -1
-0.0356351000 -0.0648906830 -1 -1
-0.0363518980 -0.0618757670 -1 -1
-0.0367154160 -0.0594719960 -1 -1
-0.0366961920 -0.0578940770 -1 -1
-0.0362988830 -0.0572749730 -1 -1
-0.0355625220 -0.0576546040 -1 -1
-0.0345575650 -0.0589760630 -1 -1
-0.0333802830 -0.0610909300 -1 -1
-0.0321452490 -0.0637752370 -1 -1
-0.0309758890 -0.0667542570 -1 -1
-0.0299926950 -0.0697312560 0 -1
-0.0293005310 -0.0724159030 0 -1
-0.0289781620 -0.0745499400 0 -1
-0.0290718740 -0.0759285510 0 -1
-0.0295925590 -0.0764166080 0 -1
-0.0305155730 -0.0759600750 -1 -1
-0.0317836380 -0.0745925050 -1 -1
-0.0333124970 -0.0724348930 -1 -1
-0.0349977380 -0.0696870920 -1 -1
-0.0367212360 -0.0666105800 -1 -1
-0.0383575280 -0.0635036700 -1 -1
-0.0397823040 -0.0606713840 -1 -1
-0.0408844660 -0.0583941520 -1 -1
-0.0415800410 -0.0569000390 -1 -1
-0.0418238730 -0.0563431970 -1 -1
-0.0416158350 -0.0567893030 -1 -1
-0.0410004790 -0.0582089700 -1 -1
-0.0400610780 -0.0604800490 -1 -1
-0.0389102300 -0.0633981540 -1 -1
-0.0376785230 -0.0666938530 -1 -1
-0.0365011880 -0.0700556230 -1 -1
-0.0355030760 -0.0731583740 -1 -1
-0.0347841930 -0.0756958740 -1 -1
-0.0344085140 -0.0774126480 -1 -1
-0.0343972600 -0.0781301400 -1 -1
-0.0347265940 -0.0777636900 -1 -1
-0.0353303460 -0.0763302650 -1 -1
-0.0361091440 -0.0739484830 -1 -1
-0.0369454100 -0.0708294100 -1 -1
-0.0377213150 -0.0672562320 -1 -1
-0.0383363860 -0.0635559160 -1 -1
-0.0387213060 -0.0600671280 -1 -1
-0.0388445310 -0.0571066940 -1 -1
-0.0387110170 -0.0549376170 -1 -1
-0.0383563120 -0.0537417690 -1 -1
-0.0378402910 -0.0536002830 -1 -1
-0.0372420870 -0.0544861430 -1 -1
-0.0366547600 -0.0562716800 -1 -1
-0.0361777630 -0.0587480720 -1 -1
-0.0359069200 -0.0616505980 -1 -1
-0.0359231250 -0.0646840620 -1 -1
-0.0362816200 -0.0675463910 -1 -1
-0.0370040640 -0.0699519290 -1 -1
-0.0380757250 -0.0716560210 -1 -1
-0.0394490250 -0.0724798760 -1 -1
-0.0410527460 -0.0723318070 -1 -1
-0.0428041440 -0.0712192290 -1 -1
-0.0446200000 -0.0692478930 -1 -1
-0.0464240050 -0.0666096280 -1 -1
-0.0481512060 -0.0635625040 -1 -1
-0.0497515980 -0.0604066330 -1 -1
-0.0511929520 -0.0574569660 -1 -1
-0.0524618100 -0.0550135370 -1 -1
-0.0535629990 -0.0533309010 -1 -1
-0.0545189660 -0.0525902870 -1 -1
-0.0553688250 -0.0528779660 -1 -1
-0.0561654720 -0.0541732680 -1 -1
-0.0569700060 -0.0563495540 -1 -1
-0.0578448950 -0.0591880010 -1 -1
-0.0588479110 -0.0624007130 -1 -1
-0.0600277270 -0.0656605560 -1 -1
-0.0614209030 -0.0686355250 -1 -1
-0.0630488330 -0.0710227650 -1 -1
-0.0649137530 -0.0725767520 -1 -1
-0.0669953340 -0.0731301090 -1 -1
-0.0692503620 -0.0726085410 -1 -1
-0.0716159700 -0.0710395150 -1 -1
-0.0740147840 -0.0685512840 -1 -1
-0.0763604700 -0.0653601090 -1 -1
-0.0785633720 -0.0617475430 -1 -1
-0.0805362500 -0.0580322120 -1 -1
-0.0821997640 -0.0545396500 -1 -1
-0.0834879390 -0.0515717650 -1 -1
-0.0843544860 -0.0493783200 -1 -1
-0.0847800510 -0.0481339190 -1 -1
-0.0847792480 -0.0479221580 -1 -1
-0.0844052140 -0.0487272420 -1 -1
-0.0837481720 -0.0504344710 -1 -1
-0.0829256040 -0.0528411650 -1 -1
-0.0820655290 -0.0556768950 -1 -1
-0.0812880650 -0.0586297150 -1 -1
-0.0806911810 -0.0613759580 -1 -1
-0.0803435740 -0.0636124430 -1 -1
-0.0802836530 -0.0650890930 -1 -1
-0.0805219220 -0.0656375730 -1 -1
-0.0810439020 -0.0651902900 -1 -1
-0.0818117080 -0.0637860480 -1 -1
-0.0827648670 -0.0615627860 -1 -1
-0.0838227610 -0.0587403910 -1 -1
-0.0848903340 -0.0555959280 -1 -1
-0.0858666920 -0.0524333080 -1 -1
-0.0866550270 -0.0495518880 -1 -1
-0.0871726300 -0.0472195720 -1 -1
-0.0873603590 -0.0456523520 -1 -1
-0.0871910070 -0.0449988250 -1 -1
-0.0866753830 -0.0453285390 -1 -1
-0.0858640760 -0.0466245450 -1 -1
-0.0848434750 -0.0487814320 -1 -1
-0.0837265310 -0.0516103430 -1 -1
-0.0826399110 -0.0548523570 -1 -1
-0.0817096630 -0.0582013080 -1 -1
-0.0810477370 -0.0613351220 -1 -1
-0.0807408670 -0.0639510480 -1 -1
-0.0808419160 -0.0657981630 -1 -1
-0.0813631270 -0.0667024290 -1 -1
-0.0822718850 -0.0665824810 -1 -1
-0.0834913020 -0.0654560390 -1 -1
-0.0849075180 -0.0634376000 -1 -1
-0.0863830080 -0.0607284560 -1 -1
-0.0877733360 -0.0575991080 -1 -1
-0.0889442150 -0.0543633170 -1 -1
-0.0897859460 -0.0513455340 -1 -1
-0.0902231730 -0.0488471980 -1 -1
-0.0902195520 -0.0471164990 -1 -1
-0.0897784060 -0.0463239580 -1 -1
-0.0889405860 -0.0465460330 -1 -1
-0.0877798610 -0.0477579190 -1 -1
-0.0863959360 -0.0498351160 -1 -1
-0.0849052880 -0.0525640900 -1 -1
-0.0834304820 -0.0556630940 -1 -1
-0.0820896450 -0.0588124830 -1 -1
-0.0809877030 -0.0616907900 -1 -1
-0.0802093790 -0.0640098440 -1 -1
-0.0798130340 -0.0655422850 -1 -1
-0.0798250050 -0.0661398550 -1 -1
-0.0802354990 -0.0657449300 -1 -1
-0.0809978480 -0.0643954770 -1 -1
-0.0820318790 -0.0622214380 -1 -1
-0.0832308250 -0.0594330000 -1 -1
-0.0844711300 -0.0563020720 -1 -1
-0.0856245340 -0.0531369090 -1 -1
-0.0865711910 -0.0502518120 -1 -1
-0.0872120260 -0.0479364580 -1 -1
-0.0874789790 -0.0464281210 -1 -1
-0.0873426130 -0.0458875180 -1 -1
-0.0868162710 -0.0463798640 -1 -1
-0.0859549880 -0.0478651880 -1 -1
-0.0848482600 -0.0502017770 -1 -1
-0.0836084500 -0.0531632470 -1 -1
-0.0823579540 -0.0564651380 -1 -1
-0.0812175830 -0.0597947490 -1 -1
-0.0802970180 -0.0628397440 -1 -1
-0.0796864330 -0.0653143470 -1 -1
-0.0794482370 -0.0669842140 -1 -1
-0.0796096780 -0.0676901590 -1 -1
-0.0801583930 -0.0673667120 -1 -1
-0.0810426270 -0.0660497730 -1 -1
-0.0821763760 -0.0638715120 -1 -1
-0.0834479150 -0.0610446800 -1 -1
-0.0847300040 -0.0578391400 -1 -1
-0.0858919280 -0.0545545030 -1 -1
-0.0868141500 -0.0514938810 -1 -1
-0.0874041310 -0.0489408000 -1 -1
-0.0876093920 -0.0471376430 -1 -1
-0.0874237310 -0.0462644360 -1 -1
-0.0868850930 -0.0464196140 -1 -1
-0.0860672400 -0.0476056550 -1 -1
-0.0850687830 -0.0497217900 -1 -1
-0.0840017550 -0.0525661830 -1 -1
-0.0829800940 -0.0558513820 -1 -1
-0.0821080550 -0.0592349000 -1 -1
-0.0814692070 -0.0623604060 -1 -1
-0.0811172190 -0.0649004790 -1 -1
-0.0810700240 -0.0665935680 -1 -1
-0.0813087850 -0.0672719830 -1 -1
-0.0817814460 -0.0668793730 -1 -1
-0.0824093680 -0.0654756610 -1 -1
-0.0830956500 -0.0632281710 -1 -1
-0.0837341160 -0.0603902260 -1 -1
-0.0842181860 -0.0572712970 -1 -1
-0.0844498270 -0.0542039100 -1 -1
-0.0843493890 -0.0515106480 -1 -1
-0.0838661660 -0.0494725750 -1 -1
-0.0829873190 -0.0483012100 -1 -1
-0.0817417860 -0.0481177780 -1 -1
-0.0801974160 -0.0489430150 -1 -1
-0.0784523750 -0.0506982770 -1 -1
-0.0766237770 -0.0532161810 -1 -1
-0.0748366010 -0.0562578210 -1 -1
-0.0732138760 -0.0595341770 -1 -1
-0.0718672490 -0.0627311520 -1 -1
-0.0708876260 -0.0655383480 -1 -1
-0.0703368630 -0.0676797540 -1 -1
-0.0702418500 -0.0689422820 -1 -1
-0.0705916300 -0.0691977190 -1 -1
-0.0713375310 -0.0684154760 -1 -1
-0.0723963550 -0.0666653080 -1 -1
-0.0736569520 -0.0641097710 -1 -1
-0.0749902270 -0.0609876510 -1 -1
-0.0762619980 -0.0575912180 -1 -1
-0.0773477210 -0.0542392240 -1 -1
-0.0781469340 -0.0512462740 -1 -1
-0.0785935730 -0.0488910380 -1 -1
-0.0786598430 -0.0473884640 -1 -1
-0.0783554600 -0.0468706220 -1 -1
-0.0777249850 -0.0473775380 -1 -1
-0.0768435420 -0.0488566510 -1 -1
-0.0758097940 -0.0511681990 -1 -1
-0.0747355390 -0.0540949600 -1 -1
-0.0737328030 -0.0573579650 -1 -1
-0.0729011530 -0.0606410610 -1 -1
-0.0723182640 -0.0636241570 -1 -1
-0.0720348910 -0.0660197510 -1 -1
-0.0720731290 -0.0676046620 -1 -1
-0.0724259020 -0.0682416450 -1 -1
-0.0730565280 -0.0678903290 -1 -1
-0.0738996430 -0.0666087910 -1 -1
-0.0748665510 -0.0645464910 -1 -1
-0.0758560810 -0.0619292130 -1 -1
-0.0767677580 -0.0590372590 -1 -1
-0.0775130230 -0.0561779830 -1 -1
-0.0780230070 -0.0536546930 -1 -1
-0.0782533420 -0.0517365150 -1 -1
-0.0781864400 -0.0506336100 -1 -1
-0.0778317530 -0.0504787180 -1 -1
-0.0772250830 -0.0513142410 -1 -1
-0.0764276920 -0.0530858800 -1 -1
-0.0755242010 -0.0556454660 -1 -1
-0.0746170630 -0.0587643090 -1 -1
-0.0738162280 -0.0621553700 -1 -1
-0.0732252840 -0.0655003380 -1 -1
-0.0729272300 -0.0684767640 -1 -1
-0.0729727470 -0.0707840360 -1 -1
-0.0733732100 -0.0721724960 -1 -1
-0.0741001290 -0.0724750100 -1 -1
-0.0750906190 -0.0716306720 -1 -1
-0.0762566660 -0.0696922200 -1 -1
-0.0774958770 -0.0668167380 -1 -1
-0.0787016670 -0.0632440780 -1 -1
-0.0797718210 -0.0592705210 -1 -1
-0.0806161480 -0.0552236500 -1 -1
-0.0811639360 -0.0514379670 -1 -1
-0.0813700750 -0.0482278110 -1 -1
-0.0812184710 -0.0458580010 -1 -1
-0.0807223980 -0.0445173160 -1 -1
-0.0799219010 -0.0442998860 -1 -1
-0.0788789300 -0.0451960150 -1 -1
-0.0776716690 -0.0470925340 -1 -1
-0.0763889250 -0.0497844040 -1 -1
-0.0751240510 -0.0529974010 -1 -1
-0.0739680220 -0.0564161740 -1 -1
-0.0730026940 -0.0597123580 -1 -1
-0.0722948700 -0.0625729640 -1 -1
-0.0718901810 -0.0647299920 -1 -1
-0.0718063040 -0.0659885190 -1 -1
-0.0720276350 -0.0662493300 -1 -1
-0.0725042900 -0.0655222100 -1 -1
-0.0731566640 -0.0639259400 -1 -1
-0.0738849250 -0.0616737960 -1 -1
-0.0745814400 -0.0590476560 -1 -1
-0.0751433110 -0.0563654710 -1 -1
-0.0754828580 -0.0539463070 -1 -1
-0.0755356540 -0.0520771610 -1 -1
-0.0752667220 -0.0509849480 -1 -1
-0.0746751350 -0.0508151200 -1 -1
-0.0737960760 -0.0516174670 -1 -1
-0.0726985020 -0.0533406780 -1 -1
-0.0714775940 -0.0558376420 -1 -1
-0.0702434040 -0.0588815670 -1 -1
-0.0691083680 -0.0621902550 -1 -1
-0.0681759990 -0.0654545240 -1 -1
-0.0675318340 -0.0683678240 -1 -1
-0.0672364570 -0.0706551330 -1 -1
-0.0673200340 -0.0720980890 -1 -1
-0.0677786850 -0.0725536390 -1 -1
-0.0685739860 -0.0719666290 -1 -1
-0.0696364480 -0.0703773060 -1 -1
-0.0708719760 -0.0679216500 -1 -1
-0.0721696110 -0.0648207920 -1 -1
-0.0734104350 -0.0613586830 -1 -1
-0.0744786850 -0.0578523320 -1 -1
-0.0752746470 -0.0546208130 -1 -1
-0.0757267340 -0.0519563780 -1 -1
-0.0757999740 -0.0500985070 -1 -1
-0.0754990560 -0.0492121330 -1 -1
-0.0748651060 -0.0493721100 -1 -1
-0.0739670400 -0.0505557230 -1 -1
-0.0728906650 -0.0526438150 -1 -1
-0.0717297940 -0.0554302770 -1 -1
-0.0705812340 -0.0586397000 -1 -1
-0.0695410730 -0.0619529920 -1 -1
-0.0686983410 -0.0650396090 -1 -1
-0.0681258850 -0.0675924210 -1 -1
-0.0678722630 -0.0693595610 -1 -1
-0.0679572450 -0.0701694300 -1 -1
-0.0683695720 -0.0699471050 -1 -1
-0.0690654030 -0.0687202390 -1 -1
-0.0699696400 -0.0666139510 -1 -1
-0.0709834160 -0.0638369850 -1 -1
-0.0719971650 -0.0606618590 -1 -1
-0.0729050330 -0.0573994120 -1 -1
-0.0736171420 -0.0543677860 -1 -1
-0.0740686660 -0.0518599420 -1 -1
-0.0742247290 -0.0501165830 -1 -1
-0.0740800610 -0.0493070270 -1 -1
-0.0736548970 -0.0495146120 -1 -1
-0.0729905180 -0.0507249010 -1 -1
-0.0721467360 -0.0528213060 -1 -1
-0.0712014900 -0.0555942140 -1 -1
-0.0702505760 -0.0587639960 -1 -1
-0.0694039680 -0.0620122610 -1 -1
-0.0687758060 -0.0650155960 -1 -1
-0.0684688870 -0.0674786590 -1 -1
-0.0685585920 -0.0691636520 -1 -1
-0.0690816530 -0.0699133710 -1 -1
-0.0700314630 -0.0696670420 -1 -1
-0.0713584890 -0.0684673180 -1 -1
-0.0729737270 -0.0664548690 -1 -1
-0.0747541080 -0.0638501690 -1 -1
-0.0765504750 -0.0609271810 -1 -1
-0.0781999330 -0.0579851150 -1 -1
-0.0795426200 -0.0553216130 -1 -1
-0.0804399430 -0.0532071760 -1 -1
-0.0807901970 -0.0518613110 -1 -1
-0.0805386600 -0.0514326010 -1 -1
-0.0796814440 -0.0519841010 -1 -1
-0.0782638690 -0.0534862930 -1 -1
-0.0763743920 -0.0558197600 -1 -1
-0.0741347280 -0.0587855740 -1 -1
-0.0716871050 -0.0621207290 -1 -1
-0.0691802520 -0.0655201580 -1 -1
-0.0667553140 -0.0686664970 -1 -1
-0.0645322790 -0.0712632390 -1 -1
-0.0625978340 -0.0730652300 -1 -1
-0.0609962460 -0.0739034120 -1 -1
-0.0597253550 -0.0737026020 -1 -1
-0.0587396140 -0.0724912670 -1 -1
-0.0579597370 -0.0704026730 -1 -1
-0.0572851450 -0.0676668620 -1 -1
-0.0566053490 -0.0645919430 -1 -1
-0.0558097760 -0.0615334060 -1 -1
-0.0547978200 -0.0588533290 -1 -1
-0.0534898210 -0.0568761180 -1 -1
-0.0518371160 -0.0558496960 -1 -1
-0.0498283180 -0.0559186670 -1 -1
-0.0474905020 -0.0571120770 -1 -1
-0.0448863060 -0.0593465570 -1 -1
-0.0421087190 -0.0624431180 -1 -1
-0.0392743740 -0.0661522620 -1 -1
-0.0365149190 -0.0701815310 -1 -1
-0.0339659410 -0.0742222230 -1 -1
-0.0317541400 -0.0779742950 -1 -1
-0.0299846280 -0.0811690410 0 -1
-0.0287306250 -0.0835888400 0 -1
-0.0280271600 -0.0850829230 0 -1
-0.0278686420 -0.0855791120 0 -1
-0.0282087780 -0.0850923540 0 -1
-0.0289621500 -0.0837285970 0 -1
-0.0300093310 -0.0816793910 -1 -1
-0.0312081030 -0.0792039770 -1 -1
-0.0324103410 -0.0766008460 -1 -1
-0.0334804620 -0.0741749970 -1 -1
-0.0343109260 -0.0722075810 -1 -1
-0.0348330650 -0.0709310170 -1 -1
-0.0350234530 -0.0705088990 -1 -1
-0.0349051350 -0.0710204620 -1 -1
-0.0345419540 -0.0724517150 -1 -1
-0.0340261350 -0.0746950220 -1 -1
-0.0334623790 -0.0775570400 -1 -1
-0.0329529910 -0.0807750420 -1 -1
-0.0325872120 -0.0840426480 -1 -1
-0.0324352200 -0.0870438320 -1 -1
-0.0325450950 -0.0894895140 -1 -1
-0.0329408930 -0.0911496520 -1 -1
-0.0336215810 -0.0918766780 -1 -1
-0.0345615500 -0.0916190480 -1 -1
-0.0357124950 -0.0904244110 -1 -1
-0.0370055490 -0.0884320770 -1 -1
-0.0383537340 -0.0858561280 -1 -1
-0.0396563740 -0.0829626700 -1 -1
-0.0408066630 -0.0800443570 -1 -1
-0.0417022730 -0.0773931980 -1 -1
-0.0422578760 -0.0752726100 -1 -1
-0.0424174080 -0.0738914420 -1 -1
-0.0421633870 -0.0733832670 -1 -1
-0.0415213280 -0.0737938060 -1 -1
-0.0405583920 -0.0750792140 -1 -1
-0.0393757170 -0.0771155670 -1 -1
-0.0380949230 -0.0797148330 -1 -1
-0.0368414210 -0.0826416770 -1 -1
-0.0357280820 -0.0856304910 -1 -1
-0.0348424460 -0.0884055180 -1 -1
-0.0342398760 -0.0907055690 -1 -1
-0.0339431830 -0.0923113790 -1 -1
-0.0339464820 -0.0930711890 -1 -1
-0.0342196010 -0.0929196270 -1 -1
-0.0347103990 -0.0918856770 -1 -1
-0.0353454360 -0.0900871670 -1 -1
-0.0360326790 -0.0877133000 -1 -1
-0.0366695590 -0.0850014920 -1 -1
-0.0371560130 -0.0822150630 -1 -1
-0.0374088360 -0.0796235800 -1 -1
-0.0373733400 -0.0774831990 -1 -1
-0.0370300950 -0.0760152100 -1 -1
-0.0363964760 -0.0753842120 -1 -1
-0.0355235220 -0.0756787450 -1 -1
-0.0344890240 -0.0768970700 -1 -1
-0.0333882220 -0.0789416210 -1 -1
-0.0323238350 -0.0816256850 -1 -1
-0.0313969980 -0.0846923880 -1 -1
-0.0306999910 -0.0878412940 -1 -1
-0.0303105310 -0.0907576980 -1 -1
-0.0302865450 -0.0931430100 -1 -1
-0.0306605980 -0.0947453290 -1 -1
-0.0314345010 -0.0953872970 -1 -1
-0.0325755600 -0.0949875780 -1 -1
-0.0340161370 -0.0935725990 -1 -1
-0.0356581660 -0.0912748550 -1 -1
-0.0373829070 -0.0883163540 -1 -1
-0.0390639790 -0.0849810120 -1 -1
-0.0405810530 -0.0815827440 -1 -1
-0.0418321450 -0.0784346970 -1 -1
-0.0427428020 -0.0758223160 -1 -1
-0.0432712300 -0.0739807690 -1 -1
-0.0434095610 -0.0730758310 -1 -1
-0.0431820680 -0.0731874910 -1 -1
-0.0426411010 -0.0742984030 -1 -1
-0.0418612210 -0.0762919690 -1 -1
-0.0409319810 -0.0789634520 -1 -1
-0.0399501670 -0.0820426290 -1 -1
-0.0390123450 -0.0852229330 -1 -1
-0.0382075360 -0.0881919740 -1 -1
-0.0376089350 -0.0906598330 -1 -1
-0.0372651510 -0.0923842680 -1 -1
-0.0371937770 -0.0931944570 -1 -1
-0.0373795850 -0.0930116240 -1 -1
-0.0377772540 -0.0918599390 -1 -1
-0.0383177240 -0.0898632900 -1 -1
-0.0389172020 -0.0872294870 -1 -1
-0.0394871360 -0.0842267040 -1 -1
-0.0399436080 -0.0811560280 -1 -1
-0.0402159460 -0.0783212470 -1 -1
-0.0402543390 -0.0759979630 -1 -1
-0.0400348690 -0.0744072250 -1 -1
-0.0395605160 -0.0736970430 -1 -1
-0.0388587630 -0.0739308290 -1 -1
-0.0379777730 -0.0750817070 -1 -1
-0.0369828410 -0.0770335370 -1 -1
-0.0359533120 -0.0795899980 -1 -1
-0.0349785800 -0.0824922370 -1 -1
-0.0341514770 -0.0854431100 -1 -1
-0.0335584180 -0.0881345650 -1 -1
-0.0332677420 -0.0902764590 -1 -1
-0.0333196600 -0.0916257890 -1 -1
-0.0337206510 -0.0920136590 -1 -1
-0.0344427530 -0.0913670750 -1 -1
-0.0354269200 -0.0897217200 -1 -1
-0.0365899060 -0.0872204650 -1 -1
-0.0378339330 -0.0840963870 -1 -1
-0.0390572640 -0.0806453050 -1 -1
-0.0401633280 -0.0771939400 -1 -1
-0.0410670060 -0.0740670960 -1 -1
-0.0416980590 -0.0715560820 -1 -1
-0.0420031320 -0.0698916970 -1 -1
-0.0419486730 -0.0692254400 -1 -1
-0.0415265130 -0.0696196580 -1 -1
-0.0407612980 -0.0710442580 -1 -1
-0.0397156900 -0.0733784160 -1 -1
-0.0384886150 -0.0764187170 -1 -1
-0.0372049820 -0.0798951960 -1 -1
-0.0359987950 -0.0834946740 -1 -1
-0.0349936160 -0.0868897230 -1 -1
-0.0342853270 -0.0897708010 -1 -1
-0.0339310670 -0.0918783970 -1 -1
-0.0339453980 -0.0930318990 -1 -1
-0.0343026640 -0.0931509820 -1 -1
-0.0349433770 -0.0922646640 -1 -1
-0.0357820200 -0.0905058780 -1 -1
-0.0367145820 -0.0880936970 -1 -1
-0.0376258930 -0.0853077460 -1 -1
-0.0383983600 -0.0824591510 -1 -1
-0.0389233150 -0.0798606770 -1 -1
-0.0391134790 -0.0777978230 -1 -1
-0.0389130950 -0.0765027510 -1 -1
-0.0383037750 -0.0761322780 -1 -1
-0.0373070760 -0.0767510580 -1 -1
-0.0359851920 -0.0783224210 -1 -1
-0.0344390410 -0.0807091880 -1 -1
-0.0328016400 -0.0836845750 -1 -1
-0.0312257710 -0.0869525140 -1 -1
-0.0298670080 -0.0901770270 0 -1
-0.0288652390 -0.0930183030 0 -1
-0.0283287290 -0.0951702140 0 -1
-0.0283231980 -0.0963936840 0 -1
-0.0288651840 -0.0965419740 0 -1
-0.0299184900 -0.0955757230 0 -1
-0.0313952960 -0.0935660270 -1 -1
-0.0331645800 -0.0906835260 -1 -1
-0.0350672450 -0.0871743400 -1 -1
-0.0369335790 -0.0833288690 -1 -1
-0.0385997090 -0.0794502160 -1 -1
-0.0399235740 -0.0758259000 -1 -1
-0.0408008790 -0.0727059640 -1 -1
-0.0411777110 -0.0702910300 -1 -1
-0.0410549280 -0.0687276160 -1 -1
-0.0404823920 -0.0681007770 -1 -1
-0.0395463180 -0.0684186460 -1 -1
-0.0383555140 -0.0695954620 -1 -1
-0.0370300180 -0.0714439060 -1 -1
-0.0356916440 -0.0736836690 -1 -1
-0.0344548890 -0.0759686730 -1 -1
-0.0334184540 -0.0779304430 -1 -1
-0.0326583660 -0.0792283470 -1 -1
-0.0322217010 -0.0795931660 -1 -1
-0.0321195730 -0.0788541790 -1 -1
-0.0323218190 -0.0769489300 -1 -1
-0.0327586490 -0.0739204720 -1 -1
-0.0333314450 -0.0699057580 -1 -1
-0.0339290280 -0.0651142540 -1 -1
-0.0344432270 -0.0597957360 -1 -1
-0.0347803430 -0.0542050230 -1 -1
-0.0348691320 -0.0485770300 -1 -1
-0.0346670020 -0.0431166360 -1 -1
-0.0341640220 -0.0379952810 -1 -1
-0.0333822770 -0.0333438920 -1 -1
-0.0323692490 -0.0292387940 -1 0
-0.0311879880 -0.0256859830 -1 0
-0.0299087970 -0.0226121000 0 0
-0.0286046280 -0.0198666810 0 0
-0.0273492820 -0.0172366240 0 0
-0.0262165900 -0.0144714840 0 0
-0.0252784290 -0.0113136240 0 0
-0.0245996880 -0.0075243390 0 0
-0.0242301210 -0.0029021460 0 0
-0.0241953630 0.0027031850 0 0
-0.0244903670 0.0093775430 0 0
-0.0250774470 0.0171326840 0 0
-0.0258894430 0.0259037360 0 0
-0.0268372130 0.0355544390 0 1
-0.0278193200 0.0458880390 0 1
-0.0287315320 0.0566631270 0 1
-0.0294756360 0.0676161650 0 1
-0.0299684390 0.0784909590 0 1
-0.0301505570 0.0890696320 -1 1
-0.0299935390 0.0991968160 0 1
-0.0295045120 0.1087932910 0 1
-0.0287274070 0.1178609990 0 1
-0.0277391160 0.1264812210 0 1
-0.0266402890 0.1348037780 0 1
-0.0255431810 0.1430251450 0 1
-0.0245594780 0.1513587180 0 1
-0.0237893690 0.1600044960 0 1
-0.0233121250 0.1691237850 0 1
-0.0231789400 0.1788210230 0 1
-0.0234090310 0.1891330650 0 1
-0.0239886090 0.2000253630 0 1
-0.0248712390 0.2113935240 0 1
-0.0259792300 0.2230692360 0 1
-0.0272079860 0.2348308640 0 1
-0.0284354480 0.2464188180 0 1
-0.0295361140 0.2575541660 0 1
-0.0303958290 0.2679583960 -1 1
-0.0309229930 0.2773733530 -1 1
-0.0310546480 0.2855811390 -1 1
-0.0307593480 0.2924234060 -1 1
-0.0300391760 0.2978190310 -1 1
-0.0289308940 0.3017781360 0 1
-0.0275045410 0.3044088300 0 1
-0.0258590110 0.3059129820 0 1
-0.0241153030 0.3065690920 0 1
-0.0224068930 0.3067024920 0 1
-0.0208660650 0.3066470080 0 1
-0.0196080730 0.3067068310 0 1
-0.0187176550 0.3071266970 0 1
-0.0182405650 0.3080727570 0 1
-0.0181797580 0.3096219090 0 1
-0.0184955150 0.3117574230 0 1
-0.0191101820 0.3143718810 0 1
-0.0199186360 0.3172797450 0 1
-0.0208033560 0.3202396160 0 1
-0.0216502960 0.3229828390 0 1
-0.0223616240 0.3252428410 0 1
-0.0228634090 0.3267808040 0 1
-0.0231084370 0.3274070890 0 1
-0.0230759540 0.3269998260 0 1
-0.0227704870 0.3255200700 0 1
-0.0222204320 0.3230201000 0 1
-0.0214755260 0.3196414290 0 1
-0.0206025150 0.3156017400 0 1
-0.0196796070 0.3111728490 0 1
-0.0187903850 0.3066527080 0 1
-0.0180171270 0.3023336660 0 1
-0.0174338900 0.2984699550 0 1
-0.0171002460 0.2952495020 0 1
-0.0170558810 0.2927751770 0 1
-0.0173153810 0.2910581040 0 1
-0.0178631810 0.2900227720 0 1
-0.0186502360 0.2895208450 0 1
-0.0195947400 0.2893488560 0 1
-0.0205887750 0.2892659050 0 1
-0.0215111990 0.2890109850 0 1
-0.0222444870 0.2883223770 0 1
-0.0226911430 0.2869606950 0 1
-0.0227856370 0.2847334860 0 1
-0.0224999850 0.2815167290 0 1
-0.0218435370 0.2772694510 0 1
-0.0208592150 0.2720391990 0 1
-0.0196184770 0.2659576110 0 1
-0.0182151160 0.2592280360 0 1
-0.0167560310 0.2521086600 0 1
-0.0153488750 0.2448929090 0 1
-0.0140900110 0.2378867190 0 1
-0.0130559290 0.2313823110 0 1
-0.0122977070 0.2256299020 0 1
-0.0118369100 0.2208108230 0 1
-0.0116635420 0.2170169790 0 1
-0.0117382620 0.2142400620 0 1
-0.0119994790 0.2123697830 0 1
-0.0123731640 0.2112003680 0 1
-0.0127825670 0.2104479770 0 1
-0.0131564820 0.2097806030 0 1
-0.0134354010 0.2088560800 0 1
-0.0135742760 0.2073601970 0 1
-0.0135418870 0.2050386850 0 1
-0.0133198240 0.2017206050 0 1
-0.0129041160 0.1973332130 0 1
-0.0123089040 0.1919087130 0 1
-0.0115691200 0.1855820880 0 1
-0.0107400680 0.1785787680 0 1
-0.0098933820 0.1711922720 0 1
-0.0091091790 0.1637538070 0 1
-0.0084651390 0.1565973580 0 1
-0.0080252640 0.1500251270 0 1
-0.0078312740 0.1442783240 0 1
-0.0078975720 0.1395164980 0 1
-0.0082089730 0.1358054290 0 1
-0.0087208480 0.1331122250 0 1
-0.0093626840 0.1313085220 0 1
-0.0100461510 0.1301836180 0 1
-0.0106768440 0.1294656980 0 1
-0.0111666060 0.1288474010 0 1
-0.0114433680 0.1280150250 0 1
-0.0114577930 0.1266806790 0 1
-0.0111876860 0.1246117540 0 1
-0.0106405690 0.1216520630 0 1
-0.0098536200 0.1177347110 0 1
-0.0088900790 0.1128880460 0 1
-0.0078324900 0.1072331570 0 1
-0.0067739120 0.1009723080 0 1
-0.0058078800 0.0943706950 0 1
-0.0050181980 0.0877332350 0 1
-0.0044706710 0.0813766890 0 1
-0.0042081770 0.0755991290 0 1
-0.0042489080 0.0706512560 0 1
-0.0045870790 0.0667133780 0 1
-0.0051954270 0.0638796160 0 1
-0.0060284580 0.0621489090 0 1
-0.0070253740 0.0614213580 0 1
-0.0081128440 0.0615009780 0 1
-0.0092088980 0.0621102140 0 1
-0.0102287860 0.0629195510 0 1
-0.0110926280 0.0635872370 0 1
-0.0117341580 0.0637986800 0 1
-0.0121090800 0.0632972100 0 1
-0.0122008910 0.0619036580 0 1
-0.0120227840 0.0595267800 0 1
-0.0116157340 0.0561678390 0 1
-0.0110436650 0.0519211410 0 1
-0.0103870110 0.0469689350 0 1
-0.0097357680 0.0415674170 0 1
-0.0091823910 0.0360228230 0 1
-0.0088141020 0.0306601310 0 1
-0.0087041890 0.0257890660 0 0
-0.0089029770 0.0216725130 0 0
-0.0094303500 0.0185015260 0 0
-0.0102716070 0.0163784350 0 0
-0.0113776700 0.0153073910 0 0
-0.0126697490 0.0151928330 0 0
-0.0140477300 0.0158476730 0 0
-0.0154010360 0.0170112260 0 0
-0.0166208970 0.0183745340 0 0
-0.0176126950 0.0196104640 0 0
-0.0183062160 0.0204061620 0 0
-0.0186616090 0.0204941890 0 0
-0.0186706210 0.0196782230 0 0
-0.0183546280 0.0178521140 0 0
-0.0177610460 0.0150125910 0 0
-0.0169584090 0.0112638610 0 0
-0.0160302410 0.0068112760 0 0
-0.0150687160 0.0019427130 0 0
-0.0141690810 -0.0030017390 0 0
-0.0134239310 -0.0076686730 0 0
-0.0129153450 -0.0117327940 0 0
-0.0127048220 -0.0149334220 0 0
-0.0128236540 -0.0171005120 0 0
-0.0132672590 -0.0181684140 0 0
-0.0139956120 -0.0181778360 0 0
-0.0149390540 -0.0172670580 0 0
-0.0160070940 -0.0156550640 0 0
-0.0170983100 -0.0136202260 0 0
-0.0181106810 -0.0114756050 0 0
-0.0189520630 -0.0095395340 0 0
-0.0195499360 -0.0081031620 0 0
-0.0198582560 -0.0074013440 0 0
-0.0198601280 -0.0075925460 0 0
-0.0195679380 -0.0087483410 0 0
-0.0190227410 -0.0108500260 0 0
-0.0182916710 -0.0137910390 0 0
-0.0174615440 -0.0173854780 0 0
-0.0166295650 -0.0213830980 0 0
-0.0158936520 -0.0254911940 0 0
-0.0153438920 -0.0294032740 0 0
-0.0150553650 -0.0328319980 0 -1
-0.0150821550 -0.0355405640 0 -1
-0.0154521390 -0.0373662690 0 -1
-0.0161625880 -0.0382338950 0 -1
-0.0171772910 -0.0381601560 0 -1
-0.0184261230 -0.0372504350 0 -1
-0.0198084100 -0.0356882090 0 -1
-0.0212015340 -0.0337179140 0 -1
-0.0224747180 -0.0316225230 0 -1
-0.0235056890 -0.0296971140 0 0
-0.0241970840 -0.0282202100 0 0
-0.0244896210 -0.0274260750 0 0
-0.0243696100 -0.0274814510 0 0
-0.0238696100 -0.0284687300 0 0
-0.0230629380 -0.0303767470 0 -1
-0.0220539950 -0.0331001320 0 -1
-0.0209660410 -0.0364476450 0 -1
-0.0199277270 -0.0401595220 0 -1
-0.0190595550 -0.0439321820 0 -1
-0.0184611480 -0.0474473790 0 -1
-0.0182005880 -0.0504040440 0 -1
-0.0183075890 -0.0525503300 0 -1
-0.0187718850 -0.0537107830 0 -1
-0.0195469990 -0.0538040710 0 -1
-0.0205578680 -0.0528496090 0 -1
-0.0217097070 -0.0509644610 0 -1
-0.0228966030 -0.0483532780 0 -1
-0.0240099830 -0.0452911630 0 -1
-0.0249473070 -0.0420976410 0 -1
-0.0256212150 -0.0391044510 0 -1
-0.0259691270 -0.0366241930 0 -1
-0.0259613750 -0.0349242630 0 -1
-0.0256047030 -0.0342052500 0 -1
-0.0249401340 -0.0345818160 0 -1
-0.0240371650 -0.0360674960 0 -1
-0.0229865840 -0.0385679020 0 -1
-0.0218926100 -0.0418864250 0 -1
-0.0208641180 -0.0457441470 0 -1
-0.0200048320 -0.0498119420 0 -1
-0.0194027730 -0.0537479800 0 -1
-0.0191203200 -0.0572332990 0 -1
-0.0191873520 -0.0600021920 0 -1
-0.0196000210 -0.0618664650 0 -1
-0.0203250270 -0.0627321160 0 -1
-0.0213055510 -0.0626073670 0 -1
-0.0224649760 -0.0616011890 0 -1
-0.0237087870 -0.0599112280 0 -1
-0.0249284050 -0.0578017690 0 -1
-0.0260099420 -0.0555746640 0 -1
-0.0268474730 -0.0535370800 0 -1
-0.0273574960 -0.0519698540 0 -1
-0.0274905150 -0.0510996450 0 -1
-0.0272371100 -0.0510772450 0 -1
-0.0266279240 -0.0519637460 0 -1
-0.0257282830 -0.0537261610 0 -1
-0.0246287430 -0.0562430850 0 -1
-0.0234334920 -0.0593186460 0 -1
-0.0222488020 -0.0627012020 0 -1
-0.0211732330 -0.0661047240 0 -1
-0.0202901670 -0.0692335390 0 -1
-0.0196623590 -0.0718102780 0 -1
-0.0193277530 -0.0736035300 0 -1
-0.0192959960 -0.0744514250 0 -1
-0.0195463150 -0.0742785790 0 -1
-0.0200280620 -0.0731042860 0 -1
-0.0206646900 -0.0710414130 0 -1
-0.0213611780 -0.0682873280 0 -1
-0.0220145420 -0.0651081220 0 -1
-0.0225261100 -0.0618164810 0 -1
-0.0228132330 -0.0587438200 0 -1
-0.0228183300 -0.0562084940 0 -1
-0.0225148380 -0.0544827710 0 -1
-0.0219108750 -0.0537613640 0 -1
-0.0210507050 -0.0541362390 0 -1
-0.0200127290 -0.0555843630 0 -1
-0.0189026610 -0.0579716550 0 -1
-0.0178415510 -0.0610698340 0 -1
-0.0169498570 -0.0645807620 0 -1
-0.0163308520 -0.0681660150 0 -1
-0.0160579640 -0.0714810740 0 -1
-0.0161690640 -0.0742109010 0 -1
-0.0166666680 -0.0761013290 0 -1
-0.0175208900 -0.0769829270 0 -1
-0.0186737120 -0.0767867980 0 -1
-0.0200451660 -0.0755509870 0 -1
-0.0215409010 -0.0734158170 0 -1
-0.0230589430 -0.0706088540 0 -1
-0.0244948980 -0.0674220050 0 -1
-0.0257475770 -0.0641833830 0 -1
-0.0267269950 -0.0612262340 0 -1
-0.0273639690 -0.0588572630 0 -1
-0.0276189350 -0.0573270920 0 -1
-0.0274881300 -0.0568051750 0 -1
-0.0270055780 -0.0573613770 0 -1
-0.0262391340 -0.0589573790 0 -1
-0.0252804800 -0.0614504080 0 -1
-0.0242318850 -0.0646086430 0 -1
-0.0231939650 -0.0681358640 0 -1
-0.0222577670 -0.0717025470 0 -1
-0.0215016450 -0.0749792470 0 -1
-0.0209902380 -0.0776671350 0 -1
-0.0207720210 -0.0795225440 0 -1
-0.0208741600 -0.0803761540 0 -1
-0.0212966580 -0.0801490550 0 -1
-0.0220085130 -0.0788646180 0 -1
-0.0229473440 -0.0766509480 0 -1
-0.0240232850 -0.0737299800 0 -1
-0.0251276900 -0.0703943020 0 -1
-0.0261458380 -0.0669751500 0 -1
-0.0269711030 -0.0638046210 0 -1
-0.0275172660 -0.0611780180 0 -1
-0.0277268310 -0.0593257170 0 -1
-0.0275753970 -0.0583994890 0 -1
-0.0270733350 -0.0584689620 0 -1
-0.0262659400 -0.0595215730 0 -1
-0.0252317560 -0.0614635520 0 -1
-0.0240771570 -0.0641229540 0 -1
-0.0229259950 -0.0672575230 0 -1
-0.0219061380 -0.0705710460 0 -1
-0.0211361250 -0.0737405470 0 -1
-0.0207135310 -0.0764527400 0 -1
-0.0207046130 -0.0784434260 0 -1
-0.0211352910 -0.0795308030 0 -1
-0.0219853810 -0.0796351680 0 -1
-0.0231885960 -0.0787825770 0 -1
-0.0246395900 -0.0770955470 0 -1
-0.0262067290 -0.0747760740 0 -1
-0.0277472730 -0.0720846950 0 -1
-0.0291219370 -0.0693163800 0 -1
-0.0302076740 -0.0667726160 -1 -1
-0.0309085010 -0.0647308400 -1 -1
-0.0311636500 -0.0634152420 -1 -1
-0.0309522830 -0.0629726800 -1 -1
-0.0302945520 -0.0634566430 -1 -1
-0.0292495750 -0.0648228720 0 -1
-0.0279109610 -0.0669375410 0 -1
-0.0263992880 -0.0695940420 0 -1
-0.0248505640 -0.0725343470 0 -1
-0.0234017330 -0.0754731740 0 -1
-0.0221760890 -0.0781225830 0 -1
-0.0212709320 -0.0802149210 0 -1
-0.0207485220 -0.0815251620 0 -1
-0.0206306640 -0.0818942980 0 -1
-0.0208973000 -0.0812509680 0 -1
-0.0214896310 -0.0796247000 0 -1
-0.0223175540 -0.0771460670 0 -1
-0.0232698030 -0.0740336690 0 -1
-0.0242245400 -0.0705715480 0 -1
-0.0250592470 -0.0670817800 0 -1
-0.0256602660 -0.0638948620 0 -1
-0.0259329880 -0.0613188040 0 -1
-0.0258124650 -0.0596088530 0 -1
-0.0252719690 -0.0589406720 0 -1
-0.0243264730 -0.0593901870 0 -1
-0.0230300670 -0.0609238600 0 -1
-0.0214686450 -0.0634014300 0 -1
-0.0197504030 -0.0665901960 0 -1
-0.0179965560 -0.0701887160 0 -1
-0.0163327840 -0.0738579750 0 -1
-0.0148797640 -0.0772571610 0 -1
-0.0137415850 -0.0800791090 0 -1
-0.0129939740 -0.0820799880 0 -1
-0.0126756730 -0.0830999140 0 -1
-0.0127844840 -0.0830742850 0 -1
-0.0132775800 -0.0820370610 0 -1
-0.0140758600 -0.0801169000 0 -1
-0.0150722980 -0.0775265090 0 -1
-0.0161431920 -0.0745447920 0 -1
-0.0171604440 -0.0714908310 0 -1
-0.0180040820 -0.0686911130 0 -1
-0.0185747450 -0.0664451610 0 -1
-0.0188040630 -0.0649950810 0 -1
-0.0186603340 -0.0645015340 0 -1
-0.0181494170 -0.0650270080 0 -1
-0.0173129780 -0.0665287540 0 -1
-0.0162252860 -0.0688639820 0 -1
-0.0149881790 -0.0718062020 0 -1
-0.0137230010 -0.0750689110 0 -1
-0.0125583960 -0.0783343470 0 -1
-0.0116150500 -0.0812857370 0 -1
-0.0109911150 -0.0836391760 0 -1
-0.0107515550 -0.0851703320 0 -1
-0.0109224340 -0.0857339240 0 -1
-0.0114898800 -0.0852767960 0 -1
-0.0124027780 -0.0838446850 0 -1
-0.0135778940 -0.0815801820 0 -1
-0.0149068470 -0.0787097340 0 -1
-0.0162657780 -0.0755209310 0 -1
-0.0175283830 -0.0723326660 0 -1
-0.0185807620 -0.0694610460 0 -1
-0.0193349000 -0.0671865260 0 -1
-0.0197381580 -0.0657282660 0 -1
-0.0197779530 -0.0652268090 0 -1
-0.0194823410 -0.0657325600 0 -1
-0.0189166680 -0.0672001860 0 -1
-0.0181751210 -0.0694922460 0 -1
-0.0173677170 -0.0723933390 0 -1
-0.0166064390 -0.0756322780 0 -1
-0.0159941440 -0.0789092700 0 -1
-0.0156170660 -0.0819250770 0 -1
-0.0155395050 -0.0844087470 0 -1
-0.0157990260 -0.0861413470 0 -1
-0.0164015350 -0.0869746290 0 -1
-0.0173172090 -0.0868444270 0 -1
-0.0184795040 -0.0857779700 0 -1
-0.0197899960 -0.0838936210 0 -1
-0.0211300580 -0.0813926330 0 -1
-0.0223765510 -0.0785429940 0 -1
-0.0234171430 -0.0756548070 0 -1
-0.0241624300 -0.0730481790 0 -1
-0.0245538020 -0.0710178120 0 -1
-0.0245670330 -0.0697999830 0 -1
-0.0242120390 -0.0695466390 0 -1
-0.0235293480 -0.0703093530 0 -1
-0.0225845790 -0.0720342620 0 -1
-0.0214625800 -0.0745675480 0 -1
-0.0202613690 -0.0776702140 0 -1
-0.0190848830 -0.0810412430 0 -1
-0.0180345370 -0.0843478470 0 -1
-0.0172003700 -0.0872598980 0 -1
-0.0166518750 -0.0894850020 0 -1
-0.0164284340 -0.0907997360 0 -1
-0.0165305280 -0.0910718140 0 -1
-0.0169148840 -0.0902710050 0 -1
-0.0174974700 -0.0884693710 0 -1
-0.0181658810 -0.0858306820 0 -1
-0.0187981190 -0.0825905530 0 -1
-0.0192827350 -0.0790320470 0 -1
-0.0195365020 -0.0754601600 0 -1
-0.0195166630 -0.0721764330 0 -1
-0.0192248360 -0.0694556290 0 -1
-0.0187022930 -0.0675259940 0 -1
-0.0180206290 -0.0665525560 0 -1
-0.0172727710 -0.0666234910 0 -1
-0.0165661310 -0.0677415610 0 -1
-0.0160161480 -0.0698224260 0 -1
-0.0157381630 -0.0727001860 0 -1
-0.0158379920 -0.0761404120 0 -1
-0.0164033250 -0.0798611910 0 -1
-0.0174974380 -0.0835613790 0 -1
-0.0191554040 -0.0869531230 0 -1
-0.0213819080 -0.0897937570 0 -1
-0.0241496390 -0.0919116910 0 -1
-0.0273987040 -0.0932233780 0 -1
-0.0310391720 -0.0937411810 -1 -1
-0.0349577470 -0.0935714990 -1 -1
-0.0390273720 -0.0929020320 -1 -1
-0.0431180980 -0.0919797220 -1 -1
-0.0471079280 -0.0910832750 -1 -1
-0.0508926060 -0.0904943930 -1 -1
-0.0543937980 -0.0904711190 -1 -1
-0.0575653180 -0.0912246980 -1 -1
-0.0603967520 -0.0928997190 -1 -1
-0.0629135400 -0.0955582090 -1 -1
-0.0651730850 -0.0991700020 -1 -1
-0.0672579920 -0.1036115440 -1 -1
-0.0692678410 -0.1086743470 -1 -1
-0.0713095880 -0.1140830050 -1 -1
-0.0734859130 -0.1195211770 -1 -1
-0.0758823820 -0.1246628080 -1 -1
-0.0785567890 -0.1292056370 -1 -1
-0.0815339960 -0.1329036140 -1 -1
-0.0848061160 -0.1355934850 -1 -1
-0.0883352290 -0.1372110210 -1 -1
-0.0920565340 -0.1377964840 -1 -1
-0.0958818210 -0.1374915920 -1 -1
-0.0997044420 -0.1365284240 -1 -1
-0.1034071420 -0.1352084600 -1 -1
-0.1068729750 -0.1338709340 -1 -1
-0.1099974060 -0.1328536070 -1 -1
-0.1126984860 -0.1324534060 -1 -1
-0.1149231990 -0.1328947030 -1 -1
-0.1166501670 -0.1343089450 -1 -1
-0.1178896800 -0.1367248930 -1 -1
-0.1186813790 -0.1400673980 -1 -1
-0.1190897230 -0.1441639800 -1 -1
-0.1191980910 -0.1487596000 -1 -1
-0.1191022980 -0.1535393530 -1 -1
-0.1189030690 -0.1581576720 -1 -1
-0.1186971480 -0.1622718240 -1 -1
-0.1185681560 -0.1655766420 -1 -1
-0.1185785970 -0.1678366880 -1 -1
-0.1187636270 -0.1689121550 -1 -1
-0.1191273110 -0.1687747300 -1 -1
-0.1196424470 -0.1675096170 -1 -1
-0.1202541320 -0.1653030810 -1 -1
-0.1208863450 -0.1624197110 -1 -1
-0.1214511130 -0.1591748890 -1 -1
-0.1218597150 -0.1559055640 -1 -1
-0.1220342440 -0.1529405970 -1 -1
-0.1219171280 -0.1505723140 -1 -1
-0.1214773950 -0.1490311580 -1 -1
-0.1207144040 -0.1484647390 -1 -1
-0.1196593720 -0.1489229650 -1 -1
-0.1183735030 -0.1503526770 -1 -1
-0.1169422040 -0.1526055270 -1 -1
-0.1154667790 -0.1554586390 -1 -1
-0.1140551760 -0.1586415390 -1 -1
-0.1128118850 -0.1618623780 -1 -1
-0.1118265660 -0.1648320570 -1 -1
-0.1111628910 -0.1672881460 -1 -1
-0.1108510910 -0.1690181580 -1 -1
-0.1108867080 -0.1698796880 -1 -1
-0.1112349590 -0.1698150570 -1 -1
-0.1118379520 -0.1688577950 -1 -1
-0.1126219970 -0.1671293310 -1 -1
-0.1135035180 -0.1648264330 -1 -1
-0.1143941930 -0.1622007220 -1 -1
-0.1152069850 -0.1595320500 -1 -1
-0.1158633470 -0.1570992700 -1 -1
-0.1163004710 -0.1551521820 -1 -1
-0.1164776910 -0.1538870220 -1 -1
-0.1163809890 -0.1534276030 -1 -1
-0.1160238140 -0.1538145760 -1 -1
-0.1154437600 -0.1550038900 -1 -1
-0.1146969140 -0.1568730640 -1 -1
-0.1138515790 -0.1592332850 -1 -1
-0.1129822570 -0.1618465120 -1 -1
-0.1121648040 -0.1644471900 -1 -1
-0.1114722810 -0.1667666920 -1 -1
-0.1109693240 -0.1685580580 -1 -1
-0.1107041450 -0.1696195680 -1 -1
-0.1107005600 -0.1698156480 -1 -1
-0.1109534860 -0.1690925200 -1 -1
-0.1114294710 -0.1674861480 -1 -1
-0.1120713460 -0.1651207680 -1 -1
-0.1128047210 -0.1621973910 -1 -1
-0.1135440820 -0.1589742630 -1 -1
-0.1141982160 -0.1557423310 -1 -1
-0.1146778220 -0.1527970210 -1 -1
-0.1149075280 -0.1504077220 -1 -1
-0.1148395830 -0.1487891120 -1 -1
-0.1144634780 -0.1480793090 -1 -1
-0.1138081390 -0.1483282200 -1 -1
-0.1129374500 -0.1494961940 -1 -1
-0.1119415610 -0.1514596510 -1 -1
-0.1109257970 -0.1540209360 -1 -1
-0.1099983530 -0.1569235430 -1 -1
-0.1092579890 -0.1598739160 -1 -1
-0.1087837060 -0.1625683960 -1 -1
-0.1086287910 -0.1647236970 -1 -1
-0.1088196100 -0.1661082460 -1 -1
-0.1093558960 -0.1665686250 -1 -1
-0.1102095150 -0.1660461390 -1 -1
-0.1113230130 -0.1645829610 -1 -1
-0.1126115040 -0.1623190980 -1 -1
-0.1139693070 -0.1594803340 -1 -1
-0.1152804600 -0.1563564790 -1 -1
-0.1164318980 -0.1532708970 -1 -1
-0.1173274130 -0.1505457330 -1 -1
-0.1178992750 -0.1484683770 -1 -1
-0.1181146740 -0.1472627580 -1 -1
-0.1179766440 -0.1470674780 -1 -1
-0.1175218570 -0.1479223480 -1 -1
-0.1168175870 -0.1497643810 -1 -1
-0.1159576320 -0.1524331670 -1 -1
-0.1150551600 -0.1556850140 -1 -1
-0.1142315300 -0.1592158420 -1 -1
-0.1136026860 -0.1626915650 -1 -1
-0.1132661590 -0.1657815710 -1 -1
-0.1132911600 -0.1681905120 -1 -1
-0.1137124890 -0.1696865090 -1 -1
-0.1145275730 -0.1701249050 -1 -1
-0.1156958920 -0.1694646360 -1 -1
-0.1171408500 -0.1677732280 -1 -1
-0.1187549390 -0.1652188590 -1 -1
-0.1204090340 -0.1620518540 -1 -1
-0.1219655080 -0.1585798940 -1 -1
-0.1232933710 -0.1551394290 -1 -1
-0.1242830450 -0.1520639660 -1 -1
-0.1248581820 -0.1496513940 -1 -1
-0.1249820290 -0.1481344590 -1 -1
-0.1246575220 -0.1476578590 -1 -1
-0.1239223660 -0.1482642630 -1 -1
-0.1228414280 -0.1498910630 -1 -1
-0.1214989270 -0.1523785560 -1 -1
-0.1199918600 -0.1554877450 -1 -1
-0.1184241400 -0.1589234030 -1 -1
-0.1169001050 -0.1623587620 -1 -1
-0.1155170840 -0.1654623400 -1 -1
-0.1143575420 -0.1679284240 -1 -1
-0.1134815200 -0.1695085930 -1 -1
-0.1129203720 -0.1700383970 -1 -1
-0.1126732620 -0.1694549760 -1 -1
-0.1127075630 -0.1678047820 -1 -1
-0.1129632190 -0.1652410860 -1 -1
-0.1133600370 -0.1620098540 -1 -1
-0.1138066540 -0.1584243740 -1 -1
-0.1142104240 -0.1548322240 -1 -1
-0.1144873080 -0.1515789140 -1 -1
-0.1145698180 -0.1489724810 -1 -1
-0.1144115080 -0.1472537310 -1 -1
-0.1139887590 -0.1465746550 -1 -1
-0.1133016470 -0.1469848650 -1 -1
-0.1123744960 -0.1484263190 -1 -1
-0.1112553390 -0.1507382920 -1 -1
-0.1100133090 -0.1536741760 -1 -1
-0.1087338960 -0.1569293630 -1 -1
-0.1075124180 -0.1601761340 -1 -1
-0.1064452000 -0.1630985460 -1 -1
-0.1056185960 -0.1654210870 -1 -1
-0.1050981170 -0.1669300700 -1 -1
-0.1049200160 -0.1674902600 -1 -1
-0.1050860490 -0.1670573630 -1 -1
-0.1055620550 -0.1656837820 -1 -1
-0.1062812160 -0.1635149630 -1 -1
-0.1071515740 -0.1607759000 -1 -1
-0.1080664010 -0.1577492530 -1 -1
-0.1089161880 -0.1547468610 -1 -1
-0.1096006180 -0.1520767720 -1 -1
-0.1100385260 -0.1500099130 -1 -1
-0.1101751430 -0.1487522910 -1 -1
-0.1099870550 -0.1484267510 -1 -1
-0.1094842950 -0.1490641240 -1 -1
-0.1087080800 -0.1506015590 -1 -1
-0.1077242820 -0.1528874000 -1 -1
-0.1066149010 -0.1556931920 -1 -1
-0.1054698940 -0.1587321960 -1 -1
-0.1043802760 -0.1616837000 -1 -1
-0.1034322990 -0.1642235890 -1 -1
-0.1027021830 -0.1660591030 -1 -1
-0.1022515920 -0.1669620700 -1 -1
-0.1021245730 -0.1667955660 -1 -1
-0.1023456580 -0.1655308040 -1 -1
-0.1029178510 -0.1632519130 -1 -1
-0.1038201200 -0.1601483940 -1 -1
-0.1050060230 -0.1564971250 -1 -1
-0.1064056700 -0.1526359360 -1 -1
-0.1079316830 -0.1489313650 -1 -1
-0.1094880330 -0.1457437880 -1 -1
-0.1109804640 -0.1433925350 -1 -1
-0.1123273320 -0.1421242800 -1 -1
-0.1134698330 -0.1420893970 -1 -1
-0.1143810140 -0.1433295110 -1 -1
-0.1150723240 -0.1457769090 -1 -1
-0.1155948080 -0.1492651320 -1 -1
-0.1160327020 -0.1535477830 -1 -1
-0.1164905600 -0.1583216490 -1 -1
-0.1170778530 -0.1632526310 -1 -1
-0.1178946570 -0.1680042790 -1 -1
-0.1190197240 -0.1722668230 -1 -1
-0.1205010780 -0.1757832950 -1 -1
-0.1223499340 -0.1783707630 -1 -1
-0.1245386290 -0.1799367080 -1 -1
-0.1270024150 -0.1804896250 -1 -1
-0.1296452170 -0.1801401650 -1 -1
-0.1323495210 -0.1790898500 -1 -1
-0.1349893570 -0.1776090380 -1 -1
-0.1374441220 -0.1760086080 -1 -1
-0.1396106280 -0.1746086660 -1 -1
-0.1414112730 -0.1737062880 -1 -1
-0.1427979030 -0.1735448790 -1 -1
-0.1437526120 -0.1742881580 -1 -1
-0.1442869320 -0.1760013630 -1 -1
-0.1444394890 -0.1786419780 -1 -1
-0.1442713180 -0.1820621310 -1 -1
-0.1438592140 -0.1860240670 -1 -1
-0.1432887920 -0.1902275810 -1 -1
-0.1426481340 -0.1943448890 -1 -1
-0.1420215400 -0.1980568330 -1 -1
-0.1414827680 -0.2010846740 -1 -1
-0.1410882180 -0.2032138010 -1 -1
-0.1408714500 -0.2043094720 -1 -1
-0.1408402930 -0.2043266210 -1 -1
-0.1409765890 -0.2033145110 -1 -1
-0.1412379670 -0.2014148870 -1 -1
-0.1415610240 -0.1988512460 -1 -1
-0.1418657750 -0.1959076190 -1 -1
-0.1420623280 -0.1928987280 -1 -1
-0.1420611430 -0.1901373590 -1 -1
-0.1417865060 -0.1879050220 -1 -1
-0.1411900610 -0.1864280510 -1 -1
-0.1402604360 -0.1858585640 -1 -1
-0.1390269960 -0.1862604300 -1 -1
-0.1375579450 -0.1876018220 -1 -1
-0.1359531850 -0.1897562410 -1 -1
-0.1343323040 -0.1925136640 -1 -1
-0.1328193070 -0.1956018690 -1 -1
-0.1315275520 -0.1987156580 -1 -1
-0.1305479770 -0.2015504240 -1 -1
-0.1299414710 -0.2038355340 -1 -1
-0.1297350530 -0.2053618780 -1 -1
-0.1299214340 -0.2059994650 -1 -1
-0.1304610410 -0.2057046570 -1 -1
-0.1312857910 -0.2045191630 -1 -1
-0.1323049370 -0.2025633640 -1 -1
-0.1334130570 -0.2000252850 -1 -1
-0.1344992540 -0.1971446210 -1 -1
-0.1354565430 -0.1941917640 -1 -1
-0.1361909490 -0.1914440630 -1 -1
-0.1366295520 -0.1891620950 -1 -1
-0.1367261880 -0.1875674390 -1 -1
-0.1364645670 -0.1868225180 -1 -1
-0.1358599960 -0.1870127740 -1 -1
-0.1349602970 -0.1881332580 -1 -1
-0.1338450460 -0.1900838350 -1 -1
-0.1326217330 -0.1926758400 -1 -1
-0.1314176770 -0.1956497360 -1 -1
-0.1303675840 -0.1987010980 -1 -1
-0.1295982950 -0.2015114120 -1 -1
-0.1292129510 -0.2037805900 -1 -1
-0.1292771030 -0.2052585600 -1 -1
-0.1298091560 -0.2057728250 -1 -1
-0.1307763900 -0.2052487220 -1 -1
-0.1320968140 -0.2037193890 -1 -1
-0.1336473990 -0.2013234130 -1 -1
-0.1352788090 -0.1982905180 -1 -1
-0.1368344940 -0.1949176060 -1 -1
-0.1381695730 -0.1915375840 -1 -1
-0.1391655250 -0.1884835620 -1 -1
-0.1397394930 -0.1860524710 -1 -1
-0.1398488930 -0.1844734310 -1 -1
-0.1394929560 -0.1838852240 -1 -1
-0.1387122260 -0.1843247490 -1 -1
-0.1375850090 -0.1857260760 -1 -1
-0.1362197070 -0.1879286630 -1 -1
-0.1347443820 -0.1906937120 -1 -1
-0.1332956120 -0.1937278060 -1 -1
-0.1320073810 -0.1967122860 -1 -1
-0.1309998890 -0.1993353620 -1 -1
-0.1303687660 -0.2013222990 -1 -1
-0.1301758830 -0.2024594430 -1 -1
-0.1304427540 -0.2026108410 -1 -1
-0.1311468790 -0.2017287380 -1 -1
-0.1322213760 -0.1998585730 -1 -1
-0.1335589620 -0.1971374570 -1 -1
-0.1350213280 -0.1937849980 -1 -1
-0.1364535340 -0.1900858680 -1 -1
-0.1377017300 -0.1863636120 -1 -1
-0.1386315690 -0.1829474430 -1 -1
-0.1391441040 -0.1801372940 -1 -1
-0.1391861540 -0.1781734250 -1 -1
-0.1387538510 -0.1772140940 -1 -1
-0.1378903330 -0.1773210770 -1 -1
-0.1366795420 -0.1784531260 -1 -1
-0.1352371280 -0.1804696410 -1 -1
-0.1336985450 -0.1831448340 -1 -1
-0.1322051690 -0.1861892860 -1 -1
-0.1308903520 -0.1892763560 -1 -1
-0.1298671310 -0.1920723660 -1 -1
-0.1292187200 -0.1942688060 -1 -1
-0.1289927520 -0.1956138280 -1 -1
-0.1291993250 -0.1959392680 -1 -1
-0.1298113390 -0.1951783600 -1 -1
-0.1307661980 -0.1933708930 -1 -1
-0.1319706070 -0.1906567000 -1 -1
-0.1333096440 -0.1872598290 -1 -1
-0.1346568180 -0.1834649830 -1 -1
-0.1358811190 -0.1795880690 -1 -1
-0.1368521570 -0.1759440290 -1 -1
-0.1374484850 -0.1728174730 -1 -1
-0.1375720020 -0.1704405560 -1 -1
-0.1371651410 -0.1689758080 -1 -1
-0.1362239100 -0.1684995580 -1 -1
-0.1348019560 -0.1689888050 -1 -1
-0.1330046610 -0.1703190680 -1 -1
-0.1309750760 -0.1722769460 -1 -1
-0.1288755890 -0.1745848810 -1 -1
-0.1268688880 -0.1769312560 -1 -1
-0.1251000700 -0.1789996010 -1 -1
-0.1236818570 -0.1804968550 -1 -1
-0.1226853450 -0.1811830530 -1 -1
-0.1221367770 -0.1808991950 -1 -1
-0.1220188080 -0.1795856240 -1 -1
-0.1222750530 -0.1772863620 -1 -1
-0.1228176830 -0.1741409760 -1 -1
-0.1235374300 -0.1703678390 -1 -1
-0.1243151690 -0.1662418480 -1 -1
-0.1250340850 -0.1620686810 -1 -1
-0.1255905040 -0.1581574330 -1 -1
-0.1259015330 -0.1547930800 -1 -1
-0.1259099140 -0.1522100870 -1 -1
-0.1255877790 -0.1505693060 -1 -1
-0.1249393860 -0.1499417080 -1 -1
-0.1240010470 -0.1503015550 -1 -1
-0.1228377690 -0.1515290370 -1 -1
-0.1215384900 -0.1534213040 -1 -1
-0.1202106030 -0.1557111280 -1 -1
-0.1189714800 -0.1580923120 -1 -1
-0.1179353590 -0.1602499080 -1 -1
-0.1171976290 -0.1618919250 -1 -1
-0.1168208950 -0.1627784250 -1 -1
-0.1168269810 -0.1627444770 -1 -1
-0.1171966570 -0.1617157230 -1 -1
-0.1178758050 -0.1597171270 -1 -1
-0.1187845670 -0.1568742590 -1 -1
-0.1198260430 -0.1534047100 -1 -1
-0.1208933210 -0.1495986570 -1 -1
-0.1218763700 -0.1457897270 -1 -1
-0.1226710710 -0.1423182470 -1 -1
-0.1231904800 -0.1394913200 -1 -1
-0.1233756880 -0.1375475640 -1 -1
-0.1232033670 -0.1366342820 -1 -1
-0.1226886920 -0.1367992410 -1 -1
-0.1218835310 -0.1379923190 -1 -1
-0.1208705950 -0.1400717000 -1 -1
-0.1197550180 -0.1428148830 -1 -1
-0.1186545560 -0.1459374280 -1 -1
-0.1176885060 -0.1491194210 -1 -1
-0.1169649100 -0.1520366660 -1 -1
-0.1165667150 -0.1543923390 -1 -1
-0.1165398590 -0.1559449430 -1 -1
-0.1168866920 -0.1565305220 -1 -1
-0.1175657600 -0.1560786890 -1 -1
-0.1184972160 -0.1546207120 -1 -1
-0.1195728320 -0.1522870500 -1 -1
-0.1206686420 -0.1492939370 -1 -1
-0.1216573510 -0.1459212050 -1 -1
-0.1224190890 -0.1424842350 -1 -1
-0.1228511990 -0.1393030180 -1 -1
-0.1228775120 -0.1366716740 -1 -1
-0.1224562950 -0.1348311240 -1 -1
-0.1215857150 -0.1339460390 -1 -1
-0.1203057660 -0.1340866310 -1 -1
-0.1186959560 -0.1352177700 -1 -1
-0.1168689350 -0.1371995070 -1 -1
-0.1149607750 -0.1398010900 -1 -1
-0.1131179980 -0.1427268460 -1 -1
-0.1114819490 -0.1456498120 -1 -1
-0.1101731590 -0.1482478070 -1 -1
-0.1092790320 -0.1502363750 -1 -1
-0.1088463690 -0.1513945830 -1 -1
-0.1088785100 -0.1515828240 -1 -1
-0.1093365220 -0.1507541510 -1 -1
-0.1101440780 -0.1489594090 -1 -1
-0.1111955610 -0.1463436410 -1 -1
-0.1123662820 -0.1431321390 -1 -1
-0.1135234980 -0.1396080310 -1 -1
-0.1145372220 -0.1360849060 -1 -1
-0.1152904990 -0.1328777390 -1 -1
-0.1156893350 -0.1302740210 -1 -1
-0.1156720550 -0.1285063070 -1 -1
-0.1152168660 -0.1277284220 -1 -1
-0.1143461840 -0.1279981360 -1 -1
-0.1131261010 -0.1292689460 -1 -1
-0.1116594530 -0.1313937910 -1 -1
-0.1100727550 -0.1341412820 -1 -1
-0.1084999440 -0.1372206070 -1 -1
-0.1070666130 -0.1403108810 -1 -1
-0.1058772540 -0.1430930780 -1 -1
-0.1050066010 -0.1452817980 -1 -1
-0.1044954310 -0.1466529170 -1 -1
-0.1043502780 -0.1470648220 -1 -1
-0.1045454090 -0.1464725430 -1 -1
-0.1050256190 -0.1449332820 -1 -1
-0.1057101480 -0.1426002950 -1 -1
-0.1064989960 -0.1397047630 -1 -1
-0.1072815130 -0.1365304530 -1 -1
-0.1079462240 -0.1333861030 -1 -1
-0.1083914550 -0.1305769790 -1 -1
-0.1085364210 -0.1283764560 -1 -1
-0.1083314920 -0.1270000560 -1 -1
-0.1077664220 -0.1265842590 -1 -1
-0.1068754660 -0.1271718490 -1 -1
-0.1057370670 -0.1287065460 -1 -1
-0.1044659840 -0.1310396030 -1 -1
-0.1031988620 -0.1339476730 -1 -1
-0.1020768230 -0.1371572960 -1 -1
-0.1012284810 -0.1403706210 -1 -1
-0.1007558820 -0.1432897570 -1 -1
-0.1007252350 -0.1456404300 -1 -1
-0.1011626270 -0.1471967470 -1 -1
-0.1020532670 -0.1478061130 -1 -1
-0.1033430870 -0.1474089820 -1 -1
-0.1049429290 -0.1460473150 -1 -1
-0.1067360180 -0.1438595370 -1 -1
-0.1085882060 -0.1410638070 -1 -1
-0.1103595540 -0.1379327490 -1 -1
-0.1119161750 -0.1347630300 -1 -1
-0.1131417210 -0.1318441940 -1 -1
-0.1139478600 -0.1294315300 -1 -1
-0.1142831790 -0.1277253490 -1 -1
-0.1141403200 -0.1268561270 -1 -1
-0.1135604730 -0.1268754380 -1 -1
-0.1126324950 -0.1277541280 -1 -1
-0.1114840610 -0.1293878030 -1 -1
-0.1102658300 -0.1316078420 -1 -1
-0.1091329200 -0.1341959330 -1 -1
-0.1082279610 -0.1369014000 -1 -1
-0.1076676920 -0.1394617300 -1 -1
-0.1075333950 -0.1416255700 -1 -1
-0.1078650650 -0.1431753890 -1 -1
-0.1086594040 -0.1439474960 -1 -1
-0.1098713820 -0.1438488980 -1 -1
-0.1114189410 -0.1428703900 -1 -1
-0.1131910030 -0.1410929720 -1 -1
-0.1150581700 -0.1386837860 -1 -1
-0.1168840090 -0.1358806520 -1 -1
-0.1185359250 -0.1329680350 -1 -1
-0.1198960390 -0.1302478610 -1 -1
-0.1208716640 -0.1280079730 -1 -1
-0.1214040190 -0.1264914060 -1 -1
-0.1214738440 -0.1258697340 -1 -1
-0.1211028140 -0.1262233230 -1 -1
-0.1203502740 -0.1275311080 -1 -1
-0.1193060180 -0.1296713370 -1 -1
-0.1180807690 -0.1324332870 -1 -1
-0.1167959190 -0.1355392330 -1 -1
-0.1155733570 -0.1386746260 -1 -1
-0.1145255750 -0.1415227040 -1 -1
-0.1137462050 -0.1437986050 -1 -1
-0.1133013050 -0.1452785620 -1 -1
-0.1132214730 -0.1458216630 -1 -1
-0.1134957770 -0.1453830060 -1 -1
-0.1140701500 -0.1440170260 -1 -1
-0.1148523970 -0.1418705690 -1 -1
-0.1157231620 -0.1391667470 -1 -1
-0.1165503300 -0.1361817980 -1 -1
-0.1172043130 -0.1332180490 -1 -1
-0.1175727720 -0.1305758180 -1 -1
-0.1175740250 -0.1285262160 -1 -1
-0.1171675940 -0.1272859740 -1 -1
-0.1163591180 -0.1269949500 -1 -1
-0.1151978230 -0.1276988000 -1 -1
-0.1137670880 -0.1293414270 -1 -1
-0.1121707220 -0.1317696670 -1 -1
-0.1105187550 -0.1347487460 -1 -1
-0.1089159390 -0.1379855400 -1 -1
-0.1074539410 -0.1411576090 -1 -1
-0.1062061280 -0.1439466500 -1 -1
-0.1052239440 -0.1460726640 -1 -1
-0.1045349590 -0.1473227010 -1 -1
-0.1041425190 -0.1475703980 -1 -1
-0.1040259370 -0.1467868050 -1 -1
-0.1041409510 -0.1450429950 -1 -1
-0.1044218390 -0.1425032170 -1 -1
-0.1047865530 -0.1394084080 -1 -1
-0.1051444330 -0.1360519420 -1 -1
-0.1054048790 -0.1327499660 -1 -1
-0.1054860280 -0.1298093100 -1 -1
-0.1053232880 -0.1274973130 -1 -1
-0.1048775290 -0.1260175330 -1 -1
-0.1041422690 -0.1254929870 -1 -1
-0.1031476280 -0.1259570390 -1 -1
-0.1019577690 -0.1273515940 -1 -1
-0.1006611390 -0.1295317640 -1 -1
-0.0993572870 -0.1322770000 -1 -1
-0.0981450000 -0.1353101360 -1 -1
-0.0971131700 -0.1383241920 -1 -1
-0.0963328910 -0.1410122700 -1 -1
-0.0958505250 -0.1430949900 -1 -1
-0.0956842620 -0.1443441600 -1 -1
-0.0958256080 -0.1446035670 -1 -1
-0.0962431760 -0.1438065810 -1 -1
-0.0968854890 -0.1419889610 -1 -1
-0.0976827330 -0.1392921150 -1 -1
-0.0985494020 -0.1359507730 -1 -1
-0.0993890430 -0.1322662700 -1 -1
-0.1001017200 -0.1285741050 -1 -1
-0.1005941680 -0.1252121160 -1 -1
-0.1007911520 -0.1224896700 -1 -1
-0.1006457440 -0.1206574820 -1 -1
-0.1001466140 -0.1198798090 -1 -1
-0.0993215300 -0.1202127700 -1 -1
-0.0982372420 -0.1215946770 -1 -1
-0.0969954490 -0.1238528570 -1 -1
-0.0957235020 -0.1267257990 -1 -1
-0.0945599700 -0.1298957660 -1 -1
-0.0936377230 -0.1330269570 -1 -1
-0.0930678060 -0.1358035340 -1 -1
-0.0929270810 -0.1379610350 -1 -1
-0.0932516700 -0.1393079090 -1 -1
-0.0940353960 -0.1397383130 -1 -1
-0.0952307170 -0.1392372220 -1 -1
-0.0967516110 -0.1378774770 -1 -1
-0.0984801690 -0.1358099540 -1 -1
-0.1002780630 -0.1332493810 -1 -1
-0.1020015550 -0.1304562730 -1 -1
-0.1035169870 -0.1277134750 -1 -1
-0.1047140590 -0.1252979610 -1 -1
-0.1055154980 -0.1234528650 -1 -1
-0.1058823790 -0.1223648600 -1 -1
-0.1058149470 -0.1221480170 -1 -1
-0.1053498420 -0.1228339590 -1 -1
-0.1045550210 -0.1243694760 -1 -1
-0.1035231610 -0.1266220510 -1 -1
-0.1023637180 -0.1293915680 -1 -1
-0.1011939330 -0.1324263260 -1 -1
-0.1001294780 -0.1354424730 -1 -1
-0.0992750270 -0.1381466260 -1 -1
-0.0987148580 -0.1402612680 -1 -1
-0.0985049710 -0.1415519760 -1 -1
-0.0986688050 -0.1418538200 -1 -1
-0.0991967960 -0.1410923040 -1 -1
-0.1000478310 -0.1392946690 -1 -1
-0.1011512040 -0.1365896430 -1 -1
-0.1024100450 -0.1331959040 -1 -1
-0.1037082730 -0.1294009760 -1 -1
-0.1049216720 -0.1255324410 -1 -1
-0.1059316130 -0.1219242220 -1 -1
-0.1066387810 -0.1188826520 -1 -1
-0.1069742290 -0.1166573400 -1 -1
-0.1069058230 -0.1154192760 -1 -1
-0.1064396860 -0.1152460250 -1 -1
-0.1056181360 -0.1161139650 -1 -1
-0.1045155990 -0.1178992980 -1 -1
-0.1032324830 -0.1203889520 -1 -1
-0.1018868660 -0.1233002620 -1 -1
-0.1006044910 -0.1263072280 -1 -1
-0.0995069250 -0.1290712880 -1 -1
-0.0986977710 -0.1312749880 -1 -1
-0.0982486770 -0.1326566040 -1 -1
-0.0981884290 -0.1330417690 -1 -1
