-0.0150669550 -0.0086353190 0 0
-0.0152991050 -0.0058676780 0 0
-0.0150233220 -0.0039546890 0 0
-0.0142544940 -0.0031149670 0 0
-0.0130548850 -0.0034627430 0 0
-0.0115295700 -0.0049928840 0 0
-0.0098177110 -0.0075778750 0 0
-0.0080790360 -0.0109779710 0 0
-0.0064768650 -0.0148639300 0 0
-0.0051607950 -0.0188508870 0 0
-0.0042519270 -0.0225402840 0 0
-0.0038321270 -0.0255634940 0 0
-0.0039380570 -0.0276188520 0 0
-0.0045603800 -0.0284971250 0 0
-0.0056474530 -0.0280969820 0 0
-0.0071115570 -0.0264342000 0 0
-0.0088358940 -0.0236439050 0 0
-0.0106822050 -0.0199715100 0 0
-0.0125005030 -0.0157506910 0 0
-0.0141418290 -0.0113712470 0 0
-0.0154729270 -0.0072403840 0 0
-0.0163903770 -0.0037410990 0 0
-0.0168314210 -0.0011935360 0 0
-0.0167796860 0.0001754720 0 0
-0.0162651600 0.0002531270 0 0
-0.0153587550 -0.0009485170 0 0
-0.0141635700 -0.0032929500 0 0
-0.0128059110 -0.0065320210 0 0
-0.0114267110 -0.0103310020 0 0
-0.0101710730 -0.0143035820 0 0
-0.0091749180 -0.0180514860 0 0
-0.0085512130 -0.0212027730 0 0
-0.0083790640 -0.0234462120 0 0
-0.0086963920 -0.0245619020 0 0
-0.0094949010 -0.0244454040 0 0
-0.0107177040 -0.0231193380 0 0
-0.0122623850 -0.0207291740 0 0
-0.0139907620 -0.0175248720 0 0
-0.0157428980 -0.0138324350 0 0
-0.0173526360 -0.0100203060 0 0
-0.0186637090 -0.0064642240 0 0
-0.0195454170 -0.0035121040 0 0
-0.0199057250 -0.0014502210 0 0
-0.0196995430 -0.0004732930 0 0
-0.0189315800 -0.0006632600 0 0
-0.0176549100 -0.0019813010 0 0
-0.0159655370 -0.0042713660 0 0
-0.0139920440 -0.0072716670 0 0
-0.0118823050 -0.0106396470 0 0
-0.0097915910 -0.0139949520 0 0
-0.0078723400 -0.0169688900 0 0
-0.0062622940 -0.0192452350 0 0
-0.0050707180 -0.0205878270 0 0
-0.0043661900 -0.0208569770 0 0
-0.0041692090 -0.0200179040 0 0
-0.0044503690 -0.0181426040 0 0
-0.0051334640 -0.0154034910 0 0
-0.0061032700 -0.0120578920 0 0
-0.0072179740 -0.0084244470 0 0
-0.0083248760 -0.0048529420 0 0
-0.0092773290 -0.0016906060 0 0
-0.0099512610 0.0007510520 0 0
-0.0102590120 0.0022257130 0 0
-0.0101576870 0.0025756210 0 0
-0.0096511790 0.0017465840 0 0
-0.0087875920 -0.0002073510 0 0
-0.0076539750 -0.0031303920 0 0
-0.0063687270 -0.0067810510 0 0
-0.0050708550 -0.0108542290 0 0
-0.0039056910 -0.0150070070 0 0
-0.0030083460 -0.0188870930 0 0
-0.0024873560 -0.0221625840 0 0
-0.0024108670 -0.0245509610 0 0
-0.0027974590 -0.0258448280 0 0
-0.0036135440 -0.0259324590 0 0
-0.0047781340 -0.0248120520 0 0
-0.0061737370 -0.0225972910 0 0
-0.0076604040 -0.0195106560 0 0
-0.0090903140 -0.0158633640 0 0
-0.0103220970 -0.0120245600 0 0
-0.0112348650 -0.0083841760 0 0
-0.0117409300 -0.0053140820 0 0
-0.0117953210 -0.0031311230 0 0
-0.0114005170 -0.0020643270 0 0
-0.0106057220 -0.0022296450 0 0
-0.0095008440 -0.0036168270 0 0
-0.0082061270 -0.0060907010 0 0
-0.0068591740 -0.0094059310 0 0
-0.0056011690 -0.0132334970 0 0
-0.0045636330 -0.0171965180 0 0
-0.0038568580 -0.0209105610 0 0
-0.0035606510 -0.0240216190 0 0
-0.0037171550 -0.0262375410 0 0
-0.0043256990 -0.0273529470 0 0
-0.0053407860 -0.0272674930 0 0
-0.0066744800 -0.0259947780 0 0
-0.0082032620 -0.0236602790 0 0
-0.0097790010 -0.0204892530 0 0
-0.0112437840 -0.0167858900 0 0
-0.0124470140 -0.0129048290 0 0
-0.0132612030 -0.0092167190 0 0
-0.0135939050 -0.0060708530 0 0
-0.0133960590 -0.0037600040 0 0
-0.0126672730 -0.0024925170 0 0
-0.0114564500 -0.0023732390 0 0
-0.0098566400 -0.0033928910 0 0
-0.0079958030 -0.0054270730 0 0
-0.0060256070 -0.0082472130 0 0
-0.0041083100 -0.0115437990 0 0
-0.0024013640 -0.0149594270 0 0
-0.0010414080 -0.0181271720 0 0
-0.0001307150 -0.0207083710 0 0
0.0002716870 -0.0224241910 0 0
0.0001536880 -0.0230786260 0 0
-0.0004503560 -0.0225743280 0 0
-0.0014630670 -0.0209223860 0 0
-0.0027709970 -0.0182439590 0 0
-0.0042358150 -0.0147606860 0 0
-0.0057085390 -0.0107738160 0 0
-0.0070446470 -0.0066358040 0 0
-0.0081183970 -0.0027183430 0 0
-0.0088349030 0.0006214720 0 0
-0.0091391730 0.0030755040 0 0
-0.0090220450 0.0044162980 0 0
-0.0085222820 0.0045221080 0 0
-0.0077234580 0.0033913760 0 0
-0.0067450720 0.0011434670 0 0
-0.0057291290 -0.0019946870 0 0
-0.0048247310 -0.0057123590 0 0
-0.0041730370 -0.0096450290 0 0
-0.0038934690 -0.0134090860 0 0
-0.0040712560 -0.0166402090 0 0
-0.0047473360 -0.0190314810 0 0
-0.0059125490 -0.0203651890 0 0
-0.0075075970 -0.0205336950 0 0
-0.0094292320 -0.0195479090 0 0
-0.0115418710 -0.0175338400 0 0
-0.0136923260 -0.0147183030 0 0
-0.0157244490 -0.0114055720 0 0
-0.0174917130 -0.0079472880 0 0
-0.0188683160 -0.0047076530 0 0
-0.0197599230 -0.0020269200 0 0
-0.0201129430 -0.0001876430 0 0
-0.0199195600 0.0006125840 0 0
-0.0192173260 0.0002801180 0 0
-0.0180847860 -0.0011651490 0 0
-0.0166349250 -0.0035913440 0 0
-0.0150064560 -0.0067684980 0 0
-0.0133519660 -0.0103929490 0 0
-0.0118232530 -0.0141181070 0 0
-0.0105560760 -0.0175872600 0 0
-0.0096570610 -0.0204651580 0 0
-0.0091948880 -0.0224670850 0 0
-0.0091962270 -0.0233859740 0 0
-0.0096450990 -0.0231167390 0 0
-0.0104843800 -0.0216723480 0 0
-0.0116192460 -0.0191848630 0 0
-0.0129232590 -0.0158905230 0 0
-0.0142484980 -0.0121037930 0 0
-0.0154406510 -0.0081849620 0 0
-0.0163571650 -0.0045041950 0 0
-0.0168840700 -0.0014045530 0 0
-0.0169474020 0.0008354030 0 0
-0.0165176700 0.0020358660 0 0
-0.0156095400 0.0021345460 0 0
-0.0142800130 0.0011826210 0 0
-0.0126254920 -0.0006730850 0 0
-0.0107757160 -0.0032110040 0 0
-0.0088833540 -0.0061566560 0 0
-0.0071096090 -0.0092047010 0 0
-0.0056075080 -0.0120408730 0 0
-0.0045051740 -0.0143669520 0 0
-0.0038913110 -0.0159298510 0 0
-0.0038052600 -0.0165500030 0 0
-0.0042331870 -0.0161429220 0 0
-0.0051098850 -0.0147296660 0 0
-0.0063248970 -0.0124344730 0 0
-0.0077328850 -0.0094721590 0 0
-0.0091687300 -0.0061287690 0 0
-0.0104663450 -0.0027367750 0 0
-0.0114786170 0.0003542100 0 0
-0.0120951300 0.0028107010 0 0
-0.0122543810 0.0043516270 0 0
-0.0119488520 0.0047824200 0 0
-0.0112236430 0.0040196710 0 0
-0.0101704630 0.0021019080 0 0
-0.0089180580 -0.0008149350 0 0
-0.0076186090 -0.0044758600 0 0
-0.0064301770 -0.0085546150 0 0
-0.0054978380 -0.0126864840 0 0
-0.0049371750 -0.0165032330 0 0
-0.0048223830 -0.0196681830 0 0
-0.0051797930 -0.0219089010 0 0
-0.0059870310 -0.0230439640 0 0
-0.0071775710 -0.0229997570 0 0
-0.0086498770 -0.0218147180 0 0
-0.0102797310 -0.0196319990 0 0
-0.0119335900 -0.0166845310 0 0
-0.0134805740 -0.0132752820 0 0
-0.0148015040 -0.0097520450 0 0
-0.0157951080 -0.0064755310 0 0
-0.0163830870 -0.0037828550 0 0
-0.0165155400 -0.0019520450 0 0
-0.0161764300 -0.0011736900 0 0
-0.0153870600 -0.0015336180 0 0
-0.0142057300 -0.0030074100 0 0
-0.0127234110 -0.0054646480 0 0
-0.0110567040 -0.0086800230 0 0
-0.0093388980 -0.0123511580 0 0
-0.0077091230 -0.0161254110 0 0
-0.0062998540 -0.0196350810 0 0
-0.0052234450 -0.0225353320 0 0
-0.0045592660 -0.0245384330 0 0
-0.0043440470 -0.0254413080 0 0
-0.0045675790 -0.0251456840 0 0
-0.0051738740 -0.0236693790 0 0
-0.0060667570 -0.0211465900 0 0
-0.0071195010 -0.0178162980 0 0
-0.0081886400 -0.0139990680 0 0
-0.0091308120 -0.0100637660 0 0
-0.0098198470 -0.0063886060 0 0
-0.0101612220 -0.0033227610 0 0
-0.0101019650 -0.0011532690 0 0
-0.0096349090 -0.0000795663 0 0
-0.0087965500 -0.0001963300 0 0
-0.0076593300 -0.0014847610 0 0
-0.0063217790 -0.0038134690 0 0
-0.0048997080 -0.0069506060 0 0
-0.0035179910 -0.0105875180 0 0
-0.0023007000 -0.0143713530 0 0
-0.0013594430 -0.0179406790 0 0
-0.0007823180 -0.0209582730 0 0
-0.0006256110 -0.0231396790 0 0
-0.0009083400 -0.0242781240 0 0
-0.0016095590 -0.0242641290 0 0
-0.0026694890 -0.0230971710 0 0
-0.0039953750 -0.0208880680 0 0
-0.0054713560 -0.0178511210 0 0
-0.0069703690 -0.0142853120 0 0
-0.0083659640 -0.0105454880 0 0
-0.0095428290 -0.0070068660 0 0
-0.0104056330 -0.0040282670 0 0
-0.0108860360 -0.0019182570 0 0
-0.0109485620 -0.0009050730 0 0
-0.0105960120 -0.0011114570 0 0
-0.0098734930 -0.0025388010 0 0
-0.0088689770 -0.0050646530 0 0
-0.0077082940 -0.0084538630 0 0
-0.0065430690 -0.0123816360 0 0
-0.0055323860 -0.0164666050 0 0
-0.0048220990 -0.0203101290 0 0
-0.0045265020 -0.0235359150 0 0
-0.0047151410 -0.0258265740 0 0
-0.0054053170 -0.0269557400 0 0
-0.0065602000 -0.0268116850 0 0
-0.0080926340 -0.0254087320 0 0
-0.0098746320 -0.0228862960 0 0
-0.0117518030 -0.0194934740 0 0
-0.0135610750 -0.0155581060 0 0
-0.0151491060 -0.0114482380 0 0
-0.0163876070 -0.0075348800 0 0
-0.0171819030 -0.0041555660 0 0
-0.0174722100 -0.0015778670 0 0
-0.0172325070 0.0000268797 0 0
-0.0164734180 0.0005886400 0 0
-0.0152492130 0.0001267970 0 0
-0.0136616040 -0.0012636550 0 0
-0.0118537340 -0.0034191220 0 0
-0.0099950670 -0.0061116070 0 0
-0.0082620500 -0.0090590980 0 0
-0.0068178650 -0.0119472260 0 0
-0.0057933110 -0.0144609330 0 0
-0.0052722250 -0.0163206560 0 0
-0.0052847400 -0.0173161500 0 0
-0.0058085440 -0.0173317970 0 0
-0.0067757130 -0.0163592940 0 0
-0.0080823720 -0.0144968580 0 0
-0.0095993440 -0.0119371440 0 0
-0.0111835130 -0.0089470770 0 0
-0.0126906290 -0.0058421230 0 0
-0.0139888930 -0.0029568600 0 0
-0.0149708860 -0.0006133950 0 0
-0.0155623460 0.0009103180 0 0
-0.0157277900 0.0014095960 0 0
-0.0154726420 0.0007764720 0 0
-0.0148414320 -0.0009858090 0 0
-0.0139127670 -0.0037594540 0 0
-0.0127918550 -0.0073204390 0 0
-0.0116004980 -0.0113587160 0 0
-0.0104646920 -0.0155092710 0 0
-0.0095015090 -0.0193897940 0 0
-0.0088079110 -0.0226393040 0 0
-0.0084525090 -0.0249539160 0 0
-0.0084689920 -0.0261181560 0 0
-0.0088507220 -0.0260296050 0 0
-0.0095485660 -0.0247119090 0 0
-0.0104744610 -0.0223120140 0 0
-0.0115107450 -0.0190829740 0 0
-0.0125232550 -0.0153566490 0 0
-0.0133763930 -0.0115094500 0 0
-0.0139484810 -0.0079242030 0 0
-0.0141444120 -0.0049529950 0 0
-0.0139032950 -0.0028850690 0 0
-0.0132019180 -0.0019208080 0 0
-0.0120564360 -0.0021524760 0 0
-0.0105229130 -0.0035548500 0 0
-0.0086954920 -0.0059883180 0 0
-0.0067010780 -0.0092132430 0 0
-0.0046897580 -0.0129132960 0 0
-0.0028201470 -0.0167268060 0 0
-0.0012404950 -0.0202837490 0 0
-0.0000695374 -0.0232430310 0 0
0.0006178440 -0.0253250200 0 0
0.0007976520 -0.0263371660 0 0
0.0004970840 -0.0261916660 0 0
-0.0002106080 -0.0249131370 0 0
-0.0012160520 -0.0226346800 0 0
-0.0023871350 -0.0195836360 0 0
-0.0035833990 -0.0160604220 0 0
-0.0046694810 -0.0124121030 0 0
-0.0055267270 -0.0090001220 0 0
-0.0060626090 -0.0061638820 0 0
-0.0062179660 -0.0041855420 0 0
-0.0059714020 -0.0032607140 0 0
-0.0053401060 -0.0034772700 0 0
-0.0043778400 -0.0048044180 0 0
-0.0031708750 -0.0070948880 0 0
-0.0018309800 -0.0101014760 0 0
-0.0004852650 -0.0135053680 0 0
0.0007354450 -0.0169505410 0 0
0.0017082990 -0.0200788770 0 0
0.0023303580 -0.0225633700 0 0
0.0025309620 -0.0241383830 0 0
0.0022828020 -0.0246253750 0 0
0.0016079830 -0.0239516040 0 0
0.0005756920 -0.0221589580 0 0
-0.0007080340 -0.0194013900 0 0
-0.0021135330 -0.0159316150 0 0
-0.0034985420 -0.0120785210 0 0
-0.0047166210 -0.0082161850 0 0
-0.0056266470 -0.0047264390 0 0
-0.0061057960 -0.0019597070 0 0
-0.0060645160 -0.0001996680 0 0
-0.0054600020 0.0003651240 0 0
-0.0043053550 -0.0003387000 0 0
-0.0026729920 -0.0022599600 0 0
-0.0006912930 -0.0052267490 0 0
0.0014665240 -0.0089636540 0 0
0.0036011070 -0.0131204620 0 0
0.0055106690 -0.0173086960 0 0
0.0070150700 -0.0211407510 0 0
0.0079759740 -0.0242666340 0 0
0.0083110580 -0.0264058550 0 0
0.0080019090 -0.0273730160 0 0
0.0070948940 -0.0270945930 0 0
0.0056942070 -0.0256150890 0 0
0.0039476990 -0.0230925430 0 0
0.0020282850 -0.0197833830 0 0
0.0001148920 -0.0160164080 0 0
-0.0016241200 -0.0121582840 0 0
-0.0030445920 -0.0085756040 0 0
-0.0040379480 -0.0055983690 0 0
-0.0045403070 -0.0034886710 0 0
-0.0045386510 -0.0024177250 0 0
-0.0040730040 -0.0024524950 0 0
-0.0032328460 -0.0035517390 0 0
-0.0021466140 -0.0055712030 0 0
-0.0009663500 -0.0082777180 0 0
0.0001486390 -0.0113726150 0 0
0.0010472620 -0.0145232330 0 0
0.0016016310 -0.0173970890 0 0
0.0017213410 -0.0196932650 0 0
0.0013648110 -0.0211692610 0 0
0.0005444950 -0.0216619480 0 0
-0.0006761060 -0.0211005700 0 0
-0.0021928430 -0.0195118640 0 0
-0.0038750670 -0.0170176610 0 0
-0.0055796710 -0.0138242650 0 0
-0.0071638230 -0.0102056730 0 0
-0.0084971330 -0.0064836380 0 0
-0.0094734160 -0.0030034700 0 0
-0.0100212530 -0.0001032790 0 0
-0.0101118750 0.0019215580 0 0
-0.0097624840 0.0028529810 0 0
-0.0090335070 0.0025769300 0 0
-0.0080199810 0.0010970380 0 0
-0.0068392640 -0.0014652520 0 0
-0.0056181800 -0.0048820250 0 0
-0.0044818390 -0.0088403280 0 0
-0.0035447730 -0.0129728140 0 0
-0.0029039020 -0.0168951430 0 0
-0.0026319730 -0.0202458580 0 0
-0.0027708380 -0.0227235640 0 0
-0.0033258870 -0.0241166240 0 0
-0.0042632930 -0.0243222120 0 0
-0.0055105660 -0.0233531690 0 0
-0.0069604720 -0.0213331840 0 0
-0.0084791150 -0.0184831240 0 0
-0.0099188770 -0.0151009770 0 0
-0.0111349640 -0.0115355570 0 0
-0.0120024190 -0.0081539050 0 0
-0.0124305180 -0.0053047380 0 0
-0.0123725010 -0.0032828250 0 0
-0.0118296590 -0.0022992280 0 0
-0.0108499610 -0.0024605630 0 0
-0.0095222020 -0.0037590550 0 0
-0.0079667780 -0.0060733550 0 0
-0.0063242060 -0.0091785020 0 0
-0.0047423960 -0.0127648290 0 0
-0.0033628970 -0.0164673150 0 0
-0.0023061110 -0.0199041110 0 0
-0.0016570120 -0.0227187330 0 0
-0.0014546650 -0.0246191430 0 0
-0.0016882750 -0.0254080870 0 0
-0.0023002990 -0.0250006840 0 0
-0.0031953080 -0.0234285990 0 0
-0.0042523130 -0.0208340530 0 0
-0.0053381890 -0.0174568840 0 0
-0.0063204590 -0.0136147450 0 0
-0.0070786140 -0.0096749260 0 0
-0.0075136610 -0.0060178360 0 0
-0.0075556510 -0.0029961170 0 0
-0.0071689450 -0.0008967790 0 0
-0.0063555210 0.0000867037 0 0
-0.0051563580 -0.0001303930 0 0
-0.0036493260 -0.0015200630 0 0
-0.0019423400 -0.0039454000 0 0
-0.0001631100 -0.0071701980 0 0
0.0015523420 -0.0108758980 0 0
0.0030715820 -0.0146890290 0 0
0.0042783860 -0.0182188370 0 0
0.0050855930 -0.0210995740 0 0
0.0054452240 -0.0230297770 0 0
0.0053522010 -0.0238026020 0 0
0.0048416560 -0.0233245140 0 0
0.0039832780 -0.0216225790 0 0
0.0028744090 -0.0188418630 0 0
0.0016307190 -0.0152339970 0 0
0.0003743670 -0.0111367180 0 0
-0.0007779520 -0.0069435130 0 0
-0.0017248360 -0.0030637790 0 0
-0.0023878080 0.0001219900 0 0
-0.0027172490 0.0023039110 0 0
-0.0026960460 0.0032745650 0 0
-0.0023400890 0.0029480650 0 0
-0.0016960310 0.0013652940 0 0
-0.0008376060 -0.0013143730 0 0
0.0001389000 -0.0048325140 0 0
0.0011206630 -0.0088586250 0 0
0.0019871710 -0.0130203800 0 0
0.0026228750 -0.0169340550 0 0
0.0029322020 -0.0202351830 0 0
0.0028525890 -0.0226115120 0 0
0.0023621480 -0.0238365780 0 0
0.0014821550 -0.0237957230 0 0
0.0002752200 -0.0224975870 0 0
-0.0011611030 -0.0200728610 0 0
-0.0027045500 -0.0167650210 0 0
-0.0042206400 -0.0129121760 0 0
-0.0055763600 -0.0089157410 0 0
-0.0066531940 -0.0051952970 0 0
-0.0073573450 -0.0021378000 0 0
-0.0076276760 -0.0000556760 0 0
-0.0074429340 0.0008384040 0 0
-0.0068267440 0.0004445620 0 0
-0.0058469030 -0.0012176280 0 0
-0.0046078780 -0.0040099950 0 0
-0.0032388970 -0.0076879130 0 0
-0.0018808070 -0.0119241650 0 0
-0.0006724980 -0.0163411350 0 0
0.0002639360 -0.0205470260 0 0
0.0008377430 -0.0241730670 0 0
0.0009996970 -0.0269096040 0 0
0.0007458740 -0.0285375310 0 0
0.0001164000 -0.0289498660 0 0
-0.0008092840 -0.0281598390 0 0
-0.0019203740 -0.0262957240 0 0
-0.0030854610 -0.0235854090 0 0
-0.0041650780 -0.0203336450 0 0
-0.0050251980 -0.0168934920 0 0
-0.0055507000 -0.0136336100 0 0
-0.0056572550 -0.0109043810 0 0
-0.0053003260 -0.0090055780 0 0
-0.0044809250 -0.0081569710 0 0
-0.0032478400 -0.0084737720 0 0
-0.0016949620 -0.0099508320 0 0
0.0000479504 -0.0124599310 0 0
0.0018308280 -0.0157621600 0 0
0.0035012370 -0.0195338640 0 0
0.0049193150 -0.0234016920 0 0
0.0059673840 -0.0269814120 0 0
0.0065568190 -0.0299164390 0 0
0.0066358050 -0.0319135590 0 -1
0.0061979280 -0.0327726230 0 -1
0.0052872680 -0.0324058780 0 -1
0.0039954750 -0.0308448110 0 -1
0.0024505800 -0.0282356190 0 0
0.0008011230 -0.0248244540 0 0
-0.0008004180 -0.0209328390 0 0
-0.0022125600 -0.0169256000 0 0
-0.0033171640 -0.0131759610 0 0
-0.0040289230 -0.0100320110 0 0
-0.0043019960 -0.0077861290 0 0
-0.0041335620 -0.0066473480 0 0
-0.0035633500 -0.0067188900 0 0
-0.0026685460 -0.0079862240 0 0
-0.0015551390 -0.0103185760 0 0
-0.0003476100 -0.0134811970 0 0
0.0008216730 -0.0171557370 0 0
0.0018230640 -0.0209695820 0 0
0.0025410010 -0.0245336570 0 0
0.0028858480 -0.0274835820 0 0
0.0028038950 -0.0295177530 0 0
0.0022832380 -0.0304278540 0 -1
0.0013553210 -0.0301194090 0 -1
0.0000926798 -0.0286207390 0 0
-0.0013974580 -0.0260792140 0 0
-0.0029844860 -0.0227456870 0 0
-0.0045298580 -0.0189491820 0 0
-0.0059034860 -0.0150637050 0 0
-0.0069974520 -0.0114703910 0 0
-0.0077356540 -0.0085203800 0 0
-0.0080796060 -0.0065024240 0 0
-0.0080305090 -0.0056156380 0 0
-0.0076278820 -0.0059479440 0 0
-0.0069454610 -0.0074643570 0 0
-0.0060844490 -0.0100092950 0 0
-0.0051637260 -0.0133225750 0 0
-0.0043074280 -0.0170661310 0 0
-0.0036318920 -0.0208584220 0 0
-0.0032345770 -0.0243128580 0 0
-0.0031857790 -0.0270758740 0 0
-0.0035223190 -0.0288616750 0 0
-0.0042430380 -0.0294809260 0 0
-0.0053071970 -0.0288593200 0 0
-0.0066370180 -0.0270430290 0 0
-0.0081245600 -0.0241913910 0 0
-0.0096414760 -0.0205590500 0 0
-0.0110505910 -0.0164703220 0 0
-0.0122194770 -0.0122882790 0 0
-0.0130351010 -0.0083810190 0 0
-0.0134167980 -0.0050878780 0 0
-0.0133250100 -0.0026881430 0 0
-0.0127645670 -0.0013752280 0 0
-0.0117825090 -0.0012399280 0 0
-0.0104616340 -0.0022640540 0 0
-0.0089123990 -0.0043225090 0 0
-0.0072654700 -0.0071926840 0 0
-0.0056639470 -0.0105725950 0 0
-0.0042524590 -0.0141084180 0 0
-0.0031627640 -0.0174297450 0 0
-0.0024983970 -0.0201887530 0 0
-0.0023215470 -0.0220971730 0 0
-0.0026446120 -0.0229552600 0 0
-0.0034279620 -0.0226705850 0 0
-0.0045843670 -0.0212663690 0 0
-0.0059892180 -0.0188787250 0 0
-0.0074944920 -0.0157434550 0 0
-0.0089443500 -0.0121744510 0 0
-0.0101909790 -0.0085343930 0 0
-0.0111095850 -0.0051976640 0 0
-0.0116109360 -0.0025094430 0 0
-0.0116493770 -0.0007492650 0 0
-0.0112252570 -0.0001042010 0 0
-0.0103831690 -0.0006514070 0 0
-0.0092079730 -0.0023510290 0 0
-0.0078184820 -0.0050516620 0 0
-0.0063574540 -0.0085058940 0 0
-0.0049772020 -0.0123899150 0 0
-0.0038207640 -0.0163247680 0 0
-0.0030012440 -0.0199060950 0 0
-0.0025862640 -0.0227504090 0 0
-0.0025935240 -0.0245495590 0 0
-0.0029961360 -0.0251119810 0 0
-0.0037320030 -0.0243797530 0 0
-0.0047137060 -0.0224269460 0 0
-0.0058380940 -0.0194466040 0 0
-0.0069953980 -0.0157292480 0 0
-0.0080774740 -0.0116342450 0 0
-0.0089844330 -0.0075543770 0 0
-0.0096293750 -0.0038759050 0 0
-0.0099423970 -0.0009401770 0 0
-0.0098754930 0.0009883870 0 0
-0.0094086530 0.0017460150 0 0
-0.0085556650 0.0012828200 0 0
-0.0073671410 -0.0003360970 0 0
-0.0059285530 -0.0029401460 0 0
-0.0043523940 -0.0062709430 0 0
-0.0027655590 -0.0100068540 0 0
-0.0012948680 -0.0137925850 0 0
-0.0000535117 -0.0172712390 0 0
0.0008704520 -0.0201166740 0 0
0.0014231200 -0.0220639310 0 0
0.0015902480 -0.0229349890 0 0
0.0013982170 -0.0226569640 0 0
0.0009105090 -0.0212702420 0 0
0.0002206610 -0.0189251090 0 0
-0.0005571780 -0.0158666920 0 0
-0.0012993980 -0.0124093340 0 0
-0.0018854320 -0.0089037670 0 0
-0.0022105460 -0.0057021680 0 0
-0.0021972030 -0.0031254270 0 0
-0.0018035340 -0.0014347860 0 0
-0.0010279280 -0.0008085070 0 0
0.0000906831 -0.0013244180 0 0
0.0014765390 -0.0029509310 0 0
0.0030241030 -0.0055491920 0 0
0.0046075980 -0.0088861850 0 0
0.0060921180 -0.0126563750 0 0
0.0073459380 -0.0165095720 0 0
0.0082535120 -0.0200832670 0 0
0.0087270720 -0.0230369860 0 0
0.0087146350 -0.0250851050 0 0
0.0082042170 -0.0260246850 0 0
0.0072253210 -0.0257559910 0 0
0.0058475560 -0.0242936810 0 0
0.0041750960 -0.0217673860 0 0
0.0023370530 -0.0184114040 0 0
0.0004755360 -0.0145431890 0 0
-0.0012673920 -0.0105313050 0 0
-0.0027632010 -0.0067569310 0 0
-0.0039093590 -0.0035748590 0 0
-0.0046385050 -0.0012783620 0 0
-0.0049229680 -0.0000710816 0 0
-0.0047757850 -0.0000488573 0 0
-0.0042503790 -0.0011923930 0 0
-0.0034388480 -0.0033699520 0 0
-0.0024662040 -0.0063500280 0 0
-0.0014783740 -0.0098238380 0 0
-0.0006248230 -0.0134355520 0 0
-0.0000396732 -0.0168170950 0 0
0.0001741650 -0.0196243750 0 0
-0.0000447399 -0.0215717390 0 0
-0.0007115290 -0.0224611070 0 0
-0.0017943330 -0.0222019190 0 0
-0.0032172270 -0.0208189940 0 0
-0.0048677590 -0.0184480840 0 0
-0.0066093550 -0.0153211990 0 0
-0.0082965540 -0.0117438940 0 0
-0.0097897540 -0.0080658430 0 0
-0.0109674040 -0.0046469480 0 0
-0.0117357740 -0.0018229260 0 0
-0.0120368990 0.0001263410 0 0
-0.0118542660 0.0010040490 0 0
-0.0112154780 0.0007170350 0 0
-0.0101918250 -0.0007137650 0 0
-0.0088944360 -0.0031549040 0 0
-0.0074656800 -0.0063731780 0 0
-0.0060647500 -0.0100569700 0 0
-0.0048483060 -0.0138440100 0 0
-0.0039497330 -0.0173540630 0 0
-0.0034617340 -0.0202243400 0 0
-0.0034258330 -0.0221456590 0 0
-0.0038302160 -0.0228981380 0 0
-0.0046148430 -0.0223803600 0 0
-0.0056808920 -0.0206213920 0 0
-0.0069026210 -0.0177728960 0 0
-0.0081413690 -0.0140891490 0 0
-0.0092599790 -0.0099006970 0 0
-0.0101344170 -0.0055809060 0 0
-0.0106623100 -0.0015076450 0 0
-0.0107712770 0.0019717760 0 0
-0.0104277840 0.0045676690 0 0
-0.0096435200 0.0060697630 0 0
-0.0084760180 0.0063664430 0 0
-0.0070229350 0.0054588730 0 0
-0.0054119220 0.0034655240 0 0
-0.0037885820 0.0006144070 0 0
-0.0023036280 -0.0027778610 0 0
-0.0010992760 -0.0063393330 0 0
-0.0002954880 -0.0096843300 0 0
0.0000220076 -0.0124556930 0 0
-0.0001903070 -0.0143604860 0 0
-0.0009307190 -0.0151965540 0 0
-0.0021533730 -0.0148700130 0 0
-0.0037718240 -0.0134030590 0 0
-0.0056641970 -0.0109315050 0 0
-0.0076807860 -0.0076924250 0 0
-0.0096555580 -0.0040020740 0 0
-0.0114215920 -0.0002248340 0 0
-0.0128285980 0.0032637280 0 0
-0.0137594560 0.0061148040 0 0
-0.0141426090 0.0080407680 0 0
-0.0139583340 0.0088432460 0 0
-0.0132387050 0.0084328450 0 0
-0.0120620380 0.0068388270 0 0
-0.0105430250 0.0042080810 0 0
-0.0088200940 0.0007935180 0 0
-0.0070415450 -0.0030687300 0 0
-0.0053517120 -0.0069934780 0 0
-0.0038781440 -0.0105884800 0 0
-0.0027208190 -0.0134966180 0 0
-0.0019449620 -0.0154313000 0 0
-0.0015786530 -0.0162027910 0 0
-0.0016136340 -0.0157357500 0 0
-0.0020060100 -0.0140765780 0 0
-0.0026760610 -0.0113883800 0 0
-0.0035106060 -0.0079340000 0 0
-0.0043720990 -0.0040503690 0 0
-0.0051150340 -0.0001172770 0 0
-0.0056060830 0.0034774690 0 0
-0.0057428320 0.0063743970 0 0
-0.0054664110 0.0082772180 0 0
-0.0047658030 0.0089826520 0 0
-0.0036755650 0.0084019920 0 0
-0.0022702350 0.0065718830 0 0
-0.0006565060 0.0036525300 0 0
0.0010373410 -0.0000877129 0 0
0.0026744300 -0.0043004690 0 0
0.0041235860 -0.0085945100 0 0
0.0052733740 -0.0125762350 0 0
0.0060437470 -0.0158873750 0 0
0.0063932360 -0.0182361590 0 0
0.0063208760 -0.0194219490 0 0
0.0058637210 -0.0193536380 0 0
0.0050916940 -0.0180591100 0 0
0.0041008390 -0.0156828560 0 0
0.0030050510 -0.0124716670 0 0
0.0019262310 -0.0087502250 0 0
0.0009833020 -0.0048891390 0 0
0.0002811330 -0.0012691540 0 0
-0.0000995365 0.0017538800 0 0
-0.0001100900 0.0038801190 0 0
0.0002612920 0.0048929160 0 0
0.0009889380 0.0046824340 0 0
0.0020121150 0.0032615720 0 0
0.0032395310 0.0007671900 0 0
0.0045560540 -0.0025561280 0 0
0.0058323390 -0.0063847450 0 0
0.0069370730 -0.0103488160 0 0
0.0077502150 -0.0140644920 0 0
0.0081751310 -0.0171656630 0 0
0.0081486590 -0.0193371850 0 0
0.0076492380 -0.0203488710 0 0
0.0067027510 -0.0200849960 0 0
0.0053838600 -0.0185619680 0 0
0.0038101440 -0.0159289040 0 0
0.0021288700 -0.0124505000 0 0
0.0004992430 -0.0084753630 0 0
-0.0009262910 -0.0043951800 0 0
-0.0020191070 -0.0006017660 0 0
-0.0026882770 0.0025509890 0 0
-0.0028902880 0.0047771360 0 0
-0.0026336450 0.0058813070 0 0
-0.0019772000 0.0057744890 0 0
-0.0010219540 0.0044812310 0 0
0.0001023700 0.0021366730 0 0
0.0012531450 -0.0010252920 0 0
0.0022898460 -0.0046905480 0 0
0.0030862110 -0.0084906330 0 0
0.0035393160 -0.0120368480 0 0
0.0035760700 -0.0149596930 0 0
0.0031576090 -0.0169483000 0 0
0.0022822470 -0.0177848270 0 0
0.0009878940 -0.0173689660 0 0
-0.0006464390 -0.0157284990 0 0
-0.0025030120 -0.0130150000 0 0
-0.0044346770 -0.0094864480 0 0
-0.0062809440 -0.0054791650 0 0
-0.0078874760 -0.0013723580 0 0
-0.0091248740 0.0024498420 0 0
-0.0099034590 0.0056339240 0 0
-0.0101822290 0.0078875880 0 0
-0.0099714080 0.0090049160 0 0
-0.0093287710 0.0088849940 0 0
-0.0083506990 0.0075418020 0 0
-0.0071601480 0.0051041580 0 0
-0.0058941150 0.0018059310 0 0
-0.0046917470 -0.0020332590 0 0
-0.0036830150 -0.0060365370 0 0
-0.0029781930 -0.0098053480 0 0
-0.0026588070 -0.0129587350 0 0
-0.0027707020 -0.0151728130 0 0
-0.0033198950 -0.0162160970 0 0
-0.0042715000 -0.0159755460 0 0
-0.0055517580 -0.0144684490 0 0
-0.0070536910 -0.0118379360 0 0
-0.0086472460 -0.0083352130 0 0
-0.0101935910 -0.0042941270 0 0
-0.0115608790 -0.0001013980 0 0
-0.0126374850 0.0038373590 0 0
-0.0133402330 0.0071369470 0 0
-0.0136179620 0.0094747350 0 0
-0.0134522540 0.0106271520 0 0
-0.0128572760 0.0104919990 0 0
-0.0118802710 0.0090944350 0 0
-0.0106024120 0.0065804310 0 0
-0.0091368300 0.0032031150 0 0
-0.0076200890 -0.0006967990 0 0
-0.0061971430 -0.0047214890 0 0
-0.0050034480 -0.0084594300 0 0
-0.0041477770 -0.0115331990 0 0
-0.0036981440 -0.0136406980 0 0
-0.0036731780 -0.0145848740 0 0
-0.0040406890 -0.0142910530 0 0
-0.0047232030 -0.0128116730 0 0
-0.0056084190 -0.0103186980 0 0
-0.0065619450 -0.0070847600 0 0
-0.0074406150 -0.0034547000 0 0
-0.0081063170 0.0001898270 0 0
-0.0084404450 0.0034686750 0 0
-0.0083569830 0.0060402100 0 0
-0.0078112920 0.0076338380 0 0
-0.0068037010 0.0080753410 0 0
-0.0053791590 0.0073023830 0 0
-0.0036237040 0.0053682010 0 0
-0.0016574450 0.0024332750 0 0
0.0003760530 -0.0012521720 0 0
0.0023233080 -0.0053710590 0 0
0.0040358630 -0.0095661200 0 0
0.0053845080 -0.0134698450 0 0
0.0062712050 -0.0167354510 0 0
0.0066379320 -0.0190663010 0 0
0.0064716850 -0.0202434500 0 0
0.0058050450 -0.0201507530 0 0
0.0047127420 -0.0187926500 0 0
0.0033054990 -0.0162981070 0 0
0.0017217240 -0.0129084790 0 0
0.0001164490 -0.0089522620 0 0
-0.0013529730 -0.0048117600 0 0
-0.0025436460 -0.0008862130 0 0
-0.0033442880 0.0024454140 0 0
-0.0036891090 0.0048596790 0 0
-0.0035644380 0.0061198560 0 0
-0.0030072340 0.0061003250 0 0
-0.0020984500 0.0048003030 0 0
-0.0009534810 0.0023443990 0 0
0.0002909500 -0.0010297900 0 0
0.0014932160 -0.0049957050 0 0
0.0025231470 -0.0091715830 0 0
0.0032746160 -0.0131600470 0 0
0.0036733790 -0.0165878000 0 0
0.0036818710 -0.0191398810 0 0
0.0033025290 -0.0205853330 0 0
0.0025787890 -0.0207949530 0 0
0.0015914970 -0.0197534730 0 0
0.0004498280 -0.0175658170 0 0
-0.0007212630 -0.0144535230 0 0
-0.0017938590 -0.0107371630 0 0
-0.0026488260 -0.0068042460 0 0
-0.0031870630 -0.0030672540 0 0
-0.0033404740 0.0000812629 0 0
-0.0030811900 0.0023113180 0 0
-0.0024264500 0.0033917380 0 0
-0.0014373240 0.0032149270 0 0
-0.0002120770 0.0018060780 0 0
0.0011232540 -0.0006832520 0 0
0.0024256540 -0.0039941390 0 0
0.0035473980 -0.0077885870 0 0
0.0043496480 -0.0116848880 0 0
0.0047165960 -0.0152968790 0 0
0.0045686260 -0.0182723780 0 0
0.0038718590 -0.0203268150 0 0
0.0026417680 -0.0212696420 0 0
0.0009409790 -0.0210213780 0 0
-0.0011266650 -0.0196191870 0 0
-0.0034242470 -0.0172109140 0 0
-0.0057924960 -0.0140397690 0 0
-0.0080639570 -0.0104213880 0 0
-0.0100798420 -0.0067142300 0 0
-0.0117066740 -0.0032862860 0 0
-0.0128489090 -0.0004819340 0 0
-0.0134555290 0.0014100100 0 0
-0.0135219090 0.0021863760 0 0
-0.0130893270 0.0017529210 0 0
-0.0122423170 0.0001344660 0 0
-0.0111019320 -0.0025290820 0 0
-0.0098136590 -0.0059968480 0 0
-0.0085312850 -0.0099483290 0 0
-0.0073998960 -0.0140121200 0 0
-0.0065411850 -0.0178016940 0 0
-0.0060426940 -0.0209542730 0 0
-0.0059508610 -0.0231672130 0 0
-0.0062675120 -0.0242288000 0 0
-0.0069504920 -0.0240416450 0 0
-0.0079194660 -0.0226351550 0 0
-0.0090662940 -0.0201632760 0 0
-0.0102676320 -0.0168872710 0 0
-0.0113974670 -0.0131470820 0 0
-0.0123383640 -0.0093254310 0 0
-0.0129907930 -0.0058084620 0 0
-0.0132805520 -0.0029477140 0 0
-0.0131647550 -0.0010275910 0 0
-0.0126366990 -0.0002393470 0 0
-0.0117288460 -0.0006618320 0 0
-0.0105118640 -0.0022519670 0 0
-0.0090886150 -0.0048486320 0 0
-0.0075845550 -0.0081895760 0 0
-0.0061364940 -0.0119378730 0 0
-0.0048801770 -0.0157151560 0 0
-0.0039371150 -0.0191395760 0 0
-0.0034023660 -0.0218649410 0 0
-0.0033352030 -0.0236158440 0 0
-0.0037532200 -0.0242140270 0 0
-0.0046292160 -0.0235939810 0 0
-0.0058912050 -0.0218079960 0 0
-0.0074272600 -0.0190207400 0 0
-0.0090961550 -0.0154931480 0 0
-0.0107425300 -0.0115569490 0 0
-0.0122139720 -0.0075825100 0 0
-0.0133775620 -0.0039431970 0 0
-0.0141337250 -0.0009798810 0 0
-0.0144252730 0.0010319410 0 0
-0.0142408270 0.0019106910 0 0
-0.0136147310 0.0015877260 0 0
-0.0126256530 0.0001120210 0 0
-0.0113921550 -0.0023565450 0 0
-0.0100617830 -0.0055611180 0 0
-0.0087937530 -0.0091719780 0 0
-0.0077392050 -0.0128226900 0 0
-0.0070231740 -0.0161505380 0 0
-0.0067306390 -0.0188322540 0 0
-0.0068977440 -0.0206121740 0 0
-0.0075079930 -0.0213205470 0 0
-0.0084927260 -0.0208804110 0 0
-0.0097371240 -0.0193098900 0 0
-0.0110938460 -0.0167274890 0 0
-0.0124026270 -0.0133551540 0 0
-0.0135102170 -0.0095081190 0 0
-0.0142858750 -0.0055672010 0 0
-0.0146309720 -0.0019371490 0 0
-0.0144841520 0.0010006400 0 0
-0.0138245430 0.0029325490 0 0
-0.0126741070 0.0036484110 0 0
-0.0110976650 0.0030633750 0 0
-0.0091985210 0.0012225680 0 0
-0.0071098130 -0.0017099550 0 0
-0.0049834430 -0.0054721540 0 0
-0.0029776410 -0.0097296680 0 0
-0.0012428060 -0.0141050000 0 0
0.0000940234 -0.0182101880 0 0
0.0009435400 -0.0216809090 0 0
0.0012639740 -0.0242091150 0 0
0.0010644700 -0.0255718820 0 0
0.0004024720 -0.0256538780 0 0
-0.0006231830 -0.0244606640 0 0
-0.0018821430 -0.0221205110 0 0
-0.0032247510 -0.0188731240 0 0
-0.0044960130 -0.0150455680 0 0
-0.0055503960 -0.0110187930 0 0
-0.0062662450 -0.0071896260 0 0
-0.0065582560 -0.0039323730 0 0
-0.0063865270 -0.0015624120 0 0
-0.0057607860 -0.0003035990 0 0
-0.0047387280 -0.0002632860 0 0
-0.0034188490 -0.0014205110 0 0
-0.0019298830 -0.0036302330 0 0
-0.0004188570 -0.0066414780 0 0
0.0009616550 -0.0101253130 0 0
0.0020675600 -0.0137092000 0 0
0.0027781660 -0.0170143390 0 0
0.0030094680 -0.0196923720 0 0
0.0027228990 -0.0214585380 0 0
0.0019287210 -0.0221191700 0 0
0.0006847880 -0.0215908600 0 0
-0.0009086640 -0.0199083050 0 0
-0.0027177230 -0.0172197610 0 0
-0.0045866160 -0.0137710030 0 0
-0.0063524060 -0.0098795110 0 0
-0.0078614260 -0.0059021840 0 0
-0.0089845440 -0.0022009670 0 0
-0.0096283140 0.0008904390 0 0
-0.0097412420 0.0030968190 0 0
-0.0093162960 0.0042265680 0 0
-0.0083908610 0.0041899360 0 0
-0.0070446400 0.0030091330 0 0
-0.0053949870 0.0008188060 0 0
-0.0035885250 -0.0021446370 0 0
-0.0017881550 -0.0055658750 0 0
-0.0001559110 -0.0090845380 0 0
0.0011657630 -0.0123342480 0 0
0.0020698470 -0.0149785660 0 0
0.0024941950 -0.0167403250 0 0
0.0024245470 -0.0174252400 0 0
0.0018935370 -0.0169392530 0 0
0.0009768690 -0.0152986250 0 0
-0.0002145150 -0.0126320470 0 0
-0.0015465760 -0.0091712810 0 0
-0.0028765230 -0.0052280400 0 0
-0.0040674780 -0.0011617070 0 0
-0.0050025170 0.0026550080 0 0
-0.0055962270 0.0058698840 0 0
-0.0058018430 0.0081844310 0 0
-0.0056139770 0.0093838390 0 0
-0.0050681850 0.0093592470 0 0
-0.0042378030 0.0081195400 0 0
-0.0032271280 0.0057919010 0 0
-0.0021602720 0.0026120800 0 0
-0.0011670430 -0.0010955840 0 0
-0.0003688960 -0.0049510950 0 0
0.0001328670 -0.0085626900 0 0
0.0002668390 -0.0115708360 0 0
-0.0000008385 -0.0136836230 0 0
-0.0006628400 -0.0147033730 0 0
-0.0016722300 -0.0145445750 0 0
-0.0029478390 -0.0132400320 0 0
-0.0043820310 -0.0109343800 0 0
-0.0058511010 -0.0078673890 0 0
-0.0072279890 -0.0043499770 0 0
-0.0083951010 -0.0007352170 0 0
-0.0092550070 0.0026140620 0 0
-0.0097382030 0.0053595390 0 0
-0.0098076990 0.0072209680 0 0
-0.0094602560 0.0080050420 0 0
-0.0087247590 0.0076246550 0 0
-0.0076592530 0.0061062830 0 0
-0.0063479990 0.0035875090 0 0
-0.0048980100 0.0003061090 0 0
-0.0034333520 -0.0034215100 0 0
-0.0020862890 -0.0072327600 0 0
-0.0009858120 -0.0107564690 0 0
-0.0002447150 -0.0136484310 0 0
0.0000536601 -0.0156219950 0 0
-0.0001323020 -0.0164742580 0 0
-0.0007933260 -0.0161071140 0 0
-0.0018662270 -0.0145395930 0 0
-0.0032389690 -0.0119086150 0 0
-0.0047629560 -0.0084575250 0 0
-0.0062700160 -0.0045125160 0 0
-0.0075916200 -0.0004487480 0 0
-0.0085785060 0.0033487120 0 0
-0.0091190070 0.0065227270 0 0
-0.0091534800 0.0087772230 0 0
-0.0086815570 0.0099051710 0 0
-0.0077605570 0.0098098690 0 0
-0.0064958610 0.0085153620 0 0
-0.0050254490 0.0061630710 0 0
-0.0035015980 0.0029960760 0 0
-0.0020729520 -0.0006655740 0 0
-0.0008690930 -0.0044566350 0 0
0.0000116629 -0.0080039370 0 0
0.0005107750 -0.0109645590 0 0
0.0006135040 -0.0130589900 0 0
0.0003476010 -0.0140963890 0 0
-0.0002233720 -0.0139916400 0 0
-0.0010101410 -0.0127730750 0 0
-0.0019085910 -0.0105794770 0 0
-0.0028101310 -0.0076467130 0 0
-0.0036110380 -0.0042849350 0 0
-0.0042203120 -0.0008473710 0 0
-0.0045663240 0.0023060360 0 0
-0.0046028440 0.0048448530 0 0
-0.0043146760 0.0065000410 0 0
-0.0037219540 0.0070894250 0 0
-0.0028806440 0.0065356950 0 0
-0.0018773080 0.0048761000 0 0
-0.0008189710 0.0022622780 0 0
0.0001795110 -0.0010520910 0 0
0.0010085300 -0.0047363910 0 0
0.0015751500 -0.0084175190 0 0
0.0018106550 -0.0117182000 0 0
0.0016738990 -0.0142947120 0 0
0.0011526730 -0.0158713060 0 0
0.0002656490 -0.0162689520 0 0
-0.0009352480 -0.0154252960 0 0
-0.0023647350 -0.0134025630 0 0
-0.0039085730 -0.0103817590 0 0
-0.0054319800 -0.0066443850 0 0
-0.0067912300 -0.0025443270 0 0
-0.0078485400 0.0015290930 0 0
-0.0084882410 0.0051955930 0 0
-0.0086294440 0.0081283280 0 0
-0.0082329640 0.0100861830 0 0
-0.0073049950 0.0109288760 0 0
-0.0059000060 0.0106202690 0 0
-0.0041211060 0.0092252610 0 0
-0.0021137500 0.0069007490 0 0
-0.0000512196 0.0038819200 0 0
0.0018852990 0.0004651260 0 0
0.0035272040 -0.0030155350 0 0
0.0047357450 -0.0062194840 0 0
0.0054146670 -0.0088333980 0 0
0.0055183320 -0.0106011490 0 0
0.0050555240 -0.0113481910 0 0
0.0040884660 -0.0109987620 0 0
0.0027266570 -0.0095835100 0 0
0.0011156970 -0.0072388380 0 0
-0.0005782450 -0.0041989750 0 0
-0.0021865990 -0.0007772080 0 0
-0.0035562540 0.0026654110 0 0
-0.0045642120 0.0057589990 0 0
-0.0051273570 0.0081642820 0 0
-0.0052072460 0.0096079670 0 0
-0.0048108520 0.0099111670 0 0
-0.0039878090 0.0090079600 0 0
-0.0028243010 0.0069525190 0 0
-0.0014345770 0.0039153050 0 0
0.0000484975 0.0001689550 0 0
0.0014835250 -0.0039365770 0 0
0.0027320200 -0.0080090980 0 0
0.0036714280 -0.0116554460 0 0
0.0042082770 -0.0145231500 0 0
0.0042890820 -0.0163376310 0 0
0.0039073480 -0.0169308600 0 0
0.0031056480 -0.0162581620 0 0
0.0019718050 -0.0144011650 0 0
0.0006289650 -0.0115564800 0 0
-0.0007787500 -0.0080123530 0 0
-0.0021021270 -0.0041174020 0 0
-0.0032021740 -0.0002457050 0 0
-0.0039636770 0.0032376570 0 0
-0.0043055180 0.0060075290 0 0
-0.0041863830 0.0078056580 0 0
-0.0036062920 0.0084635470 0 0
-0.0026056940 0.0079186020 0 0
-0.0012629830 0.0062200550 0 0
0.0003106100 0.0035232200 0 0
0.0019801380 0.0000741067 0 0
0.0035994820 -0.0038120860 0 0
0.0050251730 -0.0077771680 0 0
0.0061297840 -0.0114508370 0 0
0.0068141130 -0.0144850740 0 0
0.0070176790 -0.0165895230 0 0
0.0067264980 -0.0175635390 0 0
0.0059759150 -0.0173192860 0 0
0.0048466460 -0.0158919940 0 0
0.0034545550 -0.0134365120 0 0
0.0019366210 -0.0102106260 0 0
0.0004354680 -0.0065469220 0 0
-0.0009155190 -0.0028172380 0 0
-0.0020043280 0.0006047900 0 0
-0.0027483920 0.0033787570 0 0
-0.0030989660 0.0052280130 0 0
-0.0030426970 0.0059649860 0 0
-0.0026010210 0.0055097740 0 0
-0.0018284310 0.0038987550 0 0
-0.0008103430 0.0012811230 0 0
0.0003405250 -0.0020952060 0 0
0.0014918080 -0.0059059630 0 0
0.0025048180 -0.0097809310 0 0
0.0032525180 -0.0133418770 0 0
0.0036380440 -0.0162433610 0 0
0.0036082190 -0.0182090670 0 0
0.0031582580 -0.0190584870 0 0
0.0023278830 -0.0187219290 0 0
0.0011922580 -0.0172432840 0 0
-0.0001481800 -0.0147714650 0 0
-0.0015768360 -0.0115433400 0 0
-0.0029695180 -0.0078614320 0 0
-0.0042036450 -0.0040680960 0 0
-0.0051679090 -0.0005163600 0 0
-0.0057711990 0.0024615890 0 0
-0.0059505130 0.0045855560 0 0
-0.0056783040 0.0056550930 0 0
-0.0049685170 0.0055708780 0 0
-0.0038790600 0.0043469800 0 0
-0.0025086570 0.0021120460 0 0
-0.0009876750 -0.0009016420 0 0
0.0005359230 -0.0043807600 0 0
0.0019135180 -0.0079624790 0 0
0.0030130570 -0.0112712420 0 0
0.0037335480 -0.0139567800 0 0
0.0040146100 -0.0157294490 0 0
0.0038408830 -0.0163902540 0 0
0.0032422110 -0.0158533930 0 0
0.0022899430 -0.0141575910 0 0
0.0010894920 -0.0114625770 0 0
-0.0002300950 -0.0080307250 0 0
-0.0015285960 -0.0041983160 0 0
-0.0026678990 -0.0003418320 0 0
-0.0035247610 0.0031582220 0 0
-0.0040022660 0.0059547570 0 0
-0.0040393210 0.0077689590 0 0
-0.0036174290 0.0084173570 0 0
-0.0027640590 0.0078283710 0 0
-0.0015515470 0.0060481120 0 0
-0.0000907567 0.0032357020 0 0
0.0014800430 -0.0003515140 0 0
0.0030097890 -0.0043813120 0 0
0.0043510710 -0.0084762860 0 0
0.0053760910 -0.0122482130 0 0
0.0059896840 -0.0153350480 0 0
0.0061383910 -0.0174360470 0 0
0.0058157380 -0.0183399670 0 0
0.0050628560 -0.0179440890 0 0
0.0039631160 -0.0162638980 0 0
0.0026316860 -0.0134334740 0 0
0.0012022250 -0.0096959560 0 0
-0.0001874970 -0.0053824690 0 0
-0.0014089190 -0.0008805480 0 0
-0.0023532300 0.0034030450 0 0
-0.0029393400 0.0070811840 0 0
-0.0031196650 0.0098250470 0 0
-0.0028827290 0.0113983160 0 0
-0.0022524650 0.0116802140 0 0
-0.0012860980 0.0106742450 0 0
-0.0000717999 0.0085056970 0 0
0.0012753690 0.0054126280 0 0
0.0026220020 0.0017290130 0 0
0.0038303830 -0.0021472500 0 0
0.0047753550 -0.0058017750 0 0
0.0053596380 -0.0088540810 0 0
0.0055248860 -0.0109991600 0 0
0.0052580150 -0.0120374780 0 0
0.0045926610 -0.0118926520 0 0
0.0036051320 -0.0106144130 0 0
0.0024053230 -0.0083671870 0 0
0.0011250420 -0.0054081750 0 0
-0.0000943160 -0.0020590870 0 0
-0.0011147690 0.0013254230 0 0
-0.0018150510 0.0043903120 0 0
-0.0021027590 0.0068123970 0 0
-0.0019241560 0.0083311950 0 0
-0.0012704850 0.0087758030 0 0
-0.0001792860 0.0080838000 0 0
0.0012695190 0.0063088660 0 0
0.0029613270 0.0036160790 0 0
0.0047574960 0.0002654100 0 0
0.0065092620 -0.0034151110 0 0
0.0080737590 -0.0070636110 0 0
0.0093290410 -0.0103215660 0 0
0.0101860710 -0.0128689140 0 0
0.0105973800 -0.0144533190 0 0
0.0105621310 -0.0149129010 0 0
0.0101263500 -0.0141924350 0 0
0.0093770970 -0.0123501730 0 0
0.0084308530 -0.0095526450 0 0
0.0074183920 -0.0060590050 0 0
0.0064692980 -0.0021980140 0 0
0.0056988490 0.0016618680 0 0
0.0051985600 0.0051492890 0 0
0.0050300270 0.0079292980 0 0
0.0052207050 0.0097381830 0 0
0.0057615800 0.0104095630 0 0
0.0066085050 0.0098898970 0 0
0.0076878460 0.0082423860 0 0
0.0089042520 0.0056396550 0 0
0.0101483280 0.0023461840 0 0
0.0113045320 -0.0013084220 0 0
0.0122608220 -0.0049618120 0 0
0.0129199630 -0.0082523210 0 0
0.0132103430 -0.0108515200 0 0
0.0130941310 -0.0124949120 0 0
0.0125715230 -0.0130076740 0 0
0.0116806520 -0.0123219160 0 0
0.0104933150 -0.0104840820 0 0
0.0091073710 -0.0076519570 0 0
0.0076371140 -0.0040808630 0 0
0.0062028140 -0.0000996729 0 0
0.0049195890 0.0039214420 0 0
0.0038854550 0.0076083500 0 0
0.0031700860 0.0106209240 0 0
0.0028068840 0.0126866340 0 0
0.0027899770 0.0136258860 0 0
0.0030763990 0.0133673120 0 0
0.0035923690 0.0119529640 0 0
0.0042416410 0.0095335970 0 0
0.0049141630 0.0063537680 0 0
0.0054945330 0.0027277620 0 0
0.0058704570 -0.0009896250 0 0
0.0059417780 -0.0044330290 0 0
0.0056304550 -0.0072565620 0 0
0.0048905320 -0.0091650390 0 0
0.0037162460 -0.0099436210 0 0
0.0021471540 -0.0094807490 0 0
0.0002688200 -0.0077817570 0 0
-0.0017932550 -0.0049716830 0 0
-0.0038868580 -0.0012853230 0 0
-0.0058504730 0.0029555850 0 0
-0.0075307860 0.0073762290 0 0
-0.0087975300 0.0115882340 0 0
-0.0095552230 0.0152262160 0 0
-0.0097526330 0.0179782440 0 0
-0.0093892900 0.0196137000 0 0
-0.0085167700 0.0200074080 0 0
-0.0072337840 0.0191530140 0 0
-0.0056759120 0.0171623030 0 0
-0.0040013640 0.0142528800 0 0
-0.0023747020 0.0107267470 0 0
-0.0009508510 0.0069403380 0 0
0.0001387510 0.0032678320 0 0
0.0007970870 0.0000629532 0 0
0.0009697990 -0.0023750710 0 0
0.0006505570 -0.0038283560 0 0
-0.0001178860 -0.0041790950 0 0
-0.0012482880 -0.0034202120 0 0
-0.0026187470 -0.0016574480 0 0
-0.0040857610 0.0008990730 0 0
-0.0054982310 0.0039550550 0 0
-0.0067110060 0.0071623140 0 0
-0.0075976310 0.0101552600 0 0
-0.0080622200 0.0125891560 0 0
-0.0080497690 0.0141763260 0 0
-0.0075529830 0.0147168350 0 0
-0.0066133480 0.0141196690 0 0
-0.0053155540 0.0124114470 0 0
-0.0037763540 0.0097323310 0 0
-0.0021307150 0.0063206070 0 0
-0.0005185540 0.0024876870 0 0
0.0009264820 -0.0014140860 0 0
0.0020872800 -0.0050265450 0 0
0.0028735250 -0.0080187830 0 0
0.0032308040 -0.0101161790 0 0
0.0031467170 -0.0111259800 0 0
0.0026528870 -0.0109587050 0 0
0.0018223590 -0.0096412200 0 0
0.0007623740 -0.0073163890 0 0
-0.0003963570 -0.0042278890 0 0
-0.0015121940 -0.0006938640 0 0
-0.0024458550 0.0029257730 0 0
-0.0030739230 0.0062653750 0 0
-0.0033015880 0.0089899760 0 0
-0.0030728290 0.0108282180 0 0
-0.0023766120 0.0115983160 0 0
-0.0012487160 0.0112247840 0 0
0.0002303820 0.0097447180 0 0
0.0019410100 0.0073037650 0 0
0.0037333880 0.0041426030 0 0
0.0054409680 0.0005745790 0 0
0.0068973230 -0.0030441940 0 0
0.0079543140 -0.0063490880 0 0
0.0084991660 -0.0090019570 0 0
0.0084681740 -0.0107250090 0 0
0.0078544110 -0.0113319150 0 0
0.0067082300 -0.0107519670 0 0
0.0051315960 -0.0090410410 0 0
0.0032680480 -0.0063756980 0 0
0.0012891440 -0.0030320230 0 0
-0.0006226060 0.0006460360 0 0
-0.0022935750 0.0042839310 0 0
-0.0035783650 0.0075149660 0 0
-0.0043741920 0.0100155100 0 0
-0.0046282340 0.0115340680 0 0
-0.0043391410 0.0119136370 0 0
-0.0035547860 0.0111065580 0 0
-0.0023670980 0.0091795780 0 0
-0.0009035700 0.0063079620 0 0
0.0006849190 0.0027596050 0 0
0.0022389660 -0.0011292930 0 0
0.0036060910 -0.0049850090 0 0
0.0046547000 -0.0084310730 0 0
0.0052850400 -0.0111244070 0 0
0.0054367460 -0.0127897750 0 0
0.0050938810 -0.0132482450 0 0
0.0042884380 -0.0124357470 0 0
0.0031012430 -0.0104099070 0 0
0.0016574440 -0.0073448360 0 0
0.0001148110 -0.0035143930 0 0
-0.0013543830 0.0007340790 0 0
-0.0025848770 0.0050125970 0 0
-0.0034389240 0.0089291820 0 0
-0.0038218050 0.0121253740 0 0
-0.0036906950 0.0143110640 0 0
-0.0030574000 0.0152929600 0 0
-0.0019863460 0.0149937900 0 0
-0.0005882930 0.0134601380 0 0
0.0009909040 0.0108575200 0 0
0.0025863730 0.0074527160 0 0
0.0040328480 0.0035853630 0 0
0.0051829940 -0.0003669700 0 0
0.0059234860 -0.0040250210 0 0
0.0061870400 -0.0070419060 0 0
0.0059584260 -0.0091343990 0 0
0.0052736110 -0.0101105060 0 0
0.0042130490 -0.0098893110 0 0
0.0028907920 -0.0085086310 0 0
0.0014411500 -0.0061196920 0 0
0.0000051509 -0.0029709280 0 0
-0.0012815260 0.0006169530 0 0
-0.0022989760 0.0042824450 0 0
-0.0029515520 0.0076579770 0 0
-0.0031736400 0.0104040500 0 0
-0.0029331650 0.0122401630 0 0
-0.0022339000 0.0129715370 0 0
-0.0011164930 0.0125102850 0 0
0.0003426960 0.0108880140 0 0
0.0020357930 0.0082561560 0 0
0.0038314790 0.0048716580 0 0
0.0055867270 0.0010687730 0 0
0.0071603770 -0.0027784540 0 0
0.0084261240 -0.0062955400 0 0
0.0092835560 -0.0091422750 0 0
0.0096671730 -0.0110413070 0 0
0.0095536220 -0.0118026160 0 0
0.0089665920 -0.0113436470 0 0
0.0079775530 -0.0097009630 0 0
0.0067004190 -0.0070294320 0 0
0.0052799660 -0.0035882760 0 0
0.0038757860 0.0002838110 0 0
0.0026441880 0.0042009150 0 0
0.0017204480 0.0077660950 0 0
0.0012040790 0.0106096310 0 0
0.0011493160 0.0124279410 0 0
0.0015615870 0.0130188920 0 0
0.0023994370 0.0123064880 0 0
0.0035807630 0.0103494470 0 0
0.0049920480 0.0073329090 0 0
0.0064994290 0.0035461720 0 0
0.0079607590 -0.0006488840 0 0
0.0092387140 -0.0048540920 0 0
0.0102147060 -0.0086725760 0 0
0.0108015780 -0.0117452480 0 0
0.0109523750 -0.0137844490 0 0
0.0106639700 -0.0146026810 0 0
0.0099758930 -0.0141322360 0 0
0.0089645980 -0.0124303440 0 0
0.0077332880 -0.0096688980 0 0
0.0063987550 -0.0061139930 0 0
0.0050781220 -0.0020998820 0 0
0.0038781010 0.0020023830 0 0
0.0028878200 0.0058198770 0 0
0.0021744730 0.0090109590 0 0
0.0017799550 0.0112935990 0 0
0.0017175400 0.0124692500 0 0
0.0019697950 0.0124424920 0 0
0.0024898710 0.0112357070 0 0
0.0032061370 0.0089943370 0 0
0.0040272420 0.0059755630 0 0
0.0048460930 0.0025211320 0 0
0.0055459480 -0.0009766210 0 0
0.0060123120 -0.0041118230 0 0
0.0061488990 -0.0065085900 0 0
0.0058918690 -0.0078684030 0 0
0.0052183130 -0.0080095620 0 0
0.0041490600 -0.0068885200 0 0
0.0027477370 -0.0046006960 0 0
0.0011165780 -0.0013638500 0 0
-0.0006123850 0.0025100440 0 0
-0.0022912870 0.0066486830 0 0
-0.0037734130 0.0106564280 0 0
-0.0049298990 0.0141526780 0 0
-0.0056638800 0.0168075820 0 0
-0.0059207790 0.0183707810 0 0
-0.0056934350 0.0186920070 0 0
-0.0050214630 0.0177339490 0 0
-0.0039855810 0.0155762750 0 0
-0.0026983710 0.0124093900 0 0
-0.0012926460 0.0085177810 0 0
0.0000919443 0.0042530570 0 0
0.0013232380 -0.0000015908 0 0
0.0022901320 -0.0038701280 0 0
0.0029133110 -0.0070193930 0 0
0.0031520090 -0.0091879180 0 0
0.0030067490 -0.0102067300 0 0
0.0025178510 -0.0100126830 0 0
0.0017595760 -0.0086545320 0 0
0.0008309220 -0.0062903910 0 0
-0.0001553070 -0.0031748340 0 0
-0.0010839610 0.0003643920 0 0
-0.0018487650 0.0039577790 0 0
-0.0023620650 0.0072304480 0 0
-0.0025614800 0.0098398880 0 0
-0.0024132210 0.0115106720 0 0
-0.0019136590 0.0120615870 0 0
-0.0010900540 0.0114216260 0 0
0.0000007012 0.0096340860 0 0
0.0012766140 0.0068509850 0 0
0.0026380310 0.0033200540 0 0
0.0039770160 -0.0006360070 0 0
0.0051879960 -0.0046492230 0 0
0.0061785900 -0.0083434260 0 0
0.0068785440 -0.0113732980 0 0
0.0072451840 -0.0134592470 0 0
0.0072658040 -0.0144149790 0 0
0.0069584150 -0.0141661570 0 0
0.0063715520 -0.0127573350 0 0
0.0055829170 -0.0103461300 0 0
0.0046958480 -0.0071875080 0 0
0.0038321010 -0.0036105990 0 0
0.0031201530 0.0000123801 0 0
0.0026801180 0.0033041790 0 0
0.0026080700 0.0059220750 0 0
0.0029630110 0.0075924270 0 0
0.0037586510 0.0081369530 0 0
0.0049605570 0.0074899270 0 0
0.0064885560 0.0057052190 0 0
0.0082243010 0.0029513050 0 0
0.0100240870 -0.0005055800 0 0
0.0117360980 -0.0043265230 0 0
0.0132188790 -0.0081305860 0 0
0.0143570810 -0.0115306990 0 0
0.0150725140 -0.0141726080 0 0
0.0153303110 -0.0157724680 0 0
0.0151400100 -0.0161474430 0 0
0.0145511040 -0.0152334340 0 0
0.0136441300 -0.0130888440 0 0
0.0125204430 -0.0098893270 0 0
0.0112934720 -0.0059159880 0 0
0.0100817160 -0.0015330930 0 0
0.0090020160 0.0028476990 0 0
0.0081616950 0.0068121720 0 0
0.0076489420 0.0099888010 0 0
0.0075220420 0.0120871010 0 0
0.0077995560 0.0129247330 0 0
0.0084545400 0.0124415850 0 0
0.0094152930 0.0107014050 0 0
0.0105729210 0.0078827470 0 0
0.0117943380 0.0042608010 0 0
0.0129384550 0.0001813170 0 0
0.0138724740 -0.0039718250 0 0
0.0144849320 -0.0078126440 0 0
0.0146938530 -0.0109887860 0 0
0.0144515790 -0.0132138960 0 0
0.0137488690 -0.0142945730 0 0
0.0126181660 -0.0141491630 0 0
0.0111331420 -0.0128159930 0 0
0.0094023320 -0.0104501460 0 0
0.0075571820 -0.0073084090 0 0
0.0057369710 -0.0037231320 0 0
0.0040736780 -0.0000684973 0 0
0.0026790000 0.0032761160 0 0
0.0016345180 0.0059625020 0 0
0.0009855290 0.0077072860 0 0
0.0007387340 0.0083198330 0 0
0.0008634340 0.0077219770 0 0
0.0012954440 0.0059579440 0 0
0.0019429800 0.0031919550 0 0
0.0026942620 -0.0003086340 0 0
0.0034270360 -0.0042032810 0 0
0.0040206300 -0.0081157960 0 0
0.0043701850 -0.0116723770 0 0
0.0044001860 -0.0145349830 0 0
0.0040736200 -0.0164288480 0 0
0.0033956130 -0.0171660570 0 0
0.0024128250 -0.0166658930 0 0
0.0012094770 -0.0149681770 0 0
-0.0001004580 -0.0122342470 0 0
-0.0013846810 -0.0087332490 0 0
-0.0025062630 -0.0048147380 0 0
-0.0033386120 -0.0008710050 0 0
-0.0037803130 0.0027050380 0 0
-0.0037667140 0.0055605140 0 0
-0.0032754390 0.0074178780 0 0
-0.0023264770 0.0081018360 0 0
-0.0009797700 0.0075548980 0 0
0.0006686990 0.0058406150 0 0
0.0024937130 0.0031363930 0 0
0.0043516250 -0.0002826250 0 0
0.0060942370 -0.0040694420 0 0
0.0075834320 -0.0078407200 0 0
0.0087045190 -0.0112173300 0 0
0.0093770660 -0.0138623850 0 0
0.0095624140 -0.0155114250 0 0
0.0092676420 -0.0159941960 0 0
0.0085460080 -0.0152489970 0 0
0.0074926900 -0.0133288660 0 0
0.0062350920 -0.0103980960 0 0
0.0049198570 -0.0067179520 0 0
0.0036997520 -0.0026214820 0 0
0.0027211220 0.0015195860 0 0
0.0021106700 0.0053302680 0 0
0.0019609890 0.0084661200 0 0
0.0023169950 0.0106446850 0 0
0.0031674720 0.0116737420 0 0
0.0044448240 0.0114728110 0 0
0.0060330500 0.0100835790 0 0
0.0077821420 0.0076668460 0 0
0.0095263350 0.0044861500 0 0
0.0111029580 0.0008801760 0 0
0.0123692250 -0.0027724210 0 0
0.0132153740 -0.0060912600 0 0
0.0135731070 -0.0087315570 0 0
0.0134192920 -0.0104174770 0 0
0.0127760840 -0.0109687760 0 0
0.0117081920 -0.0103183820 0 0
0.0103161980 -0.0085190960 0 0
0.0087251020 -0.0057380700 0 0
0.0070705550 -0.0022391510 0 0
0.0054868090 0.0016441180 0 0
0.0040978330 0.0055401340 0 0
0.0030100500 0.0090720780 0 0
0.0023050330 0.0118914920 0 0
0.0020323140 0.0137120870 0 0
0.0022038590 0.0143405830 0 0
0.0027918610 0.0136993820 0 0
0.0037303640 0.0118366440 0 0
0.0049199170 0.0089221930 0 0
0.0062348460 0.0052300690 0 0
0.0075340700 0.0011099040 0 0
0.0086755470 -0.0030493530 0 0
0.0095317500 -0.0068591120 0 0
0.0100028210 -0.0099693510 0 0
0.0100264090 -0.0121003540 0 0
0.0095849190 -0.0130658860 0 0
0.0087092820 -0.0127885260 0 0
0.0074766990 -0.0113068690 0 0
0.0060016390 -0.0087720540 0 0
0.0044224840 -0.0054325370 0 0
0.0028864230 -0.0016094910 0 0
0.0015339480 0.0023338830 0 0
0.0004846040 0.0060265500 0 0
-0.0001734530 0.0091241080 0 0
-0.0003890890 0.0113411380 0 0
-0.0001502720 0.0124795000 0 0
0.0005156370 0.0124477420 0 0
0.0015433530 0.0112684570 0 0
0.0028346210 0.0090753700 0 0
0.0042671530 0.0061012170 0 0
0.0057061760 0.0026583610 0 0
0.0070182480 -0.0008828930 0 0
0.0080869510 -0.0041214250 0 0
0.0088264400 -0.0066681580 0 0
0.0091885890 -0.0082020250 0 0
0.0091647850 -0.0085190630 0 0
0.0087856630 -0.0075575420 0 0
0.0081188270 -0.0053979880 0 0
0.0072629260 -0.0022461590 0 0
0.0063383270 0.0015934890 0 0
0.0054755880 0.0057496800 0 0
0.0048022250 0.0098194910 0 0
0.0044284940 0.0134053190 0 0
0.0044342940 0.0161518760 0 0
0.0048596810 0.0177803210 0 0
0.0057003280 0.0181158410 0 0
0.0069083490 0.0171053320 0 0
0.0083985700 0.0148230290 0 0
0.0100586870 0.0114630290 0 0
0.0117601620 0.0073192470 0 0
0.0133682850 0.0027558650 0 0
0.0147523630 -0.0018269070 0 0
0.0157967010 -0.0060278340 0 0
0.0164113370 -0.0094794210 0 0
0.0165412390 -0.0118819630 0 0
0.0161731060 -0.0130333220 0 0
0.0153386490 -0.0128494730 0 0
0.0141130540 -0.0113731130 0 0
0.0126084950 -0.0087699650 0 0
0.0109634540 -0.0053134280 0 0
0.0093285490 -0.0013586640 0 0
0.0078505910 0.0026920490 0 0
0.0066578740 0.0064292240 0 0
0.0058487190 0.0094766600 0 0
0.0054829410 0.0115284790 0 0
0.0055759250 0.0123793110 0 0
0.0060966080 0.0119442810 0 0
0.0069702550 0.0102666690 0 0
0.0080852980 0.0075131270 0 0
0.0093036370 0.0039576770 0 0
0.0104745660 -0.0000443512 0 0
0.0114508220 -0.0040913950 0 0
0.0121036060 -0.0077766450 0 0
0.0123348530 -0.0107298540 0 0
0.0120870860 -0.0126553960 0 0
0.0113505750 -0.0133627800 0 0
0.0101658650 -0.0127856750 0 0
0.0086204900 -0.0109867220 0 0
0.0068410010 -0.0081488730 0 0
0.0049814430 -0.0045563520 0 0
0.0032077360 -0.0005676940 0 0
0.0016788570 0.0034181810 0 0
0.0005285820 0.0070014940 0 0
-0.0001491740 0.0098226030 0 0
-0.0003105740 0.0115986090 0 0
0.0000331047 0.0121513860 0 0
0.0008170020 0.0114250370 0 0
0.0019311850 0.0094912520 0 0
0.0032347140 0.0065417570 0 0
0.0045726640 0.0028686820 0 0
0.0057931160 -0.0011651910 0 0
0.0067613720 -0.0051633570 0 0
0.0073703390 -0.0087353710 0 0
0.0075479880 -0.0115350920 0 0
0.0072626890 -0.0132936930 0 0
0.0065256760 -0.0138442540 0 0
0.0053897490 -0.0131357110 0 0
0.0039446190 -0.0112358180 0 0
0.0023094230 -0.0083236830 0 0
0.0006224360 -0.0046719910 0 0
-0.0009714440 -0.0006198820 0 0
-0.0023342420 0.0034599490 0 0
-0.0033482630 0.0071955540 0 0
-0.0039280840 0.0102488480 0 0
-0.0040302290 0.0123462790 0 0
-0.0036595620 0.0133050000 0 0
-0.0028704890 0.0130512840 0 0
-0.0017614200 0.0116290940 0 0
-0.0004634490 0.0091981780 0 0
0.0008742910 0.0060204430 0 0
0.0021011810 0.0024348190 0 0
0.0030825950 -0.0011760640 0 0
0.0037150860 -0.0044246430 0 0
0.0039351910 -0.0069601700 0 0
0.0037215400 -0.0085072920 0 0
0.0030938140 -0.0088936600 0 0
0.0021110640 -0.0080624320 0 0
0.0008684110 -0.0060725810 0 0
-0.0005102900 -0.0030932140 0 0
-0.0018845110 0.0006086420 0 0
-0.0031118750 0.0046933640 0 0
-0.0040629180 0.0087858270 0 0
-0.0046341920 0.0125133330 0 0
-0.0047589490 0.0155373590 0 0
-0.0044145610 0.0175805330 0 0
-0.0036255020 0.0184511370 0 0
-0.0024608290 0.0180636770 0 0
-0.0010265140 0.0164511570 0 0
0.0005455820 0.0137648800 0 0
0.0021103910 0.0102604330 0 0
0.0035230110 0.0062713600 0 0
0.0046517870 0.0021741790 0 0
0.0053905900 -0.0016495470 0 0
0.0056703300 -0.0048489350 0 0
0.0054688550 -0.0071357400 0 0
0.0048162110 -0.0083119760 0 0
0.0037915090 -0.0082906160 0 0
0.0025109760 -0.0071059610 0 0
0.0011118790 -0.0049117420 0 0
-0.0002615890 -0.0019669390 0 0
-0.0014686160 0.0013900170 0 0
-0.0023809830 0.0047773260 0 0
-0.0028935600 0.0078115830 0 0
-0.0029350390 0.0101480820 0 0
-0.0024764270 0.0115148460 0 0
-0.0015358430 0.0117385460 0 0
-0.0001786600 0.0107602110 0 0
0.0014881740 0.0086390980 0 0
0.0033275680 0.0055454250 0 0
0.0051871300 0.0017434960 0 0
0.0069140820 -0.0024329580 0 0
0.0083683230 -0.0066105990 0 0
0.0094340790 -0.0104097040 0 0
0.0100308990 -0.0134798540 0 0
0.0101223960 -0.0155355060 0 0
0.0097199400 -0.0163868280 0 0
0.0088807160 -0.0159608200 0 0
0.0077018170 -0.0143092560 0 0
0.0063117840 -0.0116031110 0 0
0.0048596640 -0.0081158980 0 0
0.0035009010 -0.0041981300 0 0
0.0023806140 -0.0002437050 0 0
0.0016176140 0.0033500150 0 0
0.0012930080 0.0062237760 0 0
0.0014444930 0.0080937390 0 0
0.0020650210 0.0087800370 0 0
0.0031041820 0.0082240820 0 0
0.0044719900 0.0064931440 0 0
0.0060464280 0.0037714840 0 0
0.0076857540 0.0003390450 0 0
0.0092441120 -0.0034591720 0 0
0.0105869940 -0.0072488880 0 0
0.0116034560 -0.0106638970 0 0
0.0122139570 -0.0133812000 0 0
0.0123748440 -0.0151500030 0 0
0.0120815650 -0.0158126030 0 0
0.0113712150 -0.0153167650 0 0
0.0103224190 -0.0137191910 0 0
0.0090500680 -0.0111807350 0 0
0.0076941090 -0.0079540670 0 0
0.0064034560 -0.0043620990 0 0
0.0053181900 -0.0007662980 0 0
0.0045540460 0.0024710670 0 0
0.0041913240 0.0050239780 0 0
0.0042682130 0.0066339420 0 0
0.0047789480 0.0071332170 0 0
0.0056772520 0.0064593810 0 0
0.0068835060 0.0046609920 0 0
0.0082931340 0.0018940480 0 0
0.0097848130 -0.0015907010 0 0
0.0112283810 -0.0054695810 0 0
0.0124932940 -0.0093767480 0 0
0.0134584850 -0.0129413980 0 0
0.0140232350 -0.0158260030 0 0
0.0141175220 -0.0177596310 0 0
0.0137101830 -0.0185625850 0 0
0.0128138000 -0.0181612350 0 0
0.0114856670 -0.0165936930 0 0
0.0098239790 -0.0140071260 0 0
0.0079582520 -0.0106462990 0 0
0.0060347100 -0.0068326460 0 0
0.0041997900 -0.0029345530 0 0
0.0025848420 0.0006688310 0 0
0.0012931690 0.0036264030 0 0
0.0003899180 0.0056515350 0 0
-0.0001041250 0.0065510930 0 0
-0.0002139070 0.0062436310 0 0
-0.0000068728 0.0047660960 0 0
0.0004141690 0.0022705700 0 0
0.0009219440 -0.0009881960 0 0
0.0013789640 -0.0046757710 0 0
0.0016532040 -0.0084121070 0 0
0.0016328320 -0.0118131660 0 0
0.0012385510 -0.0145328060 0 0
0.0004327440 -0.0162974140 0 0
-0.0007754770 -0.0169299060 0 0
-0.0023300120 -0.0163637050 0 0
-0.0041325240 -0.0146473490 0 0
-0.0060523910 -0.0119390340 0 0
-0.0079415600 -0.0084909310 0 0
-0.0096520670 -0.0046245110 0 0
-0.0110519980 -0.0006992160 0 0
-0.0120371980 0.0029222730 0 0
-0.0125393000 0.0059087000 0 0
-0.0125306090 0.0079927590 0 0
-0.0120247680 0.0089996680 0 0
-0.0110738990 0.0088659850 0 0
-0.0097648500 0.0076439680 0 0
-0.0082142290 0.0054953180 0 0
-0.0065594370 0.0026784840 0 0
-0.0049456020 -0.0004748920 0 0
-0.0035111920 -0.0035981730 0 0
-0.0023744160 -0.0063352600 0 0
-0.0016217400 -0.0083809900 0 0
-0.0012998420 -0.0095097940 0 0
-0.0014113510 -0.0095937330 0 0
-0.0019141800 -0.0086124560 0 0
-0.0027252590 -0.0066546770 0 0
-0.0037297820 -0.0039098480 0 0
-0.0047948590 -0.0006503810 0 0
-0.0057845340 0.0027946610 0 0
-0.0065734770 0.0060724620 0 0
-0.0070583320 0.0088413650 0 0
-0.0071670540 0.0108030710 0 0
-0.0068662290 0.0117296570 0 0
-0.0061647960 0.0114843970 0 0
-0.0051124860 0.0100360180 0 0
-0.0037934650 0.0074650070 0 0
-0.0023170860 0.0039594540 0 0
-0.0008072300 -0.0002001080 0 0
0.0006086490 -0.0046648930 0 0
0.0018099510 -0.0090487740 0 0
0.0026932150 -0.0129632820 0 0
0.0031827320 -0.0160537210 0 0
0.0032405830 -0.0180338760 0 0
0.0028740350 -0.0187163490 0 0
0.0021376690 -0.0180343440 0 0
0.0011283960 -0.0160507420 0 0
-0.0000263474 -0.0129528750 0 0
-0.0011846420 -0.0090353910 0 0
-0.0022068860 -0.0046743670 0 0
-0.0029706390 -0.0002930950 0 0
-0.0033823160 0.0036798740 0 0
-0.0033849480 0.0068559120 0 0
-0.0029611580 0.0089276690 0 0
-0.0021314840 0.0097004700 0 0
-0.0009501870 0.0091107440 0 0
0.0004990650 0.0072313300 0 0
0.0021075140 0.0042640430 0 0
0.0037474430 0.0005190350 0 0
0.0052814600 -0.0036183720 0 0
0.0065749770 -0.0077290840 0 0
0.0075103540 -0.0114030460 0 0
0.0079995510 -0.0142780880 0 0
0.0079928240 -0.0160731280 0 0
0.0074836330 -0.0166148880 0 0
0.0065109820 -0.0158546960 0 0
0.0051586340 -0.0138715760 0 0
0.0035490600 -0.0108614590 0 0
0.0018313020 -0.0071153290 0 0
0.0001646390 -0.0029896070 0 0
-0.0012989170 0.0011281880 0 0
-0.0024307640 0.0048559160 0 0
-0.0031386610 0.0078522580 0 0
-0.0033750250 0.0098475140 0 0
-0.0031397210 0.0106675090 0 0
-0.0024777370 0.0102491980 0 0
-0.0014730600 0.0086468510 0 0
-0.0002398870 0.0060287560 0 0
0.0010885750 0.0026641230 0 0
0.0023732680 -0.0011008840 0 0
0.0034827490 -0.0048770400 0 0
0.0043050520 -0.0082718250 0 0
0.0047570670 -0.0109301690 0 0
0.0047911650 -0.0125719940 0 0
0.0043988930 -0.0130227370 0 0
0.0036119920 -0.0122328960 0 0
0.0025011830 -0.0102828430 0 0
0.0011720410 -0.0073716530 0 0
-0.0002436930 -0.0037929210 0 0
-0.0016012970 0.0000977750 0 0
-0.0027583800 0.0039193460 0 0
-0.0035900900 0.0073012380 0 0
-0.0040027820 0.0099162200 0 0
-0.0039442780 0.0115093980 0 0
-0.0034090080 0.0119227260 0 0
-0.0024382970 0.0111125320 0 0
-0.0011172960 0.0091567840 0 0
0.0004313190 0.0062489870 0 0
0.0020581720 0.0026784270 0 0
0.0036030610 -0.0011999350 0 0
0.0049141580 -0.0050021390 0 0
0.0058667490 -0.0083540610 0 0
0.0063776430 -0.0109269090 0 0
0.0064129490 -0.0124668890 0 0
0.0059889190 -0.0128183240 0 0
0.0051677200 -0.0119372170 0 0
0.0040504930 -0.0098943910 0 0
0.0027679530 -0.0068717770 0 0
0.0014675350 -0.0031520310 0 0
0.0002975960 0.0009040350 0 0
-0.0006092620 0.0048941870 0 0
-0.0011511400 0.0084194690 0 0
-0.0012674810 0.0111276650 0 0
-0.0009438790 0.0127484800 0 0
-0.0002111450 0.0131171460 0 0
0.0008601110 0.0121867270 0 0
0.0021675070 0.0100310390 0 0
0.0035860370 0.0068387170 0 0
0.0049785290 0.0028969700 0 0
0.0062083220 -0.0014358450 0 0
0.0071531650 -0.0057664110 0 0
0.0077173630 -0.0097061060 0 0
0.0078403240 -0.0129088560 0 0
0.0075018740 -0.0151037850 0 0
0.0067245620 -0.0161201980 0 0
0.0055719360 -0.0159025220 0 0
0.0041423760 -0.0145135290 0 0
0.0025596040 -0.0121252960 0 0
0.0009614650 -0.0089991430 0 0
-0.0005126250 -0.0054581870 0 0
-0.0017358090 -0.0018570860 0 0
-0.0026076720 0.0014483650 0 0
-0.0030646380 0.0041316750 0 0
-0.0030856580 0.0059256380 0 0
-0.0026932480 0.0066484140 0 0
-0.0019493800 0.0062216280 0 0
-0.0009469810 0.0046792280 0 0
0.0002004150 0.0021674030 0 0
0.0013690860 -0.0010658620 0 0
0.0024354410 -0.0046936930 0 0
0.0032866680 -0.0083444650 0 0
0.0038320270 -0.0116417050 0 0
0.0040139370 -0.0142431030 0 0
0.0038160410 -0.0158743160 0 0
0.0032646890 -0.0163566240 0 0
0.0024229730 -0.0156271150 0 0
0.0013805710 -0.0137471680 0 0
0.0002436130 -0.0108960240 0 0
-0.0008738700 -0.0073509860 0 0
-0.0018576730 -0.0034582430 0 0
-0.0026010570 0.0004024450 0 0
-0.0030122850 0.0038560170 0 0
-0.0030223570 0.0065692330 0 0
-0.0025939280 0.0082825870 0 0
-0.0017306140 0.0088339630 0 0
-0.0004823210 0.0081725460 0 0
0.0010575190 0.0063625580 0 0
0.0027622200 0.0035765680 0 0
0.0044861810 0.0000788827 0 0
0.0060810360 -0.0037990000 0 0
0.0074122210 -0.0076885420 0 0
0.0083736710 -0.0112183770 0 0
0.0088980740 -0.0140504870 0 0
0.0089615130 -0.0159141450 0 0
0.0085833490 -0.0166326760 0 0
0.0078231170 -0.0161400800 0 0
0.0067747480 -0.0144868520 0 0
0.0055570720 -0.0118343350 0 0
0.0043008940 -0.0084376020 0 0
0.0031353160 -0.0046196570 0 0
0.0021762750 -0.0007409380 0 0
0.0015180610 0.0028337330 0 0
0.0012261970 0.0057691220 0 0
0.0013310500 0.0077913360 0 0
0.0018240830 0.0087136560 0 0
0.0026583400 0.0084541730 0 0
0.0037528730 0.0070445150 0 0
0.0050010460 0.0046292680 0 0
0.0062827920 0.0014552070 0 0
0.0074784950 -0.0021508860 0 0
0.0084806780 -0.0058151800 0 0
0.0092021350 -0.0091562140 0 0
0.0095822550 -0.0118245350 0 0
0.0095925600 -0.0135376260 0 0
0.0092400890 -0.0141073440 0 0
0.0085672790 -0.0134582110 0 0
0.0076483090 -0.0116349020 0 0
0.0065825560 -0.0087981080 0 0
0.0054863120 -0.0052097880 0 0
0.0044839540 -0.0012094140 0 0
0.0036983180 0.0028181710 0 0
0.0032391060 0.0064819150 0 0
0.0031897100 0.0094261420 0 0
0.0035949310 0.0113679130 0 0
0.0044526250 0.0121253610 0 0
0.0057112190 0.0116346810 0 0
0.0072733110 0.0099541770 0 0
0.0090042380 0.0072558340 0 0
0.0107442420 0.0038073410 0 0
0.0123237880 -0.0000534054 0 0
0.0135816600 -0.0039507820 0 0
0.0143835240 -0.0075084360 0 0
0.0146370430 -0.0103859930 0 0
0.0143011910 -0.0123116380 0 0
0.0133896200 -0.0131081700 0 0
0.0119687810 -0.0127098290 0 0
0.0101519660 -0.0111675400 0 0
0.0080899710 -0.0086420260 0 0
0.0059575580 -0.0053867880 0 0
0.0039351240 -0.0017243560 0 0
0.0021879400 0.0019824310 0 0
0.0008474430 0.0053640050 0 0
-0.0000015762 0.0080804190 0 0
-0.0003265290 0.0098558100 0 0
-0.0001464140 0.0105070190 0 0
0.0004726960 0.0099638180 0 0
0.0014244470 0.0082774350 0 0
0.0025712020 0.0056151380 0 0
0.0037562980 0.0022421460 0 0
0.0048195770 -0.0015060280 0 0
0.0056146420 -0.0052576200 0 0
0.0060258000 -0.0086417430 0 0
0.0059820680 -0.0113253900 0 0
0.0054644960 -0.0130466060 0 0
0.0045047090 -0.0136402160 0 0
0.0031769020 -0.0130538940 0 0
0.0015877720 -0.0113524230 0 0
-0.0001336160 -0.0087087430 0 0
-0.0018474420 -0.0053843460 0 0
-0.0034165740 -0.0017039160 0 0
-0.0047189950 0.0019727450 0 0
-0.0056566640 0.0052812330 0 0
-0.0061614690 0.0078853730 0 0
-0.0062002170 0.0095101840 0 0
-0.0057784970 0.0099711870 0 0
-0.0049412950 0.0091960160 0 0
-0.0037691690 0.0072347700 0 0
-0.0023710150 0.0042576550 0 0
-0.0008747450 0.0005399150 0 0
0.0005837450 -0.0035663600 0 0
0.0018728310 -0.0076710920 0 0
0.0028774530 -0.0113875150 0 0
0.0035097600 -0.0143682090 0 0
0.0037167130 -0.0163359010 0 0
0.0034846540 -0.0171116040 0 0
0.0028418510 -0.0166363430 0 0
0.0018586700 -0.0149795620 0 0
0.0006432480 -0.0123321740 0 0
-0.0006686310 -0.0089859800 0 0
-0.0019285110 -0.0053014250 0 0
-0.0029927120 -0.0016678310 0 0
-0.0037393930 0.0015377960 0 0
-0.0040821870 0.0039886190 0 0
-0.0039779670 0.0054398710 0 0
-0.0034285420 0.0057511570 0 0
-0.0024778380 0.0048942550 0 0
-0.0012059130 0.0029475560 0 0
0.0002792460 0.0000850909 0 0
0.0018511240 -0.0034361720 0 0
0.0033747250 -0.0072948770 0 0
0.0047175860 -0.0111334140 0 0
0.0057619590 -0.0145935380 0 0
0.0064172240 -0.0173532590 0 0
0.0066307040 -0.0191588400 0 0
0.0063949950 -0.0198486510 0 0
0.0057497650 -0.0193677320 0 0
0.0047763940 -0.0177724090 0 0
0.0035867840 -0.0152245490 0 0
0.0023106360 -0.0119763050 0 0
0.0010839870 -0.0083470770 0 0
0.0000381702 -0.0046937210 0 0
-0.0007121770 -0.0013751690 0 0
-0.0010812890 0.0012846460 0 0
-0.0010223240 0.0030293640 0 0
-0.0005331500 0.0036939410 0 0
0.0003429020 0.0032190740 0 0
0.0015207780 0.0016566200 0 0
0.0028812940 -0.0008350440 0 0
0.0042820290 -0.0040063300 0 0
0.0055706290 -0.0075406910 0 0
0.0065999740 -0.0110849840 0 0
0.0072447090 -0.0142832970 0 0
0.0074170260 -0.0168111120 0 0
0.0070782860 -0.0184061900 0 0
0.0062436620 -0.0188936450 0 0
0.0049787430 -0.0182038990 0 0
0.0033896770 -0.0163821130 0 0
0.0016110050 -0.0135870540 0 0
-0.0002059600 -0.0100775230 0 0
-0.0019051180 -0.0061861600 0 0
-0.0033393690 -0.0022841790 0 0
-0.0043849280 0.0012570710 0 0
-0.0049535500 0.0041031090 0 0
-0.0050011960 0.0059891570 0 0
-0.0045327180 0.0067461640 0 0
-0.0036019470 0.0063173880 0 0
-0.0023064990 0.0047638710 0 0
-0.0007774250 0.0022584230 0 0
0.0008350360 -0.0009314570 0 0
0.0023776150 -0.0044708290 0 0
0.0037098970 -0.0079924750 0 0
0.0047182990 -0.0111354420 0 0
0.0053270220 -0.0135820450 0 0
0.0055047000 -0.0150901710 0 0
0.0052652470 -0.0155175740 0 0
0.0046626550 -0.0148333870 0 0
0.0037822040 -0.0131150540 0 0
0.0027313710 -0.0105349160 0 0
0.0016310310 -0.0073421690 0 0
0.0006057430 -0.0038411650 0 0
-0.0002268770 -0.0003643730 0 0
-0.0007668270 0.0027580950 0 0
-0.0009416370 0.0052293430 0 0
-0.0007139430 0.0068151640 0 0
-0.0000854189 0.0073674160 0 0
0.0009027610 0.0068365590 0 0
0.0021726370 0.0052747050 0 0
0.0036155210 0.0028318350 0 0
0.0051015170 -0.0002560230 0 0
0.0064921640 -0.0036875560 0 0
0.0076545000 -0.0071236210 0 0
0.0084740100 -0.0102197190 0 0
0.0088653720 -0.0126622250 0 0
0.0087814650 -0.0142032640 0 0
0.0082203020 -0.0146879800 0 0
0.0072278080 -0.0140709350 0 0
0.0058942010 -0.0124196740 0 0
0.0043436380 -0.0099052880 0 0
0.0027195890 -0.0067835080 0 0
0.0011699930 -0.0033705480 0 0
-0.0001651960 -0.0000152855 0 0
-0.0011645920 0.0029321360 0 0
-0.0017357020 0.0051541860 0 0
-0.0018250310 0.0063992720 0 0
-0.0014258830 0.0065102090 0 0
-0.0005813710 0.0054431890 0 0
0.0006188760 0.0032738690 0 0
0.0020478550 0.0001899870 0 0
0.0035538590 -0.0035280390 0 0
0.0049745930 -0.0075361900 0 0
0.0061521820 -0.0114620110 0 0
0.0069491440 -0.0149419290 0 0
0.0072648270 -0.0176572880 0 0
0.0070500000 -0.0193653520 0 0
0.0063154450 -0.0199219010 0 0
0.0051312200 -0.0192935230 0 0
0.0036166830 -0.0175588910 0 0
0.0019243020 -0.0148999200 0 0
0.0002211310 -0.0115842220 0 0
-0.0013289470 -0.0079392630 0 0
-0.0025805540 -0.0043199860 0 0
-0.0034189460 -0.0010744820 0 0
-0.0037686880 0.0014881680 0 0
-0.0035989890 0.0031257250 0 0
-0.0029257300 0.0036843140 0 0
-0.0018101030 0.0031119860 0 0
-0.0003537430 0.0014639780 0 0
0.0013101570 -0.0011005620 0 0
0.0030298130 -0.0043312090 0 0
0.0046501550 -0.0079084910 0 0
0.0060277280 -0.0114740960 0 0
0.0070433180 -0.0146656740 0 0
0.0076121980 -0.0171522960 0 0
0.0076924370 -0.0186680500 0 0
0.0072906140 -0.0190418990 0 0
0.0064635030 -0.0182196060 0 0
0.0053145710 -0.0162717550 0 0
0.0039840900 -0.0133850340 0 0
0.0026326060 -0.0098394800 0 0
0.0014203410 -0.0059768030 0 0
0.0004872420 -0.0021645370 0 0
-0.0000619717 0.0012390200 0 0
-0.0001658950 0.0039148400 0 0
0.0001911060 0.0056082950 0 0
0.0009794900 0.0061521050 0 0
0.0021269420 0.0054858100 0 0
0.0035235090 0.0036659360 0 0
0.0050309890 0.0008633060 0 0
0.0064966010 -0.0026513040 0 0
0.0077686980 -0.0065312200 0 0
0.0087119540 -0.0103867180 0 0
0.0092207820 -0.0138243240 0 0
0.0092302610 -0.0164871200 0 0
0.0087228650 -0.0180906880 0 0
0.0077294780 -0.0184521280 0 0
0.0063252630 -0.0175096670 0 0
0.0046216650 -0.0153292650 0 0
0.0027550840 -0.0120967710 0 0
0.0008732870 -0.0080977100 0 0
-0.0008786390 -0.0036883250 0 0
-0.0023714140 0.0007382970 0 0
-0.0035025410 0.0047883380 0 0
-0.0042041250 0.0081037740 0 0
-0.0044477690 0.0103962420 0 0
-0.0042469120 0.0114741150 0 0
-0.0036555070 0.0112601170 0 0
-0.0027622940 0.0097986930 0 0
-0.0016822410 0.0072525720 0 0
-0.0005467980 0.0038879030 0 0
0.0005072920 0.0000487376 0 0
0.0013512300 -0.0038766180 0 0
0.0018784980 -0.0074937610 0 0
0.0020182630 -0.0104412700 0 0
0.0017451210 -0.0124274490 0 0
0.0010821150 -0.0132612560 0 0
0.0000960741 -0.0128726950 0 0
-0.0011121630 -0.0113185080 0 0
-0.0024194510 -0.0087733140 0 0
-0.0036928510 -0.0055098440 0 0
-0.0048021620 -0.0018712320 0 0
-0.0056310560 0.0017630640 0 0
-0.0060866420 0.0050152880 0 0
-0.0061081490 0.0075472000 0 0
-0.0056737970 0.0090935410 0 0
-0.0048035960 0.0094880520 0 0
-0.0035571950 0.0086793280 0 0
-0.0020284120 0.0067352470 0 0
-0.0003391510 0.0038369000 0 0
0.0013667350 0.0002625520 0 0
0.0029323150 -0.0036389860 0 0
0.0042019610 -0.0074838320 0 0
0.0050401560 -0.0108927460 0 0
0.0053501370 -0.0135309070 0 0
0.0050876710 -0.0151439640 0 0
0.0042679540 -0.0155840910 0 0
0.0029655390 -0.0148212560 0 0
0.0013068060 -0.0129421740 0 0
-0.0005449470 -0.0101412170 0 0
-0.0024089140 -0.0067026160 0 0
-0.0041067670 -0.0029728870 0 0
-0.0054805110 0.0006736150 0 0
-0.0064068660 0.0038720530 0 0
-0.0068072960 0.0063042980 0 0
-0.0066534930 0.0077315480 0 0
-0.0059692320 0.0080162030 0 0
-0.0048289630 0.0071307010 0 0
-0.0033514580 0.0051576930 0 0
-0.0016871230 0.0022845730 0 0
-0.0000010085 -0.0012110760 0 0
0.0015439340 -0.0049883440 0 0
0.0028007780 -0.0086785510 0 0
0.0036504490 -0.0119222480 0 0
0.0040121760 -0.0144027380 0 0
0.0038510620 -0.0158758060 0 0
0.0031803550 -0.0161961870 0 0
0.0020577420 -0.0153358760 0 0
0.0005774890 -0.0133873230 0 0
-0.0011388170 -0.0105517470 0 0
-0.0029513220 -0.0071177900 0 0
-0.0047111750 -0.0034331960 0 0
-0.0062718680 0.0001295010 0 0
-0.0075036000 0.0032108630 0 0
-0.0083087000 0.0055024390 0 0
-0.0086342210 0.0067796620 0 0
-0.0084782330 0.0069238320 0 0
-0.0078883870 0.0059303720 0 0
-0.0069540390 0.0039051810 0 0
-0.0057951850 0.0010522490 0 0
-0.0045500950 -0.0023461020 0 0
-0.0033607970 -0.0059565160 0 0
-0.0023566650 -0.0094275570 0 0
-0.0016396860 -0.0124230940 0 0
-0.0012746690 -0.0146510800 0 0
-0.0012850440 -0.0158862110 0 0
-0.0016534030 -0.0159871700 0 0
-0.0023254550 -0.0149090480 0 0
-0.0032159580 -0.0127104130 0 0
-0.0042157710 -0.0095530560 0 0
-0.0052005350 -0.0056921510 0 0
-0.0060418160 -0.0014558240 0 0
-0.0066200200 0.0027853140 0 0
-0.0068368280 0.0066555920 0 0
-0.0066251620 0.0098129030 0 0
-0.0059558050 0.0119832480 0 0
-0.0048405890 0.0129887270 0 0
-0.0033321730 0.0127674640 0 0
-0.0015204810 0.0113823010 0 0
0.0004735780 0.0090148480 0 0
0.0025068470 0.0059446230 0 0
0.0044258280 0.0025173510 0 0
0.0060815180 -0.0008916850 0 0
0.0073451260 -0.0039147470 0 0
0.0081226870 -0.0062267030 0 0
0.0083666290 -0.0075757470 0 0
0.0080816570 -0.0078072150 0 0
0.0073231380 -0.0068782180 0 0
0.0061886460 -0.0048612900 0 0
0.0048049940 -0.0019362750 0 0
0.0033136680 0.0016281200 0 0
0.0018575220 0.0055003950 0 0
0.0005697240 0.0093174060 0 0
-0.0004367300 0.0127182000 0 0
-0.0010796680 0.0153781060 0 0
-0.0013160140 0.0170403940 0 0
-0.0011452420 0.0175426580 0 0
-0.0006082900 0.0168344020 0 0
0.0002171390 0.0149827230 0 0
0.0012245520 0.0121658980 0 0
0.0022889670 0.0086567990 0 0
0.0032784680 0.0047972050 0 0
0.0040667840 0.0009638160 0 0
0.0045459740 -0.0024713000 0 0
0.0046370090 -0.0051803870 0 0
0.0042971430 -0.0069127420 0 0
0.0035247490 -0.0075164560 0 0
0.0023615350 -0.0069506530 0 0
0.0008908040 -0.0052900670 0 0
-0.0007688640 -0.0027192810 0 0
-0.0024742250 0.0004855050 0 0
-0.0040721810 0.0039850840 0 0
-0.0054179200 0.0074130590 0 0
-0.0063933130 0.0104145260 0 0
-0.0069214240 0.0126822780 0 0
-0.0069746030 0.0139875760 0 0
-0.0065762380 0.0142020510 0 0
-0.0057971710 0.0133067940 0 0
-0.0047472540 0.0113901460 0 0
-0.0035629840 0.0086381800 0 0
-0.0023929200 0.0053178290 0 0
-0.0013825460 0.0017519610 0 0
-0.0006604820 -0.0017117490 0 0
-0.0003278580 -0.0047353410 0 0
-0.0004510350 -0.0070238830 0 0
-0.0010565600 -0.0083523200 0 0
-0.0021281710 -0.0085842480 0 0
-0.0036071420 -0.0076836920 0 0
-0.0053975290 -0.0057196930 0 0
-0.0073764780 -0.0028618380 0 0
-0.0094073710 0.0006342240 0 0
-0.0113525950 0.0044498990 0 0
-0.0130846110 0.0082323300 0 0
-0.0144956180 0.0116258870 0 0
-0.0155055050 0.0143048050 0 0
-0.0160677390 0.0160047180 0 0
-0.0161735740 0.0165494090 0 0
-0.0158542400 0.0158697270 0 0
-0.0151798730 0.0140126440 0 0
-0.0142545270 0.0111388980 0 0
-0.0132070460 0.0075088350 0 0
-0.0121776030 0.0034575050 0 0
-0.0113015340 -0.0006385810 0 0
-0.0106945110 -0.0043992440 0 0
-0.0104425800 -0.0074782520 0 0
-0.0105968180 -0.0095963820 0 0
-0.0111697640 -0.0105672780 0 0
-0.0121322190 -0.0103149670 0 0
-0.0134123970 -0.0088822020 0 0
-0.0149003970 -0.0064286180 0 0
-0.0164585010 -0.0032172010 0 0
-0.0179354110 0.0004121240 0 0
-0.0191823890 0.0040794250 0 0
-0.0200693570 0.0074052410 0 0
-0.0204983060 0.0100480570 0 0
-0.0204120190 0.0117366660 0 0
-0.0197979510 0.0122968090 0 0
-0.0186881350 0.0116687610 0 0
-0.0171559900 0.0099120550 0 0
-0.0153107850 0.0071972610 0 0
-0.0132897670 0.0037870690 0 0
-0.0112472530 0.0000089591 0 0
-0.0093406440 -0.0037772890 0 0
-0.0077140520 -0.0072134740 0 0
-0.0064807960 -0.0099753520 0 0
-0.0057074670 -0.0118015720 0 0
-0.0054035510 -0.0125181880 0 0
-0.0055200570 -0.0120575130 0 0
-0.0059579080 -0.0104684160 0 0
-0.0065834350 -0.0079145860 0 0
-0.0072466150 -0.0046591390 0 0
-0.0077988010 -0.0010373670 0 0
-0.0081085750 0.0025780670 0 0
-0.0080748870 0.0058150300 0 0
-0.0076361560 0.0083393790 0 0
-0.0067742300 0.0098884940 0 0
-0.0055135460 0.0102975620 0 0
-0.0039169190 0.0095160700 0 0
-0.0020792400 0.0076129780 0 0
-0.0001195120 0.0047697090 0 0
0.0018290250 0.0012610750 0 0
0.0036308260 -0.0025738450 0 0
0.0051609230 -0.0063665340 0 0
0.0063167980 -0.0097546160 0 0
0.0070275910 -0.0124147890 0 0
0.0072599290 -0.0140911450 0 0
0.0070206030 -0.0146172960 0 0
0.0063566110 -0.0139316370 0 0
0.0053524080 -0.0120852540 0 0
0.0041234230 -0.0092403780 0 0
0.0028057450 -0.0056576400 0 0
0.0015431700 -0.0016733570 0 0
0.0004728950 0.0023308360 0 0
-0.0002886280 0.0059642810 0 0
-0.0006573390 0.0088673470 0 0
-0.0005890180 0.0107511950 0 0
-0.0000825358 0.0114312660 0 0
0.0008207650 0.0108483490 0 0
0.0020415290 0.0090738490 0 0
0.0034697160 0.0063001220 0 0
0.0049732770 0.0028191830 0 0
0.0064082600 -0.0010075440 0 0
0.0076313930 -0.0047865230 0 0
0.0085146700 -0.0081327160 0 0
0.0089596210 -0.0107081650 0 0
0.0089091730 -0.0122541130 0 0
0.0083556360 -0.0126142390 0 0
0.0073428910 -0.0117484890 0 0
0.0059609900 -0.0097376040 0 0
0.0043338280 -0.0067770710 0 0
0.0026032860 -0.0031588610 0 0
0.0009134720 0.0007585640 0 0
-0.0006034070 0.0045889440 0 0
-0.0018395940 0.0079595960 0 0
-0.0027221690 0.0105480510 0 0
-0.0032199380 0.0121094870 0 0
-0.0033462200 0.0124952800 0 0
-0.0031574100 0.0116652750 0 0
-0.0027466960 0.0096944690 0 0
-0.0022327740 0.0067706780 0 0
-0.0017454490 0.0031784140 0 0
-0.0014110500 -0.0007312610 0 0
-0.0013392160 -0.0045792170 0 0
-0.0016116460 -0.0079974350 0 0
-0.0022737790 -0.0106628850 0 0
-0.0033298740 -0.0123245240 0 0
-0.0047416840 -0.0128266980 0 0
-0.0064318890 -0.0121290130 0 0
-0.0082928540 -0.0103147430 0 0
-0.0101988410 -0.0075813820 0 0
-0.0120189080 -0.0042155610 0 0
-0.0136290180 -0.0005577870 0 0
-0.0149225580 0.0030379860 0 0
-0.0158187990 0.0062425690 0 0
-0.0162697670 0.0087788070 0 0
-0.0162653740 0.0104355790 0 0
-0.0158349420 0.0110749050 0 0
-0.0150437720 0.0106391960 0 0
-0.0139856630 0.0091607620 0 0
-0.0127737880 0.0067692220 0 0
-0.0115320660 0.0036881750 0 0
-0.0103868490 0.0002165240 0 0
-0.0094567260 -0.0033026910 0 0
-0.0088402900 -0.0065202000 0 0
-0.0086052500 -0.0091183760 0 0
-0.0087824220 -0.0108433620 0 0
-0.0093653350 -0.0115294370 0 0
-0.0103140480 -0.0111146320 0 0
-0.0115608320 -0.0096460920 0 0
-0.0130152770 -0.0072749610 0 0
-0.0145681270 -0.0042416960 0 0
-0.0160963590 -0.0008524020 0 0
-0.0174728020 0.0025523120 0 0
-0.0185799960 0.0056319160 0 0
-0.0193241980 0.0080793860 0 0
-0.0196459160 0.0096507200 0 0
-0.0195263170 0.0101882210 0 0
-0.0189902010 0.0096345460 0 0
-0.0181054570 0.0080366220 0 0
-0.0169778080 0.0055412640 0 0
-0.0157400220 0.0023832430 0 0
-0.0145369620 -0.0011352960 0 0
-0.0135094370 -0.0046730100 0 0
-0.0127788900 -0.0078810620 0 0
-0.0124335620 -0.0104357170 0 0
-0.0125173640 -0.0120714760 0 0
-0.0130236170 -0.0126128350 0 0
-0.0138954090 -0.0119986440 0 0
-0.0150325500 -0.0102917920 0 0
-0.0163037470 -0.0076714250 0 0
-0.0175620540 -0.0044111520 0 0
-0.0186614130 -0.0008492110 0 0
-0.0194718060 0.0026450180 0 0
-0.0198913860 0.0057059740 0 0
-0.0198552980 0.0080071100 0 0
-0.0193414570 0.0092941460 0 0
-0.0183732700 0.0094121750 0 0
-0.0170183130 0.0083219570 0 0
-0.0153821520 0.0061032500 0 0
-0.0135979060 0.0029463920 0 0
-0.0118127510 -0.0008655760 0 0
-0.0101725860 -0.0049833300 0 0
-0.0088066930 -0.0090254030 0 0
-0.0078142290 -0.0126164060 0 0
-0.0072536520 -0.0154240230 0 0
-0.0071361690 -0.0171909140 0 0
-0.0074247070 -0.0177597450 0 0
-0.0080390400 -0.0170896290 0 0
-0.0088660310 -0.0152610290 0 0
-0.0097731600 -0.0124677550 0 0
-0.0106235530 -0.0089975810 0 0
-0.0112902570 -0.0052037080 0 0
-0.0116675720 -0.0014697210 0 0
-0.0116788630 0.0018276720 0 0
-0.0112817550 0.0043539100 0 0
-0.0104712550 0.0058478160 0 0
-0.0092805470 0.0061476730 0 0
-0.0077788690 0.0052091410 0 0
-0.0060657710 0.0031112420 0 0
-0.0042617070 0.0000488740 0 0
-0.0024970010 -0.0036872320 0 0
-0.0009013510 -0.0077409400 0 0
0.0004068530 -0.0117278780 0 0
0.0013328340 -0.0152744100 0 0
0.0018172700 -0.0180536530 0 0
0.0018437230 -0.0198151230 0 0
0.0014398910 -0.0204052440 0 0
0.0006735290 -0.0197770640 0 0
-0.0003552070 -0.0179912690 0 0
-0.0015233700 -0.0152118620 0 0
-0.0026956690 -0.0116952500 0 0
-0.0037352710 -0.0077695910 0 0
-0.0045150690 -0.0038051460 0 0
-0.0049293550 -0.0001785730 0 0
-0.0049049240 0.0027647360 0 0
-0.0044099020 0.0047452570 0 0
-0.0034585490 0.0055780340 0 0
-0.0021109900 0.0051925020 0 0
-0.0004678580 0.0036400590 0 0
0.0013397410 0.0010904050 0 0
0.0031637320 -0.0021817520 0 0
0.0048532630 -0.0058232320 0 0
0.0062665520 -0.0094431470 0 0
0.0072798520 -0.0126588120 0 0
0.0077954890 -0.0151358070 0 0
0.0077508610 -0.0166185570 0 0
0.0071277410 -0.0169525730 0 0
0.0059586360 -0.0160981550 0 0
0.0043269930 -0.0141336040 0 0
0.0023606770 -0.0112473090 0 0
0.0002202260 -0.0077195900 0 0
-0.0019169410 -0.0038949100 0 0
-0.0038753770 -0.0001464940 0 0
-0.0055011280 0.0031612900 0 0
-0.0066783070 0.0057067410 0 0
-0.0073399580 0.0072384480 0 0
-0.0074726480 0.0075975890 0 0
-0.0071161310 0.0067347600 0 0
-0.0063594280 0.0047182380 0 0
-0.0053328690 0.0017306810 0 0
-0.0041950450 -0.0019461670 0 0
-0.0031154550 -0.0059578100 0 0
-0.0022552430 -0.0099128710 0 0
-0.0017487180 -0.0134248870 0 0
-0.0016885040 -0.0161540960 0 0
-0.0021167030 -0.0178428500 0 0
-0.0030227000 -0.0183401990 0 0
-0.0043466960 -0.0176139660 0 0
-0.0059875910 -0.0157504530 0 0
-0.0078138740 -0.0129432840 0 0
-0.0096766250 -0.0094739910 0 0
-0.0114239140 -0.0056856120 0 0
-0.0129156690 -0.0019499120 0 0
-0.0140379350 0.0013682370 0 0
-0.0147150490 0.0039442650 0 0
-0.0149171580 0.0055227740 0 0
-0.0146605800 0.0059413360 0 0
-0.0140021070 0.0051473110 0 0
-0.0130318640 0.0032047380 0 0
-0.0118671230 0.0002897040 0 0
-0.0106445850 -0.0033255050 0 0
-0.0095083770 -0.0072984720 0 0
-0.0085951720 -0.0112509580 0 0
-0.0080205950 -0.0148073430 0 0
-0.0078699080 -0.0176319490 0 0
-0.0081923760 -0.0194612520 0 0
-0.0089967720 -0.0201291360 0 0
-0.0102475720 -0.0195834690 0 0
-0.0118646250 -0.0178909570 0 0
-0.0137287500 -0.0152285230 0 0
-0.0156926630 -0.0118634320 0 0
-0.0175951470 -0.0081264010 0 0
-0.0192772550 -0.0043810030 0 0
-0.0205994480 -0.0009913990 0 0
-0.0214573210 0.0017100100 0 0
-0.0217931300 0.0034532940 0 0
-0.0216017870 0.0040582320 0 0
-0.0209314420 0.0034551850 0 0
-0.0198786700 0.0016955810 0 0
-0.0185776020 -0.0010503280 0 0
-0.0171833980 -0.0045086890 0 0
-0.0158531500 -0.0083299940 0 0
-0.0147279950 -0.0121272510 0 0
-0.0139184780 -0.0155178500 0 0
-0.0134943120 -0.0181612820 0 0
-0.0134794340 -0.0197892230 0 0
-0.0138520840 -0.0202300860 0 0
-0.0145491100 -0.0194288010 0 0
-0.0154740670 -0.0174566870 0 0
-0.0165084250 -0.0145061760 0 0
-0.0175243780 -0.0108702930 0 0
-0.0183976870 -0.0069092390 0 0
-0.0190195420 -0.0030069120 0 0
-0.0193070310 0.0004753670 0 0
-0.0192116430 0.0032365700 0 0
-0.0187244170 0.0050585350 0 0
-0.0178760240 0.0058170140 0 0
-0.0167317030 0.0054884660 0 0
-0.0153830750 0.0041545720 0 0
-0.0139396530 0.0020007690 0 0
-0.0125214170 -0.0006955540 0 0
-0.0112510670 -0.0035898820 0 0
-0.0102435800 -0.0063084950 0 0
-0.0095930320 -0.0084941780 0 0
-0.0093593920 -0.0098502440 0 0
-0.0095587260 -0.0101747610 0 0
-0.0101591060 -0.0093796580 0 0
-0.0110828490 -0.0074902690 0 0
-0.0122142790 -0.0046249550 0 0
-0.0134111870 -0.0009645120 0 0
-0.0145179920 0.0032726030 0 0
-0.0153798590 0.0078410790 0 0
-0.0158571020 0.0124717400 0 0
-0.0158373630 0.0168788840 0 0
-0.0152427940 0.0207812000 0 0
-0.0140329700 0.0239372840 0 0
-0.0122078840 0.0261850480 0 0
-0.0098145910 0.0274701760 0 0
-0.0069561420 0.0278577650 0 0
-0.0037965020 0.0275317800 0 0
-0.0005538810 0.0267882310 0 0
0.0025214450 0.0260187310 0 0
0.0051811810 0.0256750550 0 0
0.0072154990 0.0262139470 0 0
0.0084826610 0.0280314380 0 0
0.0089259900 0.0313977970 0 1
0.0085762610 0.0364084690 0 1
0.0075412970 0.0429679660 0 1
0.0059870680 0.0508108400 0 1
0.0041150050 0.0595485510 0 1
0.0021392210 0.0687279010 0 1
0.0002658720 0.0778907700 0 1
-0.0013249070 0.0866286240 0 1
-0.0024948650 0.0946280730 0 1
-0.0031602880 0.1017027080 0 1
-0.0032988180 0.1078037590 0 1
-0.0029483590 0.1130082350 0 1
-0.0021988580 0.1174948360 0 1
-0.0011799420 0.1215201530 0 1
-0.0000467037 0.1253994180 0 1
0.0010355520 0.1294879190 0 1
0.0019063020 0.1341577010 0 1
0.0024224400 0.1397680800 0 1
0.0024678320 0.1466325960 0 1
0.0019607990 0.1549881960 0 1
0.0008603930 0.1649728580 0 1
-0.0008286700 0.1766129280 0 1
-0.0030537150 0.1898175400 0 1
-0.0057172240 0.2043799070 0 1
-0.0086872980 0.2199875800 0 1
-0.0118133410 0.2362421170 0 1
-0.0149421110 0.2526873890 0 1
-0.0179311280 0.2688457360 0 1
-0.0206599850 0.2842588420 0 1
-0.0230410890 0.2985265150 0 1
-0.0250289590 0.3113369250 0 1
-0.0266250460 0.3224866390 0 1
-0.0278755150 0.3318921120 0 1
-0.0288619420 0.3395928100 0 1
-0.0296877610 0.3457445400 0 1
-0.0304646910 0.3506027790 -1 1
-0.0313019700 0.3544982970 -1 1
-0.0322977090 0.3578081580 -1 1
-0.0335299980 0.3609230010 -1 1
-0.0350478270 0.3642106020 -1 1
-0.0368646620 0.3679788460 -1 1
-0.0389566300 0.3724442160 -1 1
-0.0412647290 0.3777110900 -1 1
-0.0436995980 0.3837637040 -1 1
-0.0461482200 0.3904695820 -1 1
-0.0484830280 0.3975929120 -1 1
-0.0505737550 0.4048179440 -1 1
-0.0523015020 0.4117824360 -1 1
-0.0535734760 0.4181177350 -1 1
-0.0543358690 0.4234889630 -1 1
-0.0545821510 0.4276295410 -1 1
-0.0543548250 0.4303672560 -1 1
-0.0537399680 0.4316417980 -1 1
-0.0528556420 0.4315145030 -1 1
-0.0518370600 0.4301686360 -1 1
-0.0508219540 0.4278960520 -1 1
-0.0499382020 0.4250679880 -1 1
-0.0492939050 0.4220932200 -1 1
-0.0489692550 0.4193716280 -1 1
-0.0490105040 0.4172514070 -1 1
-0.0494268990 0.4159943830 -1 1
-0.0501902640 0.4157511700 -1 1
-0.0512361010 0.4165480370 -1 1
-0.0524664840 0.4182869080 -1 1
-0.0537564400 0.4207581680 -1 1
-0.0549640130 0.4236643240 -1 1
-0.0559423130 0.4266513940 -1 1
-0.0565528930 0.4293444240 -1 1
-0.0566807350 0.4313834930 -1 1
-0.0562493680 0.4324567880 -1 1
-0.0552328870 0.4323279560 -1 1
-0.0536619980 0.4308561420 -1 1
-0.0516225250 0.4280087210 -1 1
-0.0492460230 0.4238671970 -1 1
-0.0466940540 0.4186249250 -1 1
-0.0441393960 0.4125733390 -1 1
-0.0417470030 0.4060747760 -1 1
-0.0396561910 0.3995237230 -1 1
-0.0379654870 0.3933027770 -1 1
-0.0367222670 0.3877423890 -1 1
-0.0359192980 0.3830910830 -1 1
-0.0354989530 0.3794972680 -1 1
-0.0353635980 0.3770002300 -1 1
-0.0353892380 0.3755284350 -1 1
-0.0354400360 0.3749060980 -1 1
-0.0353825630 0.3748692070 -1 1
-0.0350990160 0.3750898260 -1 1
-0.0344980770 0.3752068570 -1 1
-0.0335219790 0.3748603270 -1 1
-0.0321496380 0.3737245080 -1 1
-0.0303973190 0.3715372120 -1 1
-0.0283177050 0.3681252920 0 1
-0.0259964170 0.3634257130 0 1
-0.0235450570 0.3574989700 0 1
-0.0210918390 0.3505280880 0 1
-0.0187720210 0.3427979800 0 1
-0.0167188210 0.3346612420 0 1
-0.0150532960 0.3265018220 0 1
-0.0138725480 0.3186984780 0 1
-0.0132384710 0.3115855260 0 1
-0.0131698730 0.3054171550 0 1
-0.0136389880 0.3003442710 0 1
-0.0145723990 0.2964047790 0 1
-0.0158569900 0.2935237050 0 1
-0.0173514220 0.2915214760 0 1
-0.0189013730 0.2901311270 0 1
-0.0203549370 0.2890245770 0 1
-0.0215756260 0.2878452530 0 1
-0.0224526060 0.2862430790 0 1
-0.0229083700 0.2839083990 0 1
-0.0229031980 0.2806015140 0 1
-0.0224359100 0.2761750810 0 1
-0.0215419820 0.2705877780 0 1
-0.0202903900 0.2639083760 0 1
-0.0187785270 0.2563104420 0 1
-0.0171233660 0.2480582440 0 1
-0.0154491620 0.2394839900 0 1
-0.0138744700 0.2309572890 0 1
-0.0125004790 0.2228497950 0 1
-0.0114011340 0.2154986990 0 1
-0.0106162580 0.2091726780 0 1
-0.0101486710 0.2040446870 0 1
-0.0099643890 0.2001757200 0 1
-0.0099952410 0.1975104070 0 1
-0.0101451560 0.1958826480 0 1
-0.0103011060 0.1950308290 0 1
-0.0103471270 0.1946232040 0 1
-0.0101784840 0.1942909360 0 1
-0.0097135030 0.1936637630 0 1
-0.0089015400 0.1924045900 0 1
-0.0077269860 0.1902414130 0 1
-0.0062108670 0.1869954440 0 1
-0.0044111370 0.1826027830 0 1
-0.0024201860 0.1771243950 0 1
-0.0003572400 0.1707400470 0 1
0.0016438980 0.1637279880 0 1
0.0034484680 0.1564360270 0 1
0.0049331310 0.1492476030 0 1
0.0059972170 0.1425440550 0 1
0.0065732730 0.1366650950 0 1
0.0066352370 0.1318717170 0 1
0.0062015540 0.1283173950 0 1
0.0053318770 0.1260330520 0 1
0.0041182420 0.1249279820 0 1
0.0026733500 0.1248040070 0 1
0.0011191250 0.1253775740 0 1
-0.0004222880 0.1263061370 0 1
-0.0018352060 0.1272180840 0 1
-0.0030163750 0.1277459300 0 1
-0.0038816820 0.1275606780 0 1
-0.0043742500 0.1264041870 0 1
-0.0044732260 0.1241165880 0 1
-0.0042006240 0.1206551860 0 1
-0.0036229450 0.1161010330 0 1
-0.0028463030 0.1106508320 0 1
-0.0020056580 0.1045948770 0 1
-0.0012491290 0.0982853120 0 1
-0.0007197780 0.0921005090 0 1
-0.0005386690 0.0864096210 0 1
-0.0007916440 0.0815389060 0 1
-0.0015202850 0.0777406680 0 1
-0.0027175650 0.0751672220 0 1
-0.0043290120 0.0738549690 0 1
-0.0062593170 0.0737228190 0 1
-0.0083831760 0.0745839780 0 1
-0.0105588050 0.0761664590 0 1
-0.0126426540 0.0781386540 0 1
-0.0145033110 0.0801385930 0 1
-0.0160327080 0.0818058100 0 1
-0.0171540530 0.0828130580 0 1
-0.0178271040 0.0828950730 0 1
-0.0180511060 0.0818739880 0 1
-0.0178648200 0.0796806980 0 1
-0.0173430240 0.0763670370 0 1
-0.0165893760 0.0721027530 0 1
-0.0157261530 0.0671572640 0 1
-0.0148820630 0.0618712720 0 1
-0.0141798120 0.0566224790 0 1
-0.0137250890 0.0517876830 0 1
-0.0135981380 0.0477050410 0 1
-0.0138479730 0.0446418800 0 1
-0.0144886520 0.0427707230 0 1
-0.0154974630 0.0421527830 0 1
-0.0168153490 0.0427292980 0 1
-0.0183499310 0.0443246580 0 1
-0.0199812890 0.0466649390 0 1
-0.0215706320 0.0494093480 0 1
-0.0229724890 0.0521869670 0 1
-0.0240507430 0.0546331630 0 1
-0.0246961000 0.0564237750 0 1
-0.0248404190 0.0573054380 0 1
-0.0244652370 0.0571196130 0 1
-0.0236047660 0.0558174080 0 1
-0.0223437280 0.0534625750 0 1
-0.0208093930 0.0502226630 0 1
-0.0191578010 0.0463506730 0 1
-0.0175555730 0.0421598990 0 1
-0.0161597530 0.0379944340 0 1
-0.0150991140 0.0341975600 0 1
-0.0144610670 0.0310793130 0 1
-0.0142864070 0.0288846120 0 0
-0.0145700070 0.0277657900 0 0
-0.0152639720 0.0277653390 0 0
-0.0162822260 0.0288124170 0 0
-0.0175078630 0.0307317190 0 1
-0.0188038500 0.0332617810 0 1
-0.0200259660 0.0360815460 0 1
-0.0210364630 0.0388431080 0 1
-0.0217173050 0.0412056640 0 1
-0.0219818640 0.0428658580 0 1
-0.0217837700 0.0435831860 0 1
-0.0211219290 0.0432012240 0 1
-0.0200413640 0.0416636160 0 1
-0.0186297540 0.0390217230 0 1
-0.0170096160 0.0354326330 0 1
-0.0153269810 0.0311485440 0 1
-0.0137384010 0.0264974200 0 0
-0.0123968600 0.0218535850 0 0
-0.0114355550 0.0175989840 0 0
-0.0109502710 0.0140807870 0 0
-0.0109846360 0.0115752310 0 0
-0.0115232910 0.0102636550 0 0
-0.0124953960 0.0102172970 0 0
-0.0137874340 0.0113867370 0 0
-0.0152611470 0.0136001730 0 0
-0.0167712840 0.0165774320 0 0
-0.0181796810 0.0199609480 0 0
-0.0193652730 0.0233580610 0 0
-0.0202313860 0.0263841080 0 0
-0.0207115260 0.0286973400 0 0
-0.0207737640 0.0300255920 0 1
-0.0204227010 0.0301896100 0 1
-0.0196979190 0.0291224380 0 0
-0.0186686970 0.0268788120 0 0
-0.0174258880 0.0236305320 0 0
-0.0160729100 0.0196483520 0 0
-0.0147176040 0.0152742500 0 0
-0.0134648000 0.0108887190 0 0
-0.0124085040 0.0068740560 0 0
-0.0116240280 0.0035739990 0 0
-0.0111610910 0.0012562430 0 0
-0.0110384010 0.0000852020 0 0
-0.0112404960 0.0001067870 0 0
-0.0117175150 0.0012450780 0 0
-0.0123880030 0.0033108300 0 0
-0.0131453330 0.0060212330 0 0
-0.0138687750 0.0090303670 0 0
-0.0144383670 0.0119671250 0 0
-0.0147502040 0.0144738990 0 0
-0.0147290570 0.0162403900 0 0
-0.0143370850 0.0170308750 0 0
-0.0135777790 0.0167056530 0 0
-0.0124941350 0.0152360810 0 0
-0.0111618900 0.0127101040 0 0
-0.0096807170 0.0093257130 0 0
-0.0081659710 0.0053720280 0 0
-0.0067412050 0.0011998230 0 0
-0.0055292690 -0.0028143850 0 0
-0.0046401270 -0.0063056560 0 0
-0.0041568260 -0.0089558740 0 0
-0.0041235690 -0.0105247520 0 0
-0.0045388630 -0.0108740840 0 0
-0.0053545420 -0.0099824200 0 0
-0.0064802370 -0.0079483090 0 0
-0.0077926190 -0.0049815220 0 0
-0.0091490250 -0.0013821670 0 0
-0.0104044330 0.0024905760 0 0
-0.0114286970 0.0062554150 0 0
-0.0121205600 0.0095464130 0 0
-0.0124174740 0.0120472920 0 0
-0.0123020040 0.0135198510 0 0
-0.0118045090 0.0138242330 0 0
-0.0110005770 0.0129298200 0 0
-0.0100027710 0.0109166030 0 0
-0.0089480430 0.0079677820 0 0
-0.0079825160 0.0043543440 0 0
-0.0072448300 0.0004112450 0 0
-0.0068496720 -0.0034950020 0 0
-0.0068741090 -0.0070045420 0 0
-0.0073490320 -0.0098024920 0 0
-0.0082567550 -0.0116512300 0 0
-0.0095346440 -0.0124117210 0 0
-0.0110838230 -0.0120515880 0 0
-0.0127810510 -0.0106418550 0 0
-0.0144916440 -0.0083473770 0 0
-0.0160821610 -0.0054141920 0 0
-0.0174324350 -0.0021524470 0 0
-0.0184466810 0.0010882050 0 0
-0.0190623780 0.0039511630 0 0
-0.0192543710 0.0061100240 0 0
-0.0190330510 0.0073051100 0 0
-0.0184393420 0.0073742840 0 0
-0.0175403220 0.0062727980 0 0
-0.0164259260 0.0040782030 0 0
-0.0152043400 0.0009811760 0 0
-0.0139947190 -0.0027340190 0 0
-0.0129177910 -0.0067171780 0 0
-0.0120851130 -0.0105856020 0 0
-0.0115878220 -0.0139604020 0 0
-0.0114868380 -0.0165044480 0 0
-0.0118063470 -0.0179591570 0 0
-0.0125306930 -0.0181729320 0 0
-0.0136047130 -0.0171155950 0 0
-0.0149384240 -0.0148791410 0 0
-0.0164155730 -0.0116673870 0 0
-0.0179041130 -0.0077764390 0 0
-0.0192679490 -0.0035680900 0 0
-0.0203798720 0.0005625980 0 0
-0.0211342190 0.0042247410 0 0
-0.0214572080 0.0070707560 0 0
-0.0213138560 0.0088317350 0 0
-0.0207116430 0.0093442530 0 0
-0.0197013120 0.0085653370 0 0
-0.0183740830 0.0065750060 0 0
-0.0168542100 0.0035676750 0 0
-0.0152874060 -0.0001669180 0 0
-0.0138264240 -0.0042728870 0 0
-0.0126146280 -0.0083646850 0 0
-0.0117690000 -0.0120650390 0 0
-0.0113653730 -0.0150390720 0 0
-0.0114291460 -0.0170233030 0 0
-0.0119336910 -0.0178502870 0 0
-0.0128062640 -0.0174671630 0 0
-0.0139392590 -0.0159429330 0 0
-0.0152039400 -0.0134596530 0 0
-0.0164636780 -0.0102884920 0 0
-0.0175855230 -0.0067582390 0 0
-0.0184513890 -0.0032241410 0 0
-0.0189698160 -0.0000393970 0 0
-0.0190870710 0.0024725790 0 0
-0.0187946720 0.0040463520 0 0
-0.0181304120 0.0045010030 0 0
-0.0171723100 0.0037606620 0 0
-0.0160282770 0.0018647470 0 0
-0.0148249490 -0.0010342830 0 0
-0.0136970760 -0.0046847890 0 0
-0.0127769940 -0.0087586170 0 0
-0.0121834140 -0.0128802690 0 0
-0.0120100100 -0.0166619420 0 0
-0.0123153880 -0.0197432680 0 0
-0.0131161990 -0.0218310360 0 0
-0.0143848360 -0.0227313850 0 0
-0.0160522330 -0.0223693540 0 0
-0.0180143290 -0.0207957500 0 0
-0.0201398710 -0.0181832100 0 0
-0.0222791740 -0.0148112400 0 0
-0.0242753450 -0.0110390620 0 0
-0.0259786340 -0.0072677340 0 0
-0.0272619860 -0.0038966050 0 0
-0.0280347290 -0.0012809720 0 0
-0.0282521630 0.0003040450 0 0
-0.0279199150 0.0006912970 0 0
-0.0270925830 -0.0001612420 0 0
-0.0258666630 -0.0021674910 0 0
-0.0243689590 -0.0051251610 0 0
-0.0227427630 -0.0087391930 0 0
-0.0211340020 -0.0126527020 0 0
-0.0196789430 -0.0164828280 0 0
-0.0184937520 -0.0198586900 0 0
-0.0176649550 -0.0224574860 0 0
-0.0172407690 -0.0240352740 0 0
-0.0172250670 -0.0244498610 0 0
-0.0175759200 -0.0236734930 0 0
-0.0182093630 -0.0217937330 0 0
-0.0190077260 -0.0190025200 0 0
-0.0198313850 -0.0155752220 0 0
-0.0205330470 -0.0118429810 0 0
-0.0209735900 -0.0081622670 0 0
-0.0210375960 -0.0048839890 0 0
-0.0206462860 -0.0023226430 0 0
-0.0197665470 -0.0007269000 0 0
-0.0184157810 -0.0002545510 0 0
-0.0166619050 -0.0009547540 0 0
-0.0146172380 -0.0027603370 0 0
-0.0124262020 -0.0054917480 0 0
-0.0102490300 -0.0088721110 0 0
-0.0082448760 -0.0125526670 0 0
-0.0065568520 -0.0161482290 0 0
-0.0052995380 -0.0192791190 0 0
-0.0045485370 -0.0216125540 0 0
-0.0043323560 -0.0228975170 0 0
-0.0046277720 -0.0229903230 0 0
-0.0053602120 -0.0218695750 0 0
-0.0064104670 -0.0196399370 0 0
-0.0076284610 -0.0165244620 0 0
-0.0088523400 -0.0128444930 0 0
-0.0099279550 -0.0089869960 0 0
-0.0107243070 -0.0053623890 0 0
-0.0111442390 -0.0023587610 0 0
-0.0111311040 -0.0002992900 0 0
-0.0106712810 0.0005916450 0 0
-0.0097930010 0.0002102650 0 0
-0.0085622960 -0.0014189140 0 0
-0.0070756850 -0.0041495800 0 0
-0.0054497050 -0.0077316840 0 0
-0.0038096430 -0.0118374150 0 0
-0.0022797340 -0.0160924050 0 0
-0.0009750560 -0.0201096920 0 0
0.0000054208 -0.0235233540 0 0
0.0005849800 -0.0260198900 0 0
0.0007143540 -0.0273665600 0 0
0.0003751860 -0.0274349670 0 0
-0.0004190430 -0.0262172010 0 0
-0.0016248800 -0.0238321030 0 0
-0.0031731850 -0.0205191350 0 0
-0.0049746550 -0.0166179900 0 0
-0.0069255870 -0.0125357620 0 0
-0.0089144470 -0.0087067940 0 0
-0.0108309640 -0.0055499570 0 0
-0.0125786110 -0.0034279990 0 0
-0.0140886390 -0.0026149000 0 0
-0.0153314020 -0.0032734920 0 0
-0.0163206310 -0.0054411970 0 0
-0.0171099380 -0.0090250230 0 0
-0.0177848610 -0.0138099320 0 0
-0.0184533370 -0.0194788930 0 0
-0.0192340890 -0.0256393120 0 0
-0.0202427070 -0.0318578180 0 -1
-0.0215789390 -0.0377080450 0 -1
-0.0233186260 -0.0428241390 0 -1
-0.0255095350 -0.0469433040 0 -1
-0.0281681960 -0.0499273020 0 -1
-0.0312765030 -0.0517648940 -1 -1
-0.0347795900 -0.0525624720 -1 -1
-0.0385875060 -0.0525282730 -1 -1
-0.0425820470 -0.0519522480 -1 -1
-0.0466285950 -0.0511814770 -1 -1
-0.0505916190 -0.0505899090 -1 -1
-0.0543507370 -0.0505428390 -1 -1
-0.0578134880 -0.0513597140 -1 -1
-0.0609227980 -0.0532800110 -1 -1
-0.0636595970 -0.0564372850 -1 -1
-0.0660419210 -0.0608463130 -1 -1
-0.0681209060 -0.0664047470 -1 -1
-0.0699736930 -0.0729060210 -1 -1
-0.0716940920 -0.0800589110 -1 -1
-0.0733820100 -0.0875111260 -1 -1
-0.0751318900 -0.0948770590 -1 -1
-0.0770205410 -0.1017703590 -1 -1
-0.0790962970 -0.1078398910 -1 -1
-0.0813719730 -0.1128052510 -1 -1
-0.0838225380 -0.1164866140 -1 -1
-0.0863873520 -0.1188232510 -1 -1
-0.0889769930 -0.1198773800 -1 -1
-0.0914838540 -0.1198242170 -1 -1
-0.0937937350 -0.1189314770 -1 -1
-0.0957952280 -0.1175316300 -1 -1
-0.0973864210 -0.1159891200 -1 -1
-0.0984815790 -0.1146645870 -1 -1
-0.0990201080 -0.1138793300 -1 -1
-0.0989766950 -0.1138844040 -1 -1
-0.0983692490 -0.1148379130 -1 -1
-0.0972620250 -0.1167918120 -1 -1
-0.0957629430 -0.1196878210 -1 -1
-0.0940152360 -0.1233622610 -1 -1
-0.0921847460 -0.1275606660 -1 -1
-0.0904451060 -0.1319626340 -1 -1
-0.0889623090 -0.1362143640 -1 -1
-0.0878792180 -0.1399637710 -1 -1
-0.0873013680 -0.1428943770 -1 -1
-0.0872862530 -0.1447573340 -1 -1
-0.0878368830 -0.1454004150 -1 -1
-0.0888998280 -0.1447888450 -1 -1
-0.0903697140 -0.1430117020 -1 -1
-0.0921019310 -0.1402719780 -1 -1
-0.0939313800 -0.1368634520 -1 -1
-0.0956917960 -0.1331394120 -1 -1
-0.0972312410 -0.1294776340 -1 -1
-0.0984229470 -0.1262450420 -1 -1
-0.0991730170 -0.1237646500 -1 -1
-0.0994264640 -0.1222863910 -1 -1
-0.0991720590 -0.1219632990 -1 -1
-0.0984452790 -0.1228357480 -1 -1
-0.0973270500 -0.1248260220 -1 -1
-0.0959363660 -0.1277439810 -1 -1
-0.0944175280 -0.1313042270 -1 -1
-0.0929245300 -0.1351545840 -1 -1
-0.0916047650 -0.1389132260 -1 -1
-0.0905836260 -0.1422090960 -1 -1
-0.0899518120 -0.1447192380 -1 -1
-0.0897571340 -0.1461986580 -1 -1
-0.0900015250 -0.1465017910 -1 -1
-0.0906426650 -0.1455956410 -1 -1
-0.0915991200 -0.1435634720 -1 -1
-0.0927583330 -0.1405978990 -1 -1
-0.0939871060 -0.1369832680 -1 -1
-0.0951440250 -0.1330681970 -1 -1
-0.0960930980 -0.1292307350 -1 -1
-0.0967177340 -0.1258404930 -1 -1
-0.0969337200 -0.1232221990 -1 -1
-0.0966993560 -0.1216241780 -1 -1
-0.0960211310 -0.1211939160 -1 -1
-0.0949540300 -0.1219620070 -1 -1
-0.0935960820 -0.1238369540 -1 -1
-0.0920772230 -0.1266136240 -1 -1
-0.0905437220 -0.1299938950 -1 -1
-0.0891407270 -0.1336161050 -1 -1
-0.0879958140 -0.1370924500 -1 -1
-0.0872057530 -0.1400506730 -1 -1
-0.0868277700 -0.1421719230 -1 -1
-0.0868758440 -0.1432199750 -1 -1
-0.0873221300 -0.1430614190 -1 -1
-0.0881030100 -0.1416772570 -1 -1
-0.0891284960 -0.1391663390 -1 -1
-0.0902925840 -0.1357390720 -1 -1
-0.0914819290 -0.1316984630 -1 -1
-0.0925826660 -0.1274093000 -1 -1
-0.0934874780 -0.1232607890 -1 -1
-0.0941038820 -0.1196283410 -1 -1
-0.0943625490 -0.1168387280 -1 -1
-0.0942242800 -0.1151412160 -1 -1
-0.0936846650 -0.1146855120 -1 -1
-0.0927759910 -0.1155073200 -1 -1
-0.0915664670 -0.1175232130 -1 -1
-0.0901563590 -0.1205367250 -1 -1
-0.0886701510 -0.1242567950 -1 -1
-0.0872446190 -0.1283270210 -1 -1
-0.0860140950 -0.1323612560 -1 -1
-0.0850955570 -0.1359813550 -1 -1
-0.0845758250 -0.1388543440 -1 -1
-0.0845016530 -0.1407253250 -1 -1
-0.0848733690 -0.1414418330 -1 -1
-0.0856436410 -0.1409668980 -1 -1
-0.0867229450 -0.1393800780 -1 -1
-0.0879915030 -0.1368676740 -1 -1
-0.0893143530 -0.1337044730 -1 -1
-0.0905555280 -0.1302289570 -1 -1
-0.0915906140 -0.1268132900 -1 -1
-0.0923186580 -0.1238291620 -1 -1
-0.0926725130 -0.1216106140 -1 -1
-0.0926256710 -0.1204170110 -1 -1
-0.0921946310 -0.1204023830 -1 -1
-0.0914363810 -0.1215970790 -1 -1
-0.0904409070 -0.1239040850 -1 -1
-0.0893205120 -0.1271093800 -1 -1
-0.0881986620 -0.1309047960 -1 -1
-0.0871996300 -0.1349211350 -1 -1
-0.0864385690 -0.1387674950 -1 -1
-0.0860113910 -0.1420716620 -1 -1
-0.0859844300 -0.1445173700 -1 -1
-0.0863852490 -0.1458754430 -1 -1
-0.0871972090 -0.1460255720 -1 -1
-0.0883597480 -0.1449661440 -1 -1
-0.0897747360 -0.1428117740 -1 -1
-0.0913181390 -0.1397800120 -1 -1
-0.0928550470 -0.1361696300 -1 -1
-0.0942545440 -0.1323328160 -1 -1
-0.0954018280 -0.1286427560 -1 -1
-0.0962081980 -0.1254585580 -1 -1
-0.0966204590 -0.1230916320 -1 -1
-0.0966284410 -0.1217780370 -1 -1
-0.0962673320 -0.1216587460 -1 -1
-0.0956131210 -0.1227674050 -1 -1
-0.0947726180 -0.1250253840 -1 -1
-0.0938709010 -0.1282451410 -1 -1
-0.0930381750 -0.1321432280 -1 -1
-0.0923966350 -0.1363640580 -1 -1
-0.0920478210 -0.1405143520 -1 -1
-0.0920618800 -0.1442047240 -1 -1
-0.0924705040 -0.1470914750 -1 -1
-0.0932645320 -0.1489119430 -1 -1
-0.0943960040 -0.1495096900 -1 -1
-0.0957835940 -0.1488480510 -1 -1
-0.0973201740 -0.1470114950 -1 -1
-0.0988816510 -0.1441950070 -1 -1
-0.1003370910 -0.1406829170 -1 -1
-0.1015606920 -0.1368200430 -1 -1
-0.1024452890 -0.1329786470 -1 -1
-0.1029149890 -0.1295238600 -1 -1
-0.1029339100 -0.1267796660 -1 -1
-0.1025096660 -0.1249986190 -1 -1
-0.1016920390 -0.1243384350 -1 -1
-0.1005678380 -0.1248467050 -1 -1
-0.0992528730 -0.1264547940 -1 -1
-0.0978814200 -0.1289830150 -1 -1
-0.0965930100 -0.1321582380 -1 -1
-0.0955173020 -0.1356422120 -1 -1
-0.0947598070 -0.1390666580 -1 -1
-0.0943913380 -0.1420705000 -1 -1
-0.0944424890 -0.1443355240 -1 -1
-0.0949032860 -0.1456177650 -1 -1
-0.0957272020 -0.1457717720 -1 -1
-0.0968374690 -0.1447648100 -1 -1
-0.0981335790 -0.1426790420 -1 -1
-0.0994977770 -0.1397016320 -1 -1
-0.1008029150 -0.1361046750 -1 -1
-0.1019223640 -0.1322178870 -1 -1
-0.1027408620 -0.1283974520 -1 -1
-0.1031650440 -0.1249946780 -1 -1
-0.1031332830 -0.1223267100 -1 -1
-0.1026239290 -0.1206489130 -1 -1
-0.1016598460 -0.1201287210 -1 -1
-0.1003076010 -0.1208242360 -1 -1
-0.0986709460 -0.1226732380 -1 -1
-0.0968795570 -0.1254966180 -1 -1
-0.0950756510 -0.1290164890 -1 -1
-0.0934011010 -0.1328861760 -1 -1
-0.0919854800 -0.1367274810 -1 -1
-0.0909345900 -0.1401694610 -1 -1
-0.0903204110 -0.1428836390 -1 -1
-0.0901743480 -0.1446137330 -1 -1
-0.0904850290 -0.1451997260 -1 -1
-0.0912002040 -0.1445942270 -1 -1
-0.0922311040 -0.1428678700 -1 -1
-0.0934580310 -0.1402024560 -1 -1
-0.0947376940 -0.1368727140 -1 -1
-0.0959146730 -0.1332178820 -1 -1
-0.0968381470 -0.1296053960 -1 -1
-0.0973810210 -0.1263928130 -1 -1
-0.0974561070 -0.1238941110 -1 -1
-0.0970252850 -0.1223499400 -1 -1
-0.0961005520 -0.1219004530 -1 -1
-0.0947387030 -0.1225678980 -1 -1
-0.0930329460 -0.1242575470 -1 -1
-0.0911038210 -0.1267744890 -1 -1
-0.0890897610 -0.1298469940 -1 -1
-0.0871364580 -0.1331519120 -1 -1
-0.0853844420 -0.1363424240 -1 -1
-0.0839557060 -0.1390787490 -1 -1
-0.0829423280 -0.1410616120 -1 -1
-0.0823994330 -0.1420643070 -1 -1
-0.0823415940 -0.1419564300 -1 -1
-0.0827405030 -0.1407167480 -1 -1
-0.0835242780 -0.1384361290 -1 -1
-0.0845810950 -0.1353105520 -1 -1
-0.0857688220 -0.1316237350 -1 -1
-0.0869296950 -0.1277199080 -1 -1
-0.0879083330 -0.1239695990 -1 -1
-0.0885712090 -0.1207331800 -1 -1
-0.0888239440 -0.1183256870 -1 -1
-0.0886224480 -0.1169850990 -1 -1
-0.0879764510 -0.1168471610 -1 -1
-0.0869461880 -0.1179306560 -1 -1
-0.0856336250 -0.1201358320 -1 -1
-0.0841697480 -0.1232561240 -1 -1
-0.0826987890 -0.1270006620 -1 -1
-0.0813603870 -0.1310234510 -1 -1
-0.0802729130 -0.1349553490 -1 -1
-0.0795219820 -0.1384367450 -1 -1
-0.0791551200 -0.1411503240 -1 -1
-0.0791809780 -0.1428518480 -1 -1
-0.0795718050 -0.1433946460 -1 -1
-0.0802685290 -0.1427444170 -1 -1
-0.0811872520 -0.1409833990 -1 -1
-0.0822258030 -0.1383034260 -1 -1
-0.0832705050 -0.1349874010 -1 -1
-0.0842050240 -0.1313802790 -1 -1
-0.0849224470 -0.1278527530 -1 -1
-0.0853385890 -0.1247626700 -1 -1
-0.0854028170 -0.1224201950 -1 -1
-0.0851041000 -0.1210608890 -1 -1
-0.0844720830 -0.1208271380 -1 -1
-0.0835736900 -0.1217562210 -1 -1
-0.0825058580 -0.1237747610 -1 -1
-0.0813855910 -0.1267014650 -1 -1
-0.0803386960 -0.1302601820 -1 -1
-0.0794883540 -0.1341037600 -1 -1
-0.0789448760 -0.1378477530 -1 -1
-0.0787976260 -0.1411112720 -1 -1
-0.0791085450 -0.1435594370 -1 -1
-0.0799060800 -0.1449402740 -1 -1
-0.0811799250 -0.1451110300 -1 -1
-0.0828781160 -0.1440521260 -1 -1
-0.0849072880 -0.1418682540 -1 -1
-0.0871370990 -0.1387763770 -1 -1
-0.0894108980 -0.1350820480 -1 -1
-0.0915624590 -0.1311474700 -1 -1
-0.0934342070 -0.1273550880 -1 -1
-0.0948924120 -0.1240704610 -1 -1
-0.0958399040 -0.1216085340 -1 -1
-0.0962283820 -0.1202061700 -1 -1
-0.0960679990 -0.1200012090 -1 -1
-0.0954287610 -0.1210182400 -1 -1
-0.0944311880 -0.1231627040 -1 -1
-0.0932286610 -0.1262259610 -1 -1
-0.0919863160 -0.1299034730 -1 -1
-0.0908609630 -0.1338254880 -1 -1
-0.0899847530 -0.1375956800 -1 -1
-0.0894534780 -0.1408318980 -1 -1
-0.0893200300 -0.1432047250 -1 -1
-0.0895935570 -0.1444706600 -1 -1
-0.0902434860 -0.1444967880 -1 -1
-0.0912062220 -0.1432747280 -1 -1
-0.0923928970 -0.1409223010 -1 -1
-0.0936982370 -0.1376708750 -1 -1
-0.0950110260 -0.1338383270 -1 -1
-0.0962254200 -0.1297924660 -1 -1
-0.0972511530 -0.1259127150 -1 -1
-0.0980210790 -0.1225555610 -1 -1
-0.0984960660 -0.1200251600 -1 -1
-0.0986680230 -0.1185485190 -1 -1
-0.0985605820 -0.1182551020 -1 -1
-0.0982265890 -0.1191624330 -1 -1
-0.0977434640 -0.1211703060 -1 -1
-0.0972075480 -0.1240658100 -1 -1
-0.0967263720 -0.1275405010 -1 -1
-0.0964073820 -0.1312187970 -1 -1
-0.0963440080 -0.1346944670 -1 -1
-0.0966024200 -0.1375731930 -1 -1
-0.0972127640 -0.1395176370 -1 -1
-0.0981662780 -0.1402861230 -1 -1
-0.0994173140 -0.1397577800 -1 -1
-0.1008891890 -0.1379435710 -1 -1
-0.1024828230 -0.1349839060 -1 -1
-0.1040863400 -0.1311335520 -1 -1
-0.1055840680 -0.1267365580 -1 -1
-0.1068646380 -0.1221935350 -1 -1
-0.1078289830 -0.1179228610 -1 -1
-0.1083990320 -0.1143195670 -1 -1
-0.1085261430 -0.1117169230 -1 -1
-0.1081968240 -0.1103548500 -1 -1
-0.1074347360 -0.1103580140 -1 -1
-0.1063001780 -0.1117246300 -1 -1
-0.1048874420 -0.1143261570 -1 -1
-0.1033183320 -0.1179186000 -1 -1
-0.1017304870 -0.1221650560 -1 -1
-0.1002618020 -0.1266672110 -1 -1
-0.0990345360 -0.1310028590 -1 -1
-0.0981426350 -0.1347659380 -1 -1
-0.0976436630 -0.1376054040 -1 -1
-0.0975546030 -0.1392598330 -1 -1
-0.0978506950 -0.1395841480 -1 -1
-0.0984680780 -0.1385644470 -1 -1
-0.0993111300 -0.1363188340 -1 -1
-0.1002634470 -0.1330838760 -1 -1
-0.1012001250 -0.1291876920 -1 -1
-0.1019993790 -0.1250137040 -1 -1
-0.1025525420 -0.1209610390 -1 -1
-0.1027721330 -0.1174063010 -1 -1
-0.1025980920 -0.1146697650 -1 -1
-0.1020026410 -0.1129879800 -1 -1
-0.1009942310 -0.1124938620 -1 -1
-0.0996200170 -0.1132056560 -1 -1
-0.0979647560 -0.1150261540 -1 -1
-0.0961442060 -0.1177521590 -1 -1
-0.0942933630 -0.1210941370 -1 -1
-0.0925517090 -0.1247060140 -1 -1
-0.0910482500 -0.1282217810 -1 -1
-0.0898888170 -0.1312926930 -1 -1
-0.0891466570 -0.1336201070 -1 -1
-0.0888560500 -0.1349819230 -1 -1
-0.0890088550 -0.1352515350 -1 -1
-0.0895546890 -0.1344079700 -1 -1
-0.0904052440 -0.1325366850 -1 -1
-0.0914423890 -0.1298217890 -1 -1
-0.0925295410 -0.1265303020 -1 -1
-0.0935256450 -0.1229880670 -1 -1
-0.0942997450 -0.1195483480 -1 -1
-0.0947436520 -0.1165574600 -1 -1
-0.0947819580 -0.1143218730 -1 -1
-0.0943795880 -0.1130784430 -1 -1
-0.0935462210 -0.1129695110 -1 -1
-0.0923368370 -0.1140266090 -1 -1
-0.0908481560 -0.1161653990 -1 -1
-0.0892103090 -0.1191920210 -1 -1
-0.0875731710 -0.1228208990 -1 -1
-0.0860888610 -0.1267037650 -1 -1
-0.0848944680 -0.1304663000 -1 -1
-0.0840986500 -0.1337458620 -1 -1
-0.0837726300 -0.1362249290 -1 -1
-0.0839447130 -0.1376585830 -1 -1
-0.0845982790 -0.1378962570 -1 -1
-0.0856737000 -0.1368972670 -1 -1
-0.0870740540 -0.1347378930 -1 -1
-0.0886740420 -0.1316070980 -1 -1
-0.0903311250 -0.1277894700 -1 -1
-0.0918981420 -0.1236369890 -1 -1
-0.0932371610 -0.1195334310 -1 -1
-0.0942337760 -0.1158562550 -1 -1
-0.0948096080 -0.1129408150 -1 -1
-0.0949305330 -0.1110500370 -1 -1
-0.0946094290 -0.1103503530 -1 -1
-0.0939038080 -0.1108949390 -1 -1
-0.0929092250 -0.1126168770 -1 -1
-0.0917493260 -0.1153339450 -1 -1
-0.0905640100 -0.1187646880 -1 -1
-0.0894968980 -0.1225549680 -1 -1
-0.0886823120 -0.1263133060 -1 -1
-0.0882325290 -0.1296510100 -1 -1
-0.0882271960 -0.1322220100 -1 -1
-0.0887057700 -0.1337580190 -1 -1
-0.0896628550 -0.1340959160 -1 -1
-0.0910474350 -0.1331947230 -1 -1
-0.0927674670 -0.1311400180 -1 -1
-0.0946991840 -0.1281350900 -1 -1
-0.0966987990 -0.1244799440 -1 -1
-0.0986152870 -0.1205402750 -1 -1
-0.1003048520 -0.1167099300 -1 -1
-0.1016470540 -0.1133711700 -1 -1
-0.1025596400 -0.1108566760 -1 -1
-0.1030075910 -0.1094169490 -1 -1
-0.1030038030 -0.1091961710 -1 -1
-0.1026026970 -0.1102182650 -1 -1
-0.1018906550 -0.1123843670 -1 -1
-0.1009757660 -0.1154831330 -1 -1
-0.0999766700 -0.1192137210 -1 -1
-0.0990104350 -0.1232177730 -1 -1
-0.0981814110 -0.1271149070 -1 -1
-0.0975727860 -0.1305375660 -1 -1
-0.0972407560 -0.1331633730 -1 -1
-0.0972109520 -0.1347439850 -1 -1
-0.0974774610 -0.1351285400 -1 -1
-0.0980039000 -0.1342788160 -1 -1
-0.0987253140 -0.1322735370 -1 -1
-0.0995512830 -0.1293003090 -1 -1
-0.1003723520 -0.1256356940 -1 -1
-0.1010714720 -0.1216164010 -1 -1
-0.1015400110 -0.1176059240 -1 -1
-0.1016948150 -0.1139613120 -1 -1
-0.1014905340 -0.1110033880 -1 -1
-0.1009239410 -0.1089902250 -1 -1
-0.1000318210 -0.1080925400 -1 -1
-0.0988855170 -0.1083734610 -1 -1
-0.0975838670 -0.1097782530 -1 -1
-0.0962448560 -0.1121375820 -1 -1
-0.0949948450 -0.1151841590 -1 -1
-0.0939545650 -0.1185805420 -1 -1
-0.0932245690 -0.1219550040 -1 -1
-0.0928741260 -0.1249412090 -1 -1
-0.0929346690 -0.1272166530 -1 -1
-0.0933972660 -0.1285351390 -1 -1
-0.0942148910 -0.1287495230 -1 -1
-0.0953092300 -0.1278232250 -1 -1
-0.0965786940 -0.1258321810 -1 -1
-0.0979051110 -0.1229594300 -1 -1
-0.0991609300 -0.1194810410 -1 -1
-0.1002199620 -0.1157402010 -1 -1
-0.1009709870 -0.1121106480 -1 -1
-0.1013299420 -0.1089559210 -1 -1
-0.1012470020 -0.1065915460 -1 -1
-0.1007088030 -0.1052540110 -1 -1
-0.0997385690 -0.1050775730 -1 -1
-0.0983952640 -0.1060798250 -1 -1
-0.0967703070 -0.1081583880 -1 -1
-0.0949807550 -0.1111011720 -1 -1
-0.0931596000 -0.1146099690 -1 -1
-0.0914444570 -0.1183333490 -1 -1
-0.0899656160 -0.1219028900 -1 -1
-0.0888339200 -0.1249683140 -1 -1
-0.0881290750 -0.1272296520 -1 -1
-0.0878897660 -0.1284642930 -1 -1
-0.0881075690 -0.1285455890 -1 -1
-0.0887259830 -0.1274519210 -1 -1
-0.0896447280 -0.1252674480 -1 -1
-0.0907291190 -0.1221750260 -1 -1
-0.0918241550 -0.1184413870 -1 -1
-0.0927719900 -0.1143954190 -1 -1
-0.0934297710 -0.1104004420 -1 -1
-0.0936843080 -0.1068218090 -1 -1
-0.0934621530 -0.1039921280 -1 -1
-0.0927361580 -0.1021766690 -1 -1
-0.0915290150 -0.1015422610 -1 -1
-0.0899121490 -0.1021350810 -1 -1
-0.0879988810 -0.1038730970 -1 -1
-0.0859331890 -0.1065550650 -1 -1
-0.0838757820 -0.1098835690 -1 -1
-0.0819882560 -0.1134981570 -1 -1
-0.0804166320 -0.1170138600 -1 -1
-0.0792765790 -0.1200595610 -1 -1
-0.0786423020 -0.1223125740 -1 -1
-0.0785402860 -0.1235284050 -1 -1
-0.0789483670 -0.1235637760 -1 -1
-0.0797996910 -0.1223891160 -1 -1
-0.0809903440 -0.1200893720 -1 -1
-0.0823894540 -0.1168566060 -1 -1
-0.0838513520 -0.1129769710 -1 -1
-0.0852291590 -0.1088096160 -1 -1
-0.0863879160 -0.1047542610 -1 -1
-0.0872152430 -0.1012085330 -1 -1
-0.0876292510 -0.0985213140 -1 -1
-0.0875846140 -0.0969517580 -1 -1
-0.0870771540 -0.0966416890 -1 -1
-0.0861459800 -0.0976036070 -1 -1
-0.0848719790 -0.0997240320 -1 -1
-0.0833721600 -0.1027797530 -1 -1
-0.0817897150 -0.1064604210 -1 -1
-0.0802798110 -0.1103939440 -1 -1
-0.0789928570 -0.1141799510 -1 -1
-0.0780587880 -0.1174341360 -1 -1
-0.0775750040 -0.1198340050 -1 -1
-0.0775982290 -0.1211534740 -1 -1
-0.0781395580 -0.1212816470 -1 -1
-0.0791623470 -0.1202274540 -1 -1
-0.0805835620 -0.1181134850 -1 -1
-0.0822796280 -0.1151617980 -1 -1
-0.0840972800 -0.1116729590 -1 -1
-0.0858687380 -0.1079981600 -1 -1
-0.0874296020 -0.1045047240 -1 -1
-0.0886376220 -0.1015382070 -1 -1
-0.0893895950 -0.0993869410 -1 -1
-0.0896330620 -0.0982538100 -1 -1
-0.0893710630 -0.0982373060 -1 -1
-0.0886601440 -0.0993232560 -1 -1
-0.0876024100 -0.1013881190 -1 -1
-0.0863326550 -0.1042127070 -1 -1
-0.0850025830 -0.1075039440 -1 -1
-0.0837646250 -0.1109229220 -1 -1
-0.0827570960 -0.1141179650 -1 -1
-0.0820915970 -0.1167597620 -1 -1
-0.0818436990 -0.1185735690 -1 -1
-0.0820476990 -0.1193645550 -1 -1
-0.0826952940 -0.1190356200 -1 -1
-0.0837374540 -0.1175977970 -1 -1
-0.0850893460 -0.1151710210 -1 -1
-0.0866386230 -0.1119721760 -1 -1
-0.0882565530 -0.1082909510 -1 -1
-0.0898107570 -0.1044585860 -1 -1
-0.0911778210 -0.1008156980 -1 -1
-0.0922538100 -0.0976832760 -1 -1
-0.0929622590 -0.0953375970 -1 -1
-0.0932609340 -0.0939873840 -1 -1
-0.0931472700 -0.0937529840 -1 -1
-0.0926599350 -0.0946513470 -1 -1
-0.0918748550 -0.0965914810 -1 -1
-0.0908970000 -0.0993817400 -1 -1
-0.0898501550 -0.1027474850 -1 -1
-0.0888654230 -0.1063573500 -1 -1
-0.0880684830 -0.1098560200 -1 -1
-0.0875664990 -0.1128998220 -1 -1
-0.0874361320 -0.1151899950 -1 -1
-0.0877139920 -0.1165000610 -1 -1
-0.0883908470 -0.1166969040 -1 -1
-0.0894112430 -0.1157553320 -1 -1
-0.0906796950 -0.1137636180 -1 -1
-0.0920726720 -0.1109172400 -1 -1
-0.0934535200 -0.1074999540 -1 -1
-0.0946874160 -0.1038536970 -1 -1
-0.0956547790 -0.1003415170 -1 -1
-0.0962621800 -0.0973100600 -1 -1
-0.0964498820 -0.0950566990 -1 -1
-0.0961955840 -0.0938027590 -1 -1
-0.0955143530 -0.0936734890 -1 -1
-0.0944552280 -0.0946862480 -1 -1
-0.0930956460 -0.0967482660 -1 -1
-0.0915352410 -0.0996652420 -1 -1
-0.0898901990 -0.1031608680 -1 -1
-0.0882875550 -0.1069046040 -1 -1
-0.0868571760 -0.1105435080 -1 -1
-0.0857201190 -0.1137345950 -1 -1
-0.0849745000 -0.1161754650 -1 -1
-0.0846818460 -0.1176322930 -1 -1
-0.0848575240 -0.1179635780 -1 -1
-0.0854676940 -0.1171351920 -1 -1
-0.0864324610 -0.1152233280 -1 -1
-0.0876331360 -0.1124072510 -1 -1
-0.0889224420 -0.1089545640 -1 -1
-0.0901382720 -0.1051978950 -1 -1
-0.0911210110 -0.1015023430 -1 -1
-0.0917323360 -0.0982272830 -1 -1
-0.0918728080 -0.0956882790 -1 -1
-0.0914956760 -0.0941245000 -1 -1
-0.0906141070 -0.0936756820 -1 -1
-0.0892999140 -0.0943704900 -1 -1
-0.0876737200 -0.0961254990 -1 -1
-0.0858887520 -0.0987525280 -1 -1
-0.0841123800 -0.1019739580 -1 -1
-0.0825089050 -0.1054474410 -1 -1
-0.0812243570 -0.1087992750 -1 -1
-0.0803729240 -0.1116620580 -1 -1
-0.0800259320 -0.1137112340 -1 -1
-0.0802055170 -0.1146966840 -1 -1
-0.0808839340 -0.1144675160 -1 -1
-0.0819871250 -0.1129891850 -1 -1
-0.0834007130 -0.1103515110 -1 -1
-0.0849784820 -0.1067647260 -1 -1
-0.0865542920 -0.1025410510 -1 -1
-0.0879567980 -0.0980628770 -1 -1
-0.0890253220 -0.0937424880 -1 -1
-0.0896259000 -0.0899793480 -1 -1
-0.0896668050 -0.0871198790 -1 -1
-0.0891113880 -0.0854234380 -1 -1
-0.0879844690 -0.0850372230 -1 -1
-0.0863692970 -0.0859819340 -1 -1
-0.0843955130 -0.0881494980 -1 -1
-0.0822218550 -0.0913142380 -1 -1
-0.0800181140 -0.0951575010 -1 -1
-0.0779493600 -0.0993023090 -1 -1
-0.0761633690 -0.1033515940 -1 -1
-0.0747809280 -0.1069247360 -1 -1
-0.0738884400 -0.1096906300 -1 -1
-0.0735325130 -0.1113966920 -1 -1
-0.0737168270 -0.1118917880 -1 -1
-0.0744017030 -0.1111402130 -1 -1
-0.0755065300 -0.1092242390 -1 -1
-0.0769151370 -0.1063345430 -1 -1
-0.0784843110 -0.1027506990 -1 -1
-0.0800555950 -0.0988146000 -1 -1
-0.0814703410 -0.0948982170 -1 -1
-0.0825868280 -0.0913678130 -1 -1
-0.0832965030 -0.0885492710 -1 -1
-0.0835359330 -0.0866982800 -1 -1
-0.0832928000 -0.0859763820 -1 -1
-0.0826063770 -0.0864342680 -1 -1
-0.0815628060 -0.0880054430 -1 -1
-0.0802848380 -0.0905126080 -1 -1
-0.0789171740 -0.0936865130 -1 -1
-0.0776108420 -0.0971943720 -1 -1
-0.0765094570 -0.1006734760 -1 -1
-0.0757375930 -0.1037657350 -1 -1
-0.0753903780 -0.1061509450 -1 -1
-0.0755239760 -0.1075783900 -1 -1
-0.0761475370 -0.1078944130 -1 -1
-0.0772186530 -0.1070598410 -1 -1
-0.0786445200 -0.1051527490 -1 -1
-0.0802893180 -0.1023575420 -1 -1
-0.0819873890 -0.0989440970 -1 -1
-0.0835614200 -0.0952403480 -1 -1
-0.0848430680 -0.0916012130 -1 -1
-0.0856921080 -0.0883764070 -1 -1
-0.0860110260 -0.0858790000 -1 -1
-0.0857539760 -0.0843560630 -1 -1
-0.0849304780 -0.0839633770 -1 -1
-0.0836043030 -0.0847472040 -1 -1
-0.0818878370 -0.0866356880 -1 -1
-0.0799324810 -0.0894410670 -1 -1
-0.0779154640 -0.0928736720 -1 -1
-0.0760224850 -0.0965679180 -1 -1
-0.0744264800 -0.1001176240 -1 -1
-0.0732664160 -0.1031179400 -1 -1
-0.0726321280 -0.1052124560 -1 -1
-0.0725575540 -0.1061381560 -1 -1
-0.0730196580 -0.1057557450 -1 -1
-0.0739409290 -0.1040613010 -1 -1
-0.0751976910 -0.1011836390 -1 -1
-0.0766357940 -0.0973676650 -1 -1
-0.0780902530 -0.0929432020 -1 -1
-0.0794041160 -0.0882880130 -1 -1
-0.0804445270 -0.0837948240 -1 -1
-0.0811149110 -0.0798427790 -1 -1
-0.0813619220 -0.0767691680 -1 -1
-0.0811774620 -0.0748394340 -1 -1
-0.0805975470 -0.0742173480 -1 -1
-0.0796986370 -0.0749423450 -1 -1
-0.0785905110 -0.0769224480 -1 -1
-0.0774049960 -0.0799452130 -1 -1
-0.0762814260 -0.0837022870 -1 -1
-0.0753514110 -0.0878215290 -1 -1
-0.0747256470 -0.0919029170 -1 -1
-0.0744841640 -0.0955565940 -1 -1
-0.0746704710 -0.0984406990 -1 -1
-0.0752892630 -0.1002939390 -1 -1
-0.0763064220 -0.1009586440 -1 -1
-0.0776502380 -0.1003941360 -1 -1
-0.0792143330 -0.0986802070 -1 -1
-0.0808640120 -0.0960075800 -1 -1
-0.0824471240 -0.0926547090 -1 -1
-0.0838090620 -0.0889569720 -1 -1
-0.0848103770 -0.0852747650 -1 -1
-0.0853436640 -0.0819622590 -1 -1
-0.0853453790 -0.0793376580 -1 -1
-0.0848006540 -0.0776564080 -1 -1
-0.0837425180 -0.0770870190 -1 -1
-0.0822475370 -0.0776906950 -1 -1
-0.0804289200 -0.0794101810 -1 -1
-0.0784271270 -0.0820725270 -1 -1
-0.0763974770 -0.0854057900 -1 -1
-0.0744950640 -0.0890673700 -1 -1
-0.0728592000 -0.0926806640 -1 -1
-0.0716004390 -0.0958747630 -1 -1
-0.0707919590 -0.0983216320 -1 -1
-0.0704653230 -0.0997680970 -1 -1
-0.0706093400 -0.1000612050 -1 -1
-0.0711708510 -0.0991639560 -1 -1
-0.0720575910 -0.0971587620 -1 -1
-0.0731441150 -0.0942384540 -1 -1
-0.0742818550 -0.0906857890 -1 -1
-0.0753138460 -0.0868435270 -1 -1
-0.0760929310 -0.0830788940 -1 -1
-0.0765003660 -0.0797468500 -1 -1
-0.0764612530 -0.0771561100 -1 -1
-0.0759542100 -0.0755411010 -1 -1
-0.0750139180 -0.0750419490 -1 -1
-0.0737263680 -0.0756933140 -1 -1
-0.0722174740 -0.0774216720 -1 -1
-0.0706370050 -0.0800507970 -1 -1
-0.0691412660 -0.0833168800 -1 -1
-0.0678773800 -0.0868942410 -1 -1
-0.0669694890 -0.0904286560 -1 -1
-0.0665066080 -0.0935728150 -1 -1
-0.0665333500 -0.0960200080 -1 -1
-0.0670453820 -0.0975339700 -1 -1
-0.0679907560 -0.0979722270 -1 -1
-0.0692772060 -0.0972997130 -1 -1
-0.0707841940 -0.0955913470 -1 -1
-0.0723771790 -0.0930248230 -1 -1
-0.0739208910 -0.0898647890 -1 -1
-0.0752895810 -0.0864382600 -1 -1
-0.0763746820 -0.0831025460 -1 -1
-0.0770911680 -0.0802092390 -1 -1
-0.0773828040 -0.0780677890 -1 -1
-0.0772267640 -0.0769122350 -1 -1
-0.0766381750 -0.0768752970 -1 -1
-0.0756725230 -0.0779735540 -1 -1
-0.0744219880 -0.0801059340 -1 -1
-0.0730046700 -0.0830648040 -1 -1
-0.0715500500 -0.0865563530 -1 -1
-0.0701851180 -0.0902281730 -1 -1
-0.0690234110 -0.0937035780 -1 -1
-0.0681568230 -0.0966200860 -1 -1
-0.0676490970 -0.0986671580 -1 -1
-0.0675302100 -0.0996189660 -1 -1
-0.0677922250 -0.0993589750 -1 -1
-0.0683882280 -0.0978928330 -1 -1
-0.0692356370 -0.0953465500 -1 -1
-0.0702240440 -0.0919506430 -1 -1
-0.0712262960 -0.0880149370 -1 -1
-0.0721108720 -0.0838982860 -1 -1
-0.0727546550 -0.0799748780 -1 -1
-0.0730561880 -0.0765995150 -1 -1
-0.0729486740 -0.0740759560 -1 -1
-0.0724102090 -0.0726308030 -1 -1
-0.0714680310 -0.0723933950 -1 -1
-0.0701951160 -0.0733825840 -1 -1
-0.0686999980 -0.0755021040 -1 -1
-0.0671121160 -0.0785462000 -1 -1
-0.0655655920 -0.0822173010 -1 -1
-0.0641845170 -0.0861550790 -1 -1
-0.0630720780 -0.0899719150 -1 -1
-0.0623040750 -0.0932895410 -1 -1
-0.0619250790 -0.0957736370 -1 -1
-0.0619452890 -0.0971642030 -1 -1
-0.0623392700 -0.0973015220 -1 -1
-0.0630492920 -0.0961454490 -1 -1
-0.0639928280 -0.0937799800 -1 -1
-0.0650712010 -0.0904000770 -1 -1
-0.0661783540 -0.0862899070 -1 -1
-0.0672110360 -0.0818012110 -1 -1
-0.0680801060 -0.0773295620 -1 -1
-0.0687198790 -0.0732822940 -1 -1
-0.0690930100 -0.0700376680 -1 -1
-0.0691915810 -0.0679013150 -1 -1
-0.0690362450 -0.0670681370 -1 -1
-0.0686739750 -0.0675970240 -1 -1
-0.0681738380 -0.0694037480 -1 -1
-0.0676206860 -0.0722731020 -1 -1
-0.0671075390 -0.0758861970 -1 -1
-0.0667272540 -0.0798569430 -1 -1
-0.0665633550 -0.0837727790 -1 -1
-0.0666803980 -0.0872362020 -1 -1
-0.0671157930 -0.0899039690 -1 -1
-0.0678748840 -0.0915203240 -1 -1
-0.0689294290 -0.0919407070 -1 -1
-0.0702189900 -0.0911430860 -1 -1
-0.0716547060 -0.0892261530 -1 -1
-0.0731252620 -0.0863967760 -1 -1
-0.0745057800 -0.0829494780 -1 -1
-0.0756699800 -0.0792385150 -1 -1
-0.0765041930 -0.0756432390 -1 -1
-0.0769206960 -0.0725306850 -1 -1
-0.0768683720 -0.0702203330 -1 -1
-0.0763396240 -0.0689533510 -1 -1
-0.0753727540 -0.0688672730 -1 -1
-0.0740496290 -0.0699795480 -1 -1
-0.0724891340 -0.0721850230 -1 -1
-0.0708364890 -0.0752691240 -1 -1
-0.0692484610 -0.0789328390 -1 -1
-0.0678761250 -0.0828238010 -1 -1
-0.0668483290 -0.0865698500 -1 -1
-0.0662584900 -0.0898131770 -1 -1
-0.0661559970 -0.0922432050 -1 -1
-0.0665428360 -0.0936257260 -1 -1
-0.0673757590 -0.0938250640 -1 -1
-0.0685731190 -0.0928161200 -1 -1
-0.0700236670 -0.0906852780 -1 -1
-0.0715949890 -0.0876218570 -1 -1
-0.0731421220 -0.0839019350 -1 -1
-0.0745187100 -0.0798648300 -1 -1
-0.0755914910 -0.0758824150 -1 -1
-0.0762556100 -0.0723243010 -1 -1
-0.0764462880 -0.0695239970 -1 -1
-0.0761444520 -0.0677492910 -1 -1
-0.0753775450 -0.0671772010 -1 -1
-0.0742169040 -0.0678740690 -1 -1
-0.0727710870 -0.0697839650 -1 -1
-0.0711749920 -0.0727297350 -1 -1
-0.0695763110 -0.0764288050 -1 -1
-0.0681211280 -0.0805222320 -1 -1
-0.0669404000 -0.0846132720 -1 -1
