-0.0593601280 -0.0347628600 -1 -1
-0.0602854570 -0.0329861550 -1 -1
-0.0611339250 -0.0311447310 -1 -1
-0.0618545170 -0.0294150490 -1 0
-0.0624063450 -0.0279589540 -1 0
-0.0627604600 -0.0269109390 -1 0
-0.0629014990 -0.0263688010 -1 0
-0.0628286740 -0.0263847310 -1 0
-0.0625564900 -0.0269562760 -1 0
-0.0621150140 -0.0280208570 -1 0
-0.0615484350 -0.0294586870 -1 0
-0.0609112140 -0.0311060030 -1 -1
-0.0602626250 -0.0327756670 -1 -1
-0.0596608750 -0.0342792280 -1 -1
-0.0591572850 -0.0354462290 -1 -1
-0.0587905030 -0.0361403990 -1 -1
-0.0585811690 -0.0362732940 -1 -1
-0.0585281390 -0.0358134130 -1 -1
-0.0586076650 -0.0347872270 -1 -1
-0.0587763080 -0.0332706670 -1 -1
-0.0589775600 -0.0313755940 -1 -1
-0.0591508350 -0.0292395380 -1 0
-0.0592395060 -0.0270213310 -1 0
-0.0591949230 -0.0248967860 -1 0
-0.0589775710 -0.0230482300 -1 0
-0.0585596370 -0.0216472140 -1 0
-0.0579306150 -0.0208336890 -1 0
-0.0571029230 -0.0206959770 -1 0
-0.0561142490 -0.0212559250 -1 0
-0.0550259840 -0.0224630130 -1 0
-0.0539176530 -0.0241990190 -1 0
-0.0528766640 -0.0262915540 -1 0
-0.0519846870 -0.0285331400 -1 0
-0.0513048440 -0.0307037180 -1 -1
-0.0508736800 -0.0325951970 -1 -1
-0.0506987740 -0.0340351810 -1 -1
-0.0507604480 -0.0349057610 -1 -1
-0.0510165800 -0.0351541350 -1 -1
-0.0514101750 -0.0347944270 -1 -1
-0.0518776650 -0.0339028990 -1 -1
-0.0523551160 -0.0326085040 -1 -1
-0.0527821460 -0.0310786270 -1 -1
-0.0531057180 -0.0294999840 -1 0
-0.0532846450 -0.0280573070 -1 0
-0.0532934620 -0.0269136950 -1 0
-0.0531245450 -0.0261952570 -1 0
-0.0527886110 -0.0259806950 -1 0
-0.0523134380 -0.0262960020 -1 0
-0.0517401240 -0.0271143460 -1 0
-0.0511174690 -0.0283601240 -1 0
-0.0504966140 -0.0299160190 -1 0
-0.0499276540 -0.0316330230 -1 -1
-0.0494580060 -0.0333437620 -1 -1
-0.0491309550 -0.0348790660 -1 -1
-0.0489826820 -0.0360865060 -1 -1
-0.0490374140 -0.0368475870 -1 -1
-0.0493021200 -0.0370899330 -1 -1
-0.0497629440 -0.0367932550 -1 -1
-0.0503848200 -0.0359902370 -1 -1
-0.0511141290 -0.0347634800 -1 -1
-0.0518833700 -0.0332382990 -1 -1
-0.0526172410 -0.0315704020 -1 -1
-0.0532402470 -0.0299290440 -1 0
-0.0536858910 -0.0284791600 -1 0
-0.0539060450 -0.0273666970 -1 0
-0.0538777320 -0.0267083570 -1 0
-0.0536052170 -0.0265837700 -1 0
-0.0531177640 -0.0270283020 -1 0
-0.0524652690 -0.0280273070 -1 0
-0.0517134720 -0.0295143050 -1 0
-0.0509385900 -0.0313743120 -1 -1
-0.0502201590 -0.0334519130 -1 -1
-0.0496320280 -0.0355640440 -1 -1
-0.0492332730 -0.0375175150 -1 -1
-0.0490611410 -0.0391292130 -1 -1
-0.0491273220 -0.0402450010 -1 -1
-0.0494179810 -0.0407546570 -1 -1
-0.0498968250 -0.0406026700 -1 -1
-0.0505094870 -0.0397949460 -1 -1
-0.0511878600 -0.0384000210 -1 -1
-0.0518548370 -0.0365431780 -1 -1
-0.0524305720 -0.0343934890 -1 -1
-0.0528397180 -0.0321460200 -1 -1
-0.0530180090 -0.0300018620 -1 -1
-0.0529176250 -0.0281476980 -1 0
-0.0525116020 -0.0267371070 -1 0
-0.0517971370 -0.0258764810 -1 0
-0.0507973470 -0.0256162020 -1 0
-0.0495610050 -0.0259462680 -1 0
-0.0481594100 -0.0267964580 -1 0
-0.0466800820 -0.0280425800 -1 0
-0.0452190140 -0.0295205170 -1 0
-0.0438735160 -0.0310447330 -1 -1
-0.0427346630 -0.0324239060 -1 -1
-0.0418777500 -0.0334741990 -1 -1
-0.0413535430 -0.0340387750 -1 -1
-0.0411848660 -0.0340139260 -1 -1
-0.0413685020 -0.0333693430 -1 -1
-0.0418788330 -0.0321516750 -1 -1
-0.0426710750 -0.0304727270 -1 -1
-0.0436843170 -0.0284907830 -1 0
-0.0448452040 -0.0263915610 -1 0
-0.0460731440 -0.0243703580 -1 0
-0.0472873890 -0.0226149720 -1 0
-0.0484154040 -0.0212897370 -1 0
-0.0494015230 -0.0205218240 -1 0
-0.0502143370 -0.0203908490 -1 0
-0.0508502430 -0.0209220180 -1 0
-0.0513314780 -0.0220829570 -1 0
-0.0516998050 -0.0237857280 -1 0
-0.0520090030 -0.0258956480 -1 0
-0.0523190940 -0.0282450610 -1 0
-0.0526926170 -0.0306477940 -1 -1
-0.0531902770 -0.0329123640 -1 -1
-0.0538638380 -0.0348552590 -1 -1
-0.0547477720 -0.0363157120 -1 -1
-0.0558527310 -0.0371713030 -1 -1
-0.0571622080 -0.0373521140 -1 -1
-0.0586329100 -0.0368513430 -1 -1
-0.0601994110 -0.0357304990 -1 -1
-0.0617822180 -0.0341163860 -1 -1
-0.0632963070 -0.0321877130 -1 -1
-0.0646578820 -0.0301530430 -1 -1
-0.0657902810 -0.0282259520 -1 0
-0.0666311880 -0.0266030600 -1 0
-0.0671408980 -0.0254466870 -1 0
-0.0673089240 -0.0248716030 -1 0
-0.0671562680 -0.0249358270 -1 0
-0.0667323250 -0.0256352200 -1 0
-0.0661075160 -0.0269014040 -1 0
-0.0653644740 -0.0286042010 -1 0
-0.0645902280 -0.0305612370 -1 -1
-0.0638692760 -0.0325562460 -1 -1
-0.0632762590 -0.0343642110 -1 -1
-0.0628684040 -0.0357781230 -1 -1
-0.0626800860 -0.0366321310 -1 -1
-0.0627216650 -0.0368185560 -1 -1
-0.0629819030 -0.0362980270 -1 -1
-0.0634306240 -0.0351026490 -1 -1
-0.0640193530 -0.0333325210 -1 -1
-0.0646813570 -0.0311455370 -1 -1
-0.0653343940 -0.0287406410 -1 0
-0.0658882060 -0.0263359390 -1 0
-0.0662561660 -0.0241445960 -1 0
-0.0663682460 -0.0223528810 -1 0
-0.0661820110 -0.0211037680 -1 0
-0.0656899650 -0.0204855930 -1 0
-0.0649223470 -0.0205239280 -1 0
-0.0639438950 -0.0211780510 -1 0
-0.0628442150 -0.0223457760 -1 0
-0.0617243220 -0.0238781670 -1 0
-0.0606833390 -0.0256007580 -1 0
-0.0598080160 -0.0273344760 -1 0
-0.0591652550 -0.0289112750 -1 0
-0.0587966280 -0.0301847960 -1 -1
-0.0587148210 -0.0310392080 -1 -1
-0.0589029850 -0.0313977520 -1 -1
-0.0593168920 -0.0312299470 -1 -1
-0.0598892820 -0.0305553130 -1 -1
-0.0605372880 -0.0294420620 -1 0
-0.0611732640 -0.0280011370 -1 0
-0.0617162100 -0.0263767640 -1 0
-0.0621005840 -0.0247330820 -1 0
-0.0622816750 -0.0232365250 -1 0
-0.0622382240 -0.0220367320 -1 0
-0.0619727670 -0.0212511370 -1 0
-0.0615094990 -0.0209563020 -1 0
-0.0608891600 -0.0211839500 -1 0
-0.0601615400 -0.0219180480 -1 0
-0.0593785810 -0.0230933270 -1 0
-0.0585910850 -0.0245983420 -1 0
-0.0578485830 -0.0262841670 -1 0
-0.0571990920 -0.0279776600 -1 0
-0.0566866040 -0.0294978000 -1 0
-0.0563464920 -0.0306739540 -1 -1
-0.0561998950 -0.0313656160 -1 -1
-0.0562484290 -0.0314821200 -1 -1
-0.0564710760 -0.0309977110 -1 -1
-0.0568251170 -0.0299568830 -1 0
-0.0572517530 -0.0284681740 -1 0
-0.0576847200 -0.0266885460 -1 0
-0.0580587760 -0.0248032260 -1 0
-0.0583157610 -0.0230055410 -1 0
-0.0584082510 -0.0214781530 -1 0
-0.0583019960 -0.0203753760 -1 0
-0.0579779510 -0.0198082020 -1 0
-0.0574342010 -0.0198348920 -1 0
-0.0566880760 -0.0204570080 -1 0
-0.0557780950 -0.0216184690 -1 0
-0.0547637940 -0.0232067500 -1 0
-0.0537204780 -0.0250562260 -1 0
-0.0527282540 -0.0269562920 -1 0
-0.0518596220 -0.0286717870 -1 0
-0.0511714740 -0.0299771460 -1 0
-0.0507027500 -0.0306913650 -1 -1
-0.0504742550 -0.0307007630 -1 -1
-0.0504875750 -0.0299689250 -1 0
-0.0507228760 -0.0285380150 -1 0
-0.0511372940 -0.0265219930 -1 0
-0.0516667290 -0.0240910600 -1 0
-0.0522331960 -0.0214497800 -1 0
-0.0527567950 -0.0188139730 -1 0
-0.0531686470 -0.0163910260 -1 0
-0.0534206100 -0.0143650450 -1 0
-0.0534884860 -0.0128857160 -1 0
-0.0533686690 -0.0120605670 -1 0
-0.0530719350 -0.0119505750 -1 0
-0.0526188590 -0.0125671940 -1 0
-0.0520387170 -0.0138701020 -1 0
-0.0513703640 -0.0157673740 -1 0
-0.0506618820 -0.0181196250 -1 0
-0.0499671660 -0.0207490830 -1 0
-0.0493401800 -0.0234541460 -1 0
-0.0488285100 -0.0260283420 -1 0
-0.0484677170 -0.0282803020 -1 0
-0.0482781460 -0.0300506330 -1 -1
-0.0482647370 -0.0312236990 -1 -1
-0.0484182500 -0.0317353750 -1 -1
-0.0487161020 -0.0315779510 -1 -1
-0.0491230430 -0.0308014500 -1 -1
-0.0495930720 -0.0295101970 -1 0
-0.0500732180 -0.0278541290 -1 0
-0.0505086140 -0.0260147670 -1 0
-0.0508479370 -0.0241865620 -1 0
-0.0510484750 -0.0225556590 -1 0
-0.0510805950 -0.0212797730 -1 0
-0.0509317970 -0.0204732120 -1 0
-0.0506098760 -0.0201986890 -1 0
-0.0501433370 -0.0204649350 -1 0
-0.0495776790 -0.0212286210 -1 0
-0.0489688390 -0.0223995720 -1 0
-0.0483762010 -0.0238485900 -1 0
-0.0478562020 -0.0254181650 -1 0
-0.0474563800 -0.0269371120 -1 0
-0.0472105520 -0.0282386750 -1 0
-0.0471366770 -0.0291787700 -1 0
-0.0472376390 -0.0296502340 -1 0
-0.0475031370 -0.0295916790 -1 0
-0.0479115450 -0.0289928880 -1 0
-0.0484319940 -0.0278981380 -1 0
-0.0490266530 -0.0264053810 -1 0
-0.0496528860 -0.0246585820 -1 0
-0.0502662010 -0.0228335210 -1 0
-0.0508254360 -0.0211195230 -1 0
-0.0512990690 -0.0196995410 -1 0
-0.0516690670 -0.0187309100 -1 0
-0.0519308650 -0.0183291350 -1 0
-0.0520918140 -0.0185563750 -1 0
-0.0521703350 -0.0194150070 -1 0
-0.0521953780 -0.0208459460 -1 0
-0.0522048530 -0.0227321190 -1 0
-0.0522428660 -0.0249083680 -1 0
-0.0523565030 -0.0271778610 -1 0
-0.0525922270 -0.0293329040 -1 0
-0.0529910150 -0.0311772990 -1 -1
-0.0535822910 -0.0325473910 -1 -1
-0.0543782150 -0.0333290280 -1 -1
-0.0553697010 -0.0334685410 -1 -1
-0.0565245570 -0.0329765210 -1 -1
-0.0577880140 -0.0319244080 -1 -1
-0.0590862850 -0.0304360710 -1 -1
-0.0603335970 -0.0286765140 -1 0
-0.0614417720 -0.0268373170 -1 0
-0.0623305540 -0.0251176290 -1 0
-0.0629373530 -0.0237022460 -1 0
-0.0632251850 -0.0227410420 -1 0
-0.0631869500 -0.0223338420 -1 0
-0.0628453520 -0.0225224150 -1 0
-0.0622496410 -0.0232890950 -1 0
-0.0614700890 -0.0245611660 -1 0
-0.0605900690 -0.0262201130 -1 0
-0.0596966040 -0.0281140810 -1 0
-0.0588718190 -0.0300716820 -1 -1
-0.0581867410 -0.0319160150 -1 -1
-0.0576965090 -0.0334789900 -1 -1
-0.0574357770 -0.0346168100 -1 -1
-0.0574147800 -0.0352259270 -1 -1
-0.0576170930 -0.0352559840 -1 -1
-0.0579999180 -0.0347160570 -1 -1
-0.0584981530 -0.0336727740 -1 -1
-0.0590332210 -0.0322413740 -1 -1
-0.0595251840 -0.0305723100 -1 -1
-0.0599037770 -0.0288356970 -1 0
-0.0601143750 -0.0272052450 -1 0
-0.0601186710 -0.0258434870 -1 0
-0.0598934750 -0.0248890040 -1 0
-0.0594312060 -0.0244441590 -1 0
-0.0587430640 -0.0245625320 -1 0
-0.0578627760 -0.0252392150 -1 0
-0.0568475770 -0.0264087040 -1 0
-0.0557745010 -0.0279510170 -1 0
-0.0547322430 -0.0297029410 -1 0
-0.0538101410 -0.0314733400 -1 -1
-0.0530863800 -0.0330637070 -1 -1
-0.0526176590 -0.0342913030 -1 -1
-0.0524319150 -0.0350084390 -1 -1
-0.0525253590 -0.0351152080 -1 -1
-0.0528651170 -0.0345686490 -1 -1
-0.0533970010 -0.0333902250 -1 -1
-0.0540547840 -0.0316681340 -1 -1
-0.0547673640 -0.0295493150 -1 0
-0.0554637080 -0.0272213120 -1 0
-0.0560774990 -0.0248901890 -1 0
-0.0565521500 -0.0227595260 -1 0
-0.0568452740 -0.0210117580 -1 0
-0.0569317390 -0.0197930460 -1 0
-0.0568051050 -0.0192025950 -1 0
-0.0564774500 -0.0192853400 -1 0
-0.0559776340 -0.0200267390 -1 0
-0.0553480310 -0.0213510530 -1 0
-0.0546397140 -0.0231261400 -1 0
-0.0539071550 -0.0251756100 -1 0
-0.0532042810 -0.0272959500 -1 0
-0.0525819580 -0.0292752030 -1 0
-0.0520847600 -0.0309106400 -1 -1
-0.0517454950 -0.0320252470 -1 -1
-0.0515786550 -0.0324850330 -1 -1
-0.0515763010 -0.0322168590 -1 -1
-0.0517098700 -0.0312218020 -1 -1
-0.0519379190 -0.0295789790 -1 0
-0.0522151560 -0.0274390750 -1 0
-0.0524973830 -0.0250092670 -1 0
-0.0527417240 -0.0225310090 -1 0
-0.0529062820 -0.0202529080 -1 0
-0.0529528160 -0.0184028010 -1 0
-0.0528518050 -0.0171631000 -1 0
-0.0525874830 -0.0166518240 -1 0
-0.0521621770 -0.0169113230 -1 0
-0.0515998490 -0.0179068400 -1 0
-0.0509469450 -0.0195351150 -1 0
-0.0502686730 -0.0216399360 -1 0
-0.0496408620 -0.0240303910 -1 0
-0.0491389710 -0.0264990060 -1 0
-0.0488268130 -0.0288391380 -1 0
-0.0487479470 -0.0308621820 -1 -1
-0.0489214390 -0.0324140030 -1 -1
-0.0493417810 -0.0333884520 -1 -1
-0.0499815190 -0.0337365760 -1 -1
-0.0507952360 -0.0334708570 -1 -1
-0.0517242820 -0.0326630800 -1 -1
-0.0527015090 -0.0314349450 -1 -1
-0.0536552190 -0.0299429970 -1 0
-0.0545130860 -0.0283609100 -1 0
-0.0552082800 -0.0268616890 -1 0
-0.0556885260 -0.0256017030 -1 0
-0.0559252660 -0.0247080720 -1 0
-0.0559185550 -0.0242695730 -1 0
-0.0556960810 -0.0243297100 -1 0
-0.0553081270 -0.0248810740 -1 0
-0.0548204010 -0.0258627080 -1 0
-0.0543053610 -0.0271634510 -1 0
-0.0538332290 -0.0286324270 -1 0
-0.0534646570 -0.0300948290 -1 -1
-0.0532457680 -0.0313696560 -1 -1
-0.0532052410 -0.0322872390 -1 -1
-0.0533533710 -0.0327059700 -1 -1
-0.0536831570 -0.0325277400 -1 -1
-0.0541729270 -0.0317101720 -1 -1
-0.0547900160 -0.0302732580 -1 -1
-0.0554952370 -0.0282997190 -1 0
-0.0562468530 -0.0259295110 -1 0
-0.0570025430 -0.0233483750 -1 0
-0.0577201520 -0.0207708060 -1 0
-0.0583595290 -0.0184188980 -1 0
-0.0588859750 -0.0164991690 -1 0
-0.0592738120 -0.0151804970 -1 0
-0.0595087100 -0.0145766640 -1 0
-0.0595884310 -0.0147353270 -1 0
-0.0595221420 -0.0156332630 -1 0
-0.0593285170 -0.0171777560 -1 0
-0.0590327210 -0.0192146230 -1 0
-0.0586634790 -0.0215429030 -1 0
-0.0582522140 -0.0239346040 -1 0
-0.0578339990 -0.0261571680 -1 0
-0.0574473410 -0.0279969760 -1 0
-0.0571305540 -0.0292817370 -1 0
-0.0569155920 -0.0298982330 -1 0
-0.0568221920 -0.0298025800 -1 0
-0.0568546700 -0.0290227720 -1 0
-0.0570020380 -0.0276546370 -1 0
-0.0572407070 -0.0258518660 -1 0
-0.0575383270 -0.0238107060 -1 0
-0.0578571190 -0.0217504690 -1 0
-0.0581558480 -0.0198910010 -1 0
-0.0583918640 -0.0184292460 -1 0
-0.0585255710 -0.0175187890 -1 0
-0.0585274650 -0.0172554040 -1 0
-0.0583854100 -0.0176689380 -1 0
-0.0581095730 -0.0187209680 -1 0
-0.0577334270 -0.0203080330 -1 0
-0.0573101740 -0.0222715400 -1 0
-0.0569053800 -0.0244145180 -1 0
-0.0565875380 -0.0265210710 -1 0
-0.0564179260 -0.0283740980 -1 0
-0.0564413870 -0.0297737640 -1 0
-0.0566804880 -0.0305612650 -1 -1
-0.0571342370 -0.0306430800 -1 -1
-0.0577795070 -0.0300041180 -1 -1
-0.0585725370 -0.0287057440 -1 0
-0.0594508740 -0.0268746230 -1 0
-0.0603385910 -0.0246878220 -1 0
-0.0611556720 -0.0223547070 -1 0
-0.0618286860 -0.0200950150 -1 0
-0.0622993090 -0.0181150350 -1 0
-0.0625297840 -0.0165871140 -1 0
-0.0625058370 -0.0156362950 -1 0
-0.0622365330 -0.0153320530 -1 0
-0.0617505520 -0.0156823290 -1 0
-0.0610903630 -0.0166324760 -1 0
-0.0603067160 -0.0180724930 -1 0
-0.0594551250 -0.0198514180 -1 0
-0.0585946510 -0.0217954710 -1 0
-0.0577871530 -0.0237268380 -1 0
-0.0570934570 -0.0254805480 -1 0
-0.0565650910 -0.0269177650 -1 0
-0.0562344430 -0.0279350100 -1 0
-0.0561073770 -0.0284701160 -1 0
-0.0561600310 -0.0285059800 -1 0
-0.0563395350 -0.0280715790 -1 0
-0.0565683710 -0.0272382910 -1 0
-0.0567527010 -0.0261111450 -1 0
-0.0567945650 -0.0248177490 -1 0
-0.0566058750 -0.0234972430 -1 0
-0.0561207790 -0.0222890780 -1 0
-0.0553040470 -0.0213213030 -1 0
-0.0541548700 -0.0206991530 -1 0
-0.0527065540 -0.0204944390 -1 0
-0.0510231350 -0.0207364580 -1 0
-0.0491939750 -0.0214062710 -1 0
-0.0473268190 -0.0224364220 -1 0
-0.0455389390 -0.0237168940 -1 0
-0.0439459090 -0.0251064760 -1 0
-0.0426491140 -0.0264479420 -1 0
-0.0417247400 -0.0275851350 -1 0
-0.0412160260 -0.0283795520 -1 0
-0.0411286510 -0.0287240560 -1 0
-0.0414291510 -0.0285522330 -1 0
-0.0420472180 -0.0278437750 -1 0
-0.0428824780 -0.0266276240 -1 0
-0.0438157550 -0.0249829810 -1 0
-0.0447240510 -0.0230356020 -1 0
-0.0454965350 -0.0209475620 -1 0
-0.0460474660 -0.0189013390 -1 0
-0.0463234240 -0.0170797940 -1 0
-0.0463051620 -0.0156446210 -1 0
-0.0460053510 -0.0147175870 -1 0
-0.0454627730 -0.0143680900 -1 0
-0.0447345020 -0.0146077230 -1 0
-0.0438886100 -0.0153911170 -1 0
-0.0429978350 -0.0166227310 -1 0
-0.0421325870 -0.0181695360 -1 0
-0.0413529240 -0.0198775000 -1 0
-0.0407009990 -0.0215871640 -1 0
-0.0401962210 -0.0231442750 -1 0
-0.0398353140 -0.0244059810 -1 0
-0.0395981880 -0.0252477870 -1 0
-0.0394577590 -0.0255756570 -1 0
-0.0393888080 -0.0253414880 -1 0
-0.0393715710 -0.0245554070 -1 0
-0.0393902140 -0.0232890640 -1 0
-0.0394294950 -0.0216685160 -1 0
-0.0394724780 -0.0198595550 -1 0
-0.0395003970 -0.0180493630 -1 0
-0.0394940630 -0.0164269540 -1 0
-0.0394355590 -0.0151645870 -1 0
-0.0393102830 -0.0144019370 -1 0
-0.0391108710 -0.0142329060 -1 0
-0.0388428740 -0.0146945180 -1 0
-0.0385288310 -0.0157601420 -1 0
-0.0382075420 -0.0173414070 -1 0
-0.0379286700 -0.0192997900 -1 0
-0.0377445470 -0.0214629520 -1 0
-0.0377006780 -0.0236405970 -1 0
-0.0378269970 -0.0256398470 -1 0
-0.0381329450 -0.0272819980 -1 0
-0.0386080250 -0.0284189110 -1 0
-0.0392267490 -0.0289465350 -1 0
-0.0399552360 -0.0288153580 -1 0
-0.0407561250 -0.0280363510 -1 0
-0.0415906220 -0.0266810690 -1 0
-0.0424195300 -0.0248774490 -1 0
-0.0432046030 -0.0228010790 -1 0
-0.0439092680 -0.0206584650 -1 0
-0.0444984950 -0.0186626150 -1 0
-0.0449398230 -0.0170075040 -1 0
-0.0452075540 -0.0158487090 -1 0
-0.0452884730 -0.0152916740 -1 0
-0.0451845810 -0.0153832180 -1 0
-0.0449110760 -0.0161042130 -1 0
-0.0444927600 -0.0173690890 -1 0
-0.0439617270 -0.0190372600 -1 0
-0.0433555730 -0.0209323190 -1 0
-0.0427145710 -0.0228619500 -1 0
-0.0420783170 -0.0246362630 -1 0
-0.0414829680 -0.0260843470 -1 0
-0.0409593820 -0.0270680520 -1 0
-0.0405320720 -0.0274928180 -1 0
-0.0402183480 -0.0273154860 -1 0
-0.0400259210 -0.0265485030 -1 0
-0.0399482780 -0.0252600640 -1 0
-0.0399603600 -0.0235694340 -1 0
-0.0400184010 -0.0216363460 -1 0
-0.0400652720 -0.0196444370 -1 0
-0.0400394220 -0.0177807570 -1 0
-0.0398844940 -0.0162151650 -1 0
-0.0395576870 -0.0150838250 -1 0
-0.0390362370 -0.0144791240 -1 0
-0.0383221170 -0.0144450160 -1 0
-0.0374450280 -0.0149751380 -1 0
-0.0364631900 -0.0160120110 -1 0
-0.0354604750 -0.0174480360 -1 0
-0.0345380710 -0.0191310500 -1 0
-0.0338006840 -0.0208770070 -1 0
-0.0333405470 -0.0224898830 -1 0
-0.0332239950 -0.0237858170 -1 0
-0.0334835670 -0.0246166880 -1 0
-0.0341157990 -0.0248880630 -1 0
-0.0350840830 -0.0245685750 -1 0
-0.0363256170 -0.0236909490 -1 0
-0.0377602710 -0.0223462030 -1 0
-0.0392991200 -0.0206718900 -1 0
-0.0408519020 -0.0188356100 -1 0
-0.0423336560 -0.0170163370 -1 0
-0.0436707170 -0.0153863320 -1 0
-0.0448056630 -0.0140959810 -1 0
-0.0457001850 -0.0132630840 -1 0
-0.0463354020 -0.0129656430 -1 0
-0.0467109220 -0.0132356530 -1 0
-0.0468441740 -0.0140545160 -1 0
-0.0467696260 -0.0153533220 -1 0
-0.0465365310 -0.0170185990 -1 0
-0.0462048990 -0.0189014430 -1 0
-0.0458402740 -0.0208293930 -1 0
-0.0455077540 -0.0226221640 -1 0
-0.0452653060 -0.0241109990 -1 0
-0.0451568470 -0.0251579060 -1 0
-0.0452066510 -0.0256697500 -1 0
-0.0454168120 -0.0256049810 -1 0
-0.0457681210 -0.0249746090 -1 0
-0.0462235170 -0.0238402750 -1 0
-0.0467330770 -0.0223108800 -1 0
-0.0472395980 -0.0205368810 -1 0
-0.0476841470 -0.0186995720 -1 0
-0.0480115640 -0.0169934520 -1 0
-0.0481758430 -0.0156038120 -1 0
-0.0481449410 -0.0146847550 -1 0
-0.0479044990 -0.0143415260 -1 0
-0.0474598980 -0.0146188350 -1 0
-0.0468365600 -0.0154963930 -1 0
-0.0460788550 -0.0168920640 -1 0
-0.0452473500 -0.0186714830 -1 0
-0.0444139660 -0.0206619740 -1 0
-0.0436554460 -0.0226688710 -1 0
-0.0430454280 -0.0244936180 -1 0
-0.0426453030 -0.0259529320 -1 0
-0.0424953600 -0.0268968270 -1 0
-0.0426088340 -0.0272234190 -1 0
-0.0429706970 -0.0268893060 -1 0
-0.0435408390 -0.0259144610 -1 0
-0.0442594970 -0.0243810470 -1 0
-0.0450531920 -0.0224267840 -1 0
-0.0458408630 -0.0202336670 -1 0
-0.0465407370 -0.0180113700 -1 0
-0.0470786100 -0.0159752320 -1 0
-0.0473974080 -0.0143220390 -1 0
-0.0474654330 -0.0132089530 -1 0
-0.0472797380 -0.0127388790 -1 0
-0.0468639410 -0.0129515680 -1 0
-0.0462629540 -0.0138188610 -1 0
-0.0455369790 -0.0152456760 -1 0
-0.0447547480 -0.0170800740 -1 0
-0.0439850290 -0.0191316220 -1 0
-0.0432869510 -0.0211928900 -1 0
-0.0427018020 -0.0230599720 -1 0
-0.0422491540 -0.0245513630 -1 0
-0.0419282480 -0.0255250600 -1 0
-0.0417231800 -0.0258920780 -1 0
-0.0416088670 -0.0256239970 -1 0
-0.0415550210 -0.0247537080 -1 0
-0.0415279380 -0.0233704030 -1 0
-0.0414920320 -0.0216103790 -1 0
-0.0414121950 -0.0196447760 -1 0
-0.0412564580 -0.0176649360 -1 0
-0.0409986720 -0.0158656720 -1 0
-0.0406214430 -0.0144270390 -1 0
-0.0401187520 -0.0134967710 -1 0
-0.0394973270 -0.0131759030 -1 0
-0.0387768280 -0.0135085540 -1 0
-0.0379892170 -0.0144762770 -1 0
-0.0371769590 -0.0159977700 -1 0
-0.0363898290 -0.0179344380 -1 0
-0.0356806850 -0.0201018570 -1 0
-0.0351002800 -0.0222871140 -1 0
-0.0346910910 -0.0242711520 -1 0
-0.0344816450 -0.0258532050 -1 0
-0.0344836540 -0.0268726890 -1 0
-0.0346928030 -0.0272245970 -1 0
-0.0350920800 -0.0268675600 -1 0
-0.0356558160 -0.0258257020 -1 0
-0.0363531770 -0.0241852470 -1 0
-0.0371510310 -0.0220867670 -1 0
-0.0380167490 -0.0197134850 -1 0
-0.0389209100 -0.0172751410 -1 0
-0.0398392910 -0.0149881160 -1 0
-0.0407539630 -0.0130543740 -1 0
-0.0416541020 -0.0116418640 -1 0
-0.0425373160 -0.0108681900 -1 0
-0.0434113280 -0.0107893880 -1 0
-0.0442942020 -0.0113953030 -1 0
-0.0452111210 -0.0126115870 -1 0
-0.0461882510 -0.0143076620 -1 0
-0.0472469870 -0.0163105170 -1 0
-0.0484014410 -0.0184236250 -1 0
-0.0496589410 -0.0204484040 -1 0
-0.0510211960 -0.0222041020 -1 0
-0.0524844720 -0.0235425100 -1 0
-0.0540388120 -0.0243575230 -1 0
-0.0556668510 -0.0245925050 -1 0
-0.0573424310 -0.0242457210 -1 0
-0.0590291810 -0.0233710500 -1 0
-0.0606802390 -0.0220729280 -1 0
-0.0622412810 -0.0204959300 -1 0
-0.0636577700 -0.0188087440 -1 0
-0.0648844470 -0.0171844660 -1 0
-0.0658937180 -0.0157823870 -1 0
-0.0666807600 -0.0147351330 -1 0
-0.0672650180 -0.0141406270 -1 0
-0.0676885610 -0.0140554620 -1 0
-0.0680114820 -0.0144883560 -1 0
-0.0683047020 -0.0153970760 -1 0
-0.0686415900 -0.0166915370 -1 0
-0.0690897670 -0.0182416940 -1 0
-0.0697028900 -0.0198892410 -1 0
-0.0705117940 -0.0214629440 -1 0
-0.0715162760 -0.0227956930 -1 0
-0.0726816880 -0.0237412690 -1 0
-0.0739436950 -0.0241888950 -1 0
-0.0752192270 -0.0240736930 -1 0
-0.0764184510 -0.0233847090 -1 0
-0.0774553370 -0.0221714960 -1 0
-0.0782570860 -0.0205442380 -1 0
-0.0787711650 -0.0186623760 -1 0
-0.0789678970 -0.0167129230 -1 0
-0.0788396070 -0.0148861910 -1 0
-0.0784000660 -0.0133585180 -1 0
-0.0776857020 -0.0122828350 -1 0
-0.0767557890 -0.0117784920 -1 0
-0.0756888960 -0.0119160630 -1 0
-0.0745760110 -0.0127028420 -1 0
-0.0735115790 -0.0140776780 -1 0
-0.0725832330 -0.0159182910 -1 0
-0.0718626810 -0.0180568420 -1 0
-0.0714011920 -0.0202983560 -1 0
-0.0712299160 -0.0224403720 -1 0
-0.0713617760 -0.0242937400 -1 0
-0.0717925510 -0.0257025700 -1 0
-0.0725016160 -0.0265601130 -1 0
-0.0734535850 -0.0268179490 -1 0
-0.0746004160 -0.0264879540 -1 0
-0.0758829100 -0.0256385040 -1 0
-0.0772320480 -0.0243860390 -1 0
-0.0785717360 -0.0228823660 -1 0
-0.0798234180 -0.0212994610 -1 0
-0.0809116650 -0.0198142250 -1 0
-0.0817701840 -0.0185938230 -1 0
-0.0823485800 -0.0177806810 -1 0
-0.0826194630 -0.0174771760 -1 0
-0.0825841440 -0.0177328510 -1 0
-0.0822744200 -0.0185381970 -1 0
-0.0817483960 -0.0198262590 -1 0
-0.0810806980 -0.0214802000 -1 0
-0.0803500660 -0.0233447390 -1 0
-0.0796285400 -0.0252405100 -1 0
-0.0789753000 -0.0269807160 -1 0
-0.0784350390 -0.0283893680 -1 0
-0.0780378590 -0.0293195450 -1 0
-0.0777983320 -0.0296691900 -1 0
-0.0777140970 -0.0293926360 -1 0
-0.0777657900 -0.0285065860 -1 0
-0.0779193570 -0.0270887190 -1 0
-0.0781302520 -0.0252680280 -1 0
-0.0783483010 -0.0232094650 -1 0
-0.0785226890 -0.0210975860 -1 0
-0.0786070690 -0.0191211140 -1 0
-0.0785648310 -0.0174572030 -1 0
-0.0783743480 -0.0162556020 -1 0
-0.0780330820 -0.0156248740 -1 0
-0.0775589250 -0.0156210440 -1 0
-0.0769881690 -0.0162389010 -1 0
-0.0763706140 -0.0174090200 -1 0
-0.0757625330 -0.0190031210 -1 0
-0.0752185880 -0.0208466730 -1 0
-0.0747845140 -0.0227371100 -1 0
-0.0744922760 -0.0244673900 -1 0
-0.0743585620 -0.0258524400 -1 0
-0.0743862380 -0.0267520230 -1 0
-0.0745667630 -0.0270841430 -1 0
-0.0748811620 -0.0268285370 -1 0
-0.0752991650 -0.0260240620 -1 0
-0.0757786930 -0.0247626610 -1 0
-0.0762682000 -0.0231789040 -1 0
-0.0767120790 -0.0214341440 -1 0
-0.0770573850 -0.0196987220 -1 0
-0.0772601610 -0.0181368520 -1 0
-0.0772902690 -0.0168941150 -1 0
-0.0771339910 -0.0160855830 -1 0
-0.0767945940 -0.0157861920 -1 0
-0.0762920260 -0.0160257760 -1 0
-0.0756624210 -0.0167883300 -1 0
-0.0749570510 -0.0180144350 -1 0
-0.0742397800 -0.0196057930 -1 0
-0.0735821990 -0.0214309170 -1 0
-0.0730560190 -0.0233335520 -1 0
-0.0727236790 -0.0251455010 -1 0
-0.0726295170 -0.0267027900 -1 0
-0.0727938450 -0.0278632450 -1 0
-0.0732105860 -0.0285230490 -1 0
-0.0738474790 -0.0286294880 -1 0
-0.0746482690 -0.0281881730 -1 0
-0.0755373360 -0.0272631070 -1 0
-0.0764272800 -0.0259686630 -1 0
-0.0772290970 -0.0244555280 -1 0
-0.0778635240 -0.0228941460 -1 0
-0.0782712870 -0.0214576830 -1 0
-0.0784201070 -0.0203055590 -1 0
-0.0783077440 -0.0195686270 -1 0
-0.0779618600 -0.0193364430 -1 0
-0.0774369500 -0.0196466500 -1 0
-0.0768074100 -0.0204787740 -1 0
-0.0761567960 -0.0217563650 -1 0
-0.0755656910 -0.0233581430 -1 0
-0.0751017740 -0.0251342470 -1 0
-0.0748147770 -0.0269227780 -1 0
-0.0747361190 -0.0285640700 -1 0
-0.0748802070 -0.0299123620 -1 0
-0.0752453180 -0.0308458610 -1 -1
-0.0758145500 -0.0312765780 -1 -1
-0.0765575490 -0.0311602340 -1 -1
-0.0774319960 -0.0305038570 -1 -1
-0.0783841830 -0.0293671560 -1 0
-0.0793504720 -0.0278562490 -1 0
-0.0802619310 -0.0261123720 -1 0
-0.0810515080 -0.0242989300 -1 0
-0.0816610950 -0.0225880730 -1 0
-0.0820470290 -0.0211460290 -1 0
-0.0821841570 -0.0201167500 -1 0
-0.0820686080 -0.0196057380 -1 0
-0.0817187290 -0.0196675720 -1 0
-0.0811730870 -0.0202998500 -1 0
-0.0804854900 -0.0214441500 -1 0
-0.0797188780 -0.0229928460 -1 0
-0.0789398980 -0.0247998040 -1 0
-0.0782139600 -0.0266930840 -1 0
-0.0775998910 -0.0284891820 -1 0
-0.0771447640 -0.0300099460 -1 -1
-0.0768807940 -0.0311016810 -1 -1
-0.0768253240 -0.0316528830 -1 -1
-0.0769827340 -0.0316069160 -1 -1
-0.0773452460 -0.0309677670 -1 -1
-0.0778906700 -0.0297983630 -1 0
-0.0785789170 -0.0282124120 -1 0
-0.0793513470 -0.0263618850 -1 0
-0.0801353210 -0.0244219230 -1 0
-0.0808528250 -0.0225745580 -1 0
-0.0814301860 -0.0209922410 -1 0
-0.0818069300 -0.0198214790 -1 0
-0.0819437010 -0.0191676860 -1 0
-0.0818288250 -0.0190838980 -1 0
-0.0814816890 -0.0195655550 -1 0
-0.0809513950 -0.0205512860 -1 0
-0.0803105140 -0.0219285070 -1 0
-0.0796448960 -0.0235433200 -1 0
-0.0790415610 -0.0252148200 -1 0
-0.0785771160 -0.0267536780 -1 0
-0.0783085890 -0.0279833400 -1 0
-0.0782674840 -0.0287602570 -1 0
-0.0784569560 -0.0289889960 -1 0
-0.0788522050 -0.0286304080 -1 0
-0.0794047180 -0.0277039860 -1 0
-0.0800500020 -0.0262854960 -1 0
-0.0807162870 -0.0244994010 -1 0
-0.0813314930 -0.0225062590 -1 0
-0.0818280430 -0.0204867290 -1 0
-0.0821476070 -0.0186241810 -1 0
-0.0822473350 -0.0170874860 -1 0
-0.0821058160 -0.0160154410 -1 0
-0.0817258000 -0.0155042490 -1 0
-0.0811331120 -0.0155987890 -1 0
-0.0803730410 -0.0162874910 -1 0
-0.0795054610 -0.0175014050 -1 0
-0.0785991760 -0.0191195150 -1 0
-0.0777251200 -0.0209810910 -1 0
-0.0769482080 -0.0229027110 -1 0
-0.0763193480 -0.0246957100 -1 0
-0.0758698690 -0.0261811740 -1 0
-0.0756090160 -0.0272025450 -1 0
-0.0755240090 -0.0276379560 -1 0
-0.0755829270 -0.0274141040 -1 0
-0.0757403820 -0.0265193610 -1 0
-0.0759437120 -0.0250098000 -1 0
-0.0761372840 -0.0230049800 -1 0
-0.0762655150 -0.0206757380 -1 0
-0.0762768860 -0.0182258870 -1 0
-0.0761298540 -0.0158694400 -1 0
-0.0757998480 -0.0138078000 -1 0
-0.0752855390 -0.0122107080 -1 0
-0.0746116270 -0.0112013470 -1 0
-0.0738265350 -0.0108453580 -1 0
-0.0729957370 -0.0111449450 -1 0
-0.0721924000 -0.0120392800 -1 0
-0.0714873200 -0.0134105810 -1 0
-0.0709408930 -0.0150944490 -1 0
-0.0705992750 -0.0168953670 -1 0
-0.0704938200 -0.0186084440 -1 0
-0.0706408770 -0.0200436230 -1 0
-0.0710406650 -0.0210466050 -1 0
-0.0716764920 -0.0215142120 -1 0
-0.0725155440 -0.0214035280 -1 0
-0.0735111660 -0.0207339020 -1 0
-0.0746061300 -0.0195822740 -1 0
-0.0757362590 -0.0180736930 -1 0
-0.0768340880 -0.0163683630 -1 0
-0.0778329050 -0.0146467780 -1 0
-0.0786718180 -0.0130948200 -1 0
-0.0793024170 -0.0118889690 -1 0
-0.0796962340 -0.0111805480 -1 0
-0.0798498130 -0.0110793780 -1 0
-0.0797844730 -0.0116389620 -1 0
-0.0795411570 -0.0128461440 -1 0
-0.0791729040 -0.0146185450 -1 0
-0.0787375110 -0.0168113830 -1 0
-0.0782922770 -0.0192322360 -1 0
-0.0778910380 -0.0216609920 -1 0
-0.0775819840 -0.0238731730 -1 0
-0.0774049520 -0.0256644220 -1 0
-0.0773881680 -0.0268729550 -1 0
-0.0775447400 -0.0273971250 -1 0
-0.0778693950 -0.0272058790 -1 0
-0.0783362980 -0.0263404250 -1 0
-0.0788987980 -0.0249074910 -1 0
-0.0794923610 -0.0230665880 -1 0
-0.0800417380 -0.0210130250 -1 0
-0.0804711850 -0.0189574440 -1 0
-0.0807145330 -0.0171041900 -1 0
-0.0807226580 -0.0156322930 -1 0
-0.0804681720 -0.0146814250 -1 0
-0.0799486910 -0.0143425840 -1 0
-0.0791889230 -0.0146521130 -1 0
-0.0782398080 -0.0155881840 -1 0
-0.0771736310 -0.0170703340 -1 0
-0.0760765170 -0.0189636600 -1 0
-0.0750396370 -0.0210885500 -1 0
-0.0741490410 -0.0232362700 -1 0
-0.0734750050 -0.0251898930 -1 0
-0.0730635210 -0.0267477620 -1 0
-0.0729322920 -0.0277457980 -1 0
-0.0730716820 -0.0280762860 -1 0
-0.0734492550 -0.0276997480 -1 0
-0.0740159760 -0.0266460130 -1 0
-0.0747132050 -0.0250059050 -1 0
-0.0754794170 -0.0229198060 -1 0
-0.0762540000 -0.0205663460 -1 0
-0.0769771460 -0.0181489010 -1 0
-0.0775894350 -0.0158771950 -1 0
-0.0780353650 -0.0139457010 -1 0
-0.0782710400 -0.0125135850 -1 0
-0.0782730880 -0.0116894200 -1 0
-0.0780456900 -0.0115210450 -1 0
-0.0776231510 -0.0119908930 -1 0
-0.0770664020 -0.0130187530 -1 0
-0.0764541000 -0.0144732340 -1 0
-0.0758708080 -0.0161891020 -1 0
-0.0753948030 -0.0179857360 -1 0
-0.0750878700 -0.0196841040 -1 0
-0.0749886440 -0.0211220030 -1 0
-0.0751096020 -0.0221674420 -1 0
-0.0754371470 -0.0227295750 -1 0
-0.0759344190 -0.0227661190 -1 0
-0.0765460900 -0.0222865490 -1 0
-0.0772039800 -0.0213506700 -1 0
-0.0778329360 -0.0200617640 -1 0
-0.0783568800 -0.0185546080 -1 0
-0.0787047910 -0.0169810220 -1 0
-0.0788160370 -0.0154947080 -1 0
-0.0786440930 -0.0142351350 -1 0
-0.0781589590 -0.0133131540 -1 0
-0.0773501150 -0.0128033900 -1 0
-0.0762298590 -0.0127426080 -1 0
-0.0748339740 -0.0131279770 -1 0
-0.0732183620 -0.0139137690 -1 0
-0.0714539210 -0.0150114710 -1 0
-0.0696218490 -0.0162967180 -1 0
-0.0678090140 -0.0176210090 -1 0
-0.0661018270 -0.0188250180 -1 0
-0.0645777260 -0.0197528470 -1 0
-0.0632954100 -0.0202682620 -1 0
-0.0622868580 -0.0202719150 -1 0
-0.0615536140 -0.0197156800 -1 0
-0.0610680520 -0.0186112070 -1 0
-0.0607788400 -0.0170315500 -1 0
-0.0606185530 -0.0151052080 -1 0
-0.0605115570 -0.0130038130 -1 0
-0.0603818370 -0.0109251780 -1 0
-0.0601608460 -0.0090719800 -1 0
-0.0597948290 -0.0076279690 -1 0
-0.0592510070 -0.0067364410 -1 0
-0.0585220880 -0.0064853820 -1 0
-0.0576279180 -0.0069009000 -1 0
-0.0566134140 -0.0079477600 -1 0
-0.0555436340 -0.0095343910 -1 0
-0.0544970120 -0.0115213260 -1 0
-0.0535563170 -0.0137346190 -1 0
-0.0527974540 -0.0159849020 -1 0
-0.0522787460 -0.0180887040 -1 0
-0.0520340360 -0.0198865790 -1 0
-0.0520707740 -0.0212547140 -1 0
-0.0523720680 -0.0221106630 -1 0
-0.0529011760 -0.0224157140 -1 0
-0.0536071800 -0.0221754350 -1 0
-0.0544305280 -0.0214388550 -1 0
-0.0553073500 -0.0202960840 -1 0
-0.0561725210 -0.0188732290 -1 0
-0.0569626820 -0.0173231780 -1 0
-0.0576205840 -0.0158123760 -1 0
-0.0581006280 -0.0145053220 -1 0
-0.0583740370 -0.0135484120 -1 0
-0.0584321930 -0.0130536960 -1 0
-0.0582873580 -0.0130833490 -1 0
-0.0579705200 -0.0136382830 -1 0
-0.0575271230 -0.0146557180 -1 0
-0.0570116110 -0.0160176820 -1 0
-0.0564811950 -0.0175678490 -1 0
-0.0559894050 -0.0191321440 -1 0
-0.0555802320 -0.0205392700 -1 0
-0.0552834880 -0.0216387260 -1 0
-0.0551121120 -0.0223143420 -1 0
-0.0550623870 -0.0224923410 -1 0
-0.0551177930 -0.0221447660 -1 0
-0.0552547610 -0.0212897920 -1 0
-0.0554462340 -0.0199900780 -1 0
-0.0556612360 -0.0183496730 -1 0
-0.0558634120 -0.0165082900 -1 0
-0.0560120650 -0.0146310370 -1 0
-0.0560659200 -0.0128937370 -1 0
-0.0559878860 -0.0114659670 -1 0
-0.0557496900 -0.0104936580 -1 0
-0.0553365770 -0.0100828080 -1 0
-0.0547525190 -0.0102865240 -1 0
-0.0540250530 -0.0110974550 -1 0
-0.0532074700 -0.0124468240 -1 0
-0.0523764180 -0.0142105590 -1 0
-0.0516242580 -0.0162221080 -1 0
-0.0510467120 -0.0182902330 -1 0
-0.0507280210 -0.0202192390 -1 0
-0.0507276210 -0.0218290480 -1 0
-0.0510719710 -0.0229729010 -1 0
-0.0517522800 -0.0235511800 -1 0
-0.0527265660 -0.0235206590 -1 0
-0.0539244190 -0.0228989750 -1 0
-0.0552534330 -0.0217639480 -1 0
-0.0566068740 -0.0202471910 -1 0
-0.0578732700 -0.0185216710 -1 0
-0.0589485630 -0.0167838570 -1 0
-0.0597497110 -0.0152327250 -1 0
-0.0602264150 -0.0140487240 -1 0
-0.0603666720 -0.0133751230 -1 0
-0.0601943810 -0.0133031880 -1 0
-0.0597617790 -0.0138620590 -1 0
-0.0591406430 -0.0150144150 -1 0
-0.0584139990 -0.0166596310 -1 0
-0.0576685710 -0.0186455810 -1 0
-0.0569878340 -0.0207877880 -1 0
-0.0564451340 -0.0228922440 -1 0
-0.0560965410 -0.0247774610 -1 0
-0.0559747460 -0.0262918350 -1 0
-0.0560861040 -0.0273243070 -1 0
-0.0564113840 -0.0278089380 -1 0
-0.0569087490 -0.0277255890 -1 0
-0.0575176030 -0.0270989890 -1 0
-0.0581632770 -0.0259972220 -1 0
-0.0587632750 -0.0245286270 -1 0
-0.0592355090 -0.0228352020 -1 0
-0.0595079480 -0.0210814500 -1 0
-0.0595279210 -0.0194396390 -1 0
-0.0592690260 -0.0180740340 -1 0
-0.0587346570 -0.0171259570 -1 0
-0.0579577390 -0.0167000520 -1 0
-0.0569961710 -0.0168523100 -1 0
-0.0559247460 -0.0175819970 -1 0
-0.0548255660 -0.0188299380 -1 0
-0.0537785590 -0.0204832540 -1 0
-0.0528537770 -0.0223843720 -1 0
-0.0521078530 -0.0243431610 -1 0
-0.0515846870 -0.0261529180 -1 0
-0.0513164000 -0.0276102120 -1 0
-0.0513204580 -0.0285368940 -1 0
-0.0515934020 -0.0288024750 -1 0
-0.0521059830 -0.0283435580 -1 0
-0.0528041330 -0.0271739610 -1 0
-0.0536158540 -0.0253809760 -1 0
-0.0544601780 -0.0231101910 -1 0
-0.0552542670 -0.0205455900 -1 0
-0.0559179600 -0.0178907040 -1 0
-0.0563781510 -0.0153522110 -1 0
-0.0565752580 -0.0131230660 -1 0
-0.0564718140 -0.0113640990 -1 0
-0.0560611630 -0.0101882800 -1 0
-0.0553726680 -0.0096516910 -1 0
-0.0544699950 -0.0097513430 -1 0
-0.0534421130 -0.0104282800 -1 0
-0.0523898650 -0.0115738720 -1 0
-0.0514118640 -0.0130384490 -1 0
-0.0505932810 -0.0146443640 -1 0
-0.0499998120 -0.0162042550 -1 0
-0.0496760540 -0.0175409340 -1 0
-0.0496454320 -0.0185050770 -1 0
-0.0499097330 -0.0189897700 -1 0
-0.0504481560 -0.0189414530 -1 0
-0.0512171310 -0.0183655080 -1 0
-0.0521526490 -0.0173244420 -1 0
-0.0531756620 -0.0159284910 -1 0
-0.0541990970 -0.0143214940 -1 0
-0.0551348890 -0.0126658900 -1 0
-0.0559011170 -0.0111288860 -1 0
-0.0564299460 -0.0098699960 -1 0
-0.0566755390 -0.0090294060 -1 0
-0.0566198540 -0.0087162620 -1 0
-0.0562745110 -0.0089968260 -1 0
-0.0556780790 -0.0098843240 -1 0
-0.0548897990 -0.0113333270 -1 0
-0.0539814450 -0.0132411520 -1 0
-0.0530289050 -0.0154570550 -1 0
-0.0521057440 -0.0177978770 -1 0
-0.0512803110 -0.0200677490 -1 0
-0.0506142610 -0.0220792510 -1 0
-0.0501585550 -0.0236726340 -1 0
-0.0499463560 -0.0247300520 -1 0
-0.0499861810 -0.0251845010 -1 0
-0.0502587550 -0.0250251170 -1 0
-0.0507186100 -0.0242990380 -1 0
-0.0512996250 -0.0231082280 -1 0
-0.0519234250 -0.0216002010 -1 0
-0.0525092540 -0.0199530940 -1 0
-0.0529833310 -0.0183567900 -1 0
-0.0532863040 -0.0169930890 -1 0
-0.0533785490 -0.0160182440 -1 0
-0.0532433030 -0.0155487410 -1 0
-0.0528875960 -0.0156489610 -1 0
-0.0523411520 -0.0163212170 -1 0
-0.0516530300 -0.0175020680 -1 0
-0.0508858180 -0.0190680050 -1 0
-0.0501088670 -0.0208495290 -1 0
-0.0493927070 -0.0226501570 -1 0
-0.0488042260 -0.0242674190 -1 0
-0.0484001300 -0.0255142480 -1 0
-0.0482185870 -0.0262396050 -1 0
-0.0482723380 -0.0263465010 -1 0
-0.0485462510 -0.0258048940 -1 0
-0.0489995620 -0.0246571460 -1 0
-0.0495716310 -0.0230140680 -1 0
-0.0501903680 -0.0210405610 -1 0
-0.0507818730 -0.0189330310 -1 0
-0.0512787470 -0.0168941870 -1 0
-0.0516254490 -0.0151112020 -1 0
-0.0517810890 -0.0137404840 -1 0
-0.0517209680 -0.0128980570 -1 0
-0.0514381050 -0.0126526940 -1 0
-0.0509450150 -0.0130214850 -1 0
-0.0502749060 -0.0139698790 -1 0
-0.0494813710 -0.0154158850 -1 0
-0.0486353590 -0.0172358650 -1 0
-0.0478180630 -0.0192717720 -1 0
-0.0471103910 -0.0213421760 -1 0
-0.0465816200 -0.0232579600 -1 0
-0.0462796500 -0.0248407730 -1 0
-0.0462242800 -0.0259409830 -1 0
-0.0464045350 -0.0264516830 -1 0
-0.0467813880 -0.0263163280 -1 0
-0.0472965220 -0.0255309230 -1 0
-0.0478847340 -0.0241438140 -1 0
-0.0484846360 -0.0222537620 -1 0
-0.0490435470 -0.0200053670 -1 0
-0.0495170320 -0.0175810490 -1 0
-0.0498672900 -0.0151865530 -1 0
-0.0500644600 -0.0130290080 -1 0
-0.0500918010 -0.0112936910 -1 0
-0.0499516850 -0.0101250940 -1 0
-0.0496680380 -0.0096128980 -1 0
-0.0492841850 -0.0097838680 -1 0
-0.0488588940 -0.0106003780 -1 0
-0.0484621280 -0.0119631750 -1 0
-0.0481685730 -0.0137177860 -1 0
-0.0480475600 -0.0156683210 -1 0
-0.0481512190 -0.0175995530 -1 0
-0.0485047380 -0.0193024560 -1 0
-0.0491029060 -0.0205983200 -1 0
-0.0499142310 -0.0213583900 -1 0
-0.0508889710 -0.0215169020 -1 0
-0.0519664730 -0.0210767630 -1 0
-0.0530808710 -0.0201068580 -1 0
-0.0541663480 -0.0187300840 -1 0
-0.0551620170 -0.0171047340 -1 0
-0.0560155900 -0.0154049840 -1 0
-0.0566859620 -0.0138043900 -1 0
-0.0571458100 -0.0124618090 -1 0
-0.0573845200 -0.0115081680 -1 0
-0.0574106270 -0.0110347320 -1 0
-0.0572528280 -0.0110843820 -1 0
-0.0569589960 -0.0116466570 -1 0
-0.0565924330 -0.0126574060 -1 0
-0.0562247930 -0.0140045260 -1 0
-0.0559262310 -0.0155400620 -1 0
-0.0557554450 -0.0170969000 -1 0
-0.0557530410 -0.0185073610 -1 0
-0.0559395410 -0.0196211710 -1 0
-0.0563162850 -0.0203206340 -1 0
-0.0568667450 -0.0205311900 -1 0
-0.0575573810 -0.0202262600 -1 0
-0.0583389300 -0.0194265420 -1 0
-0.0591493950 -0.0181955230 -1 0
-0.0599191770 -0.0166331770 -1 0
-0.0605783480 -0.0148686600 -1 0
-0.0610655130 -0.0130517660 -1 0
-0.0613361860 -0.0113424130 -1 0
-0.0613678200 -0.0098975350 -1 0
-0.0611604920 -0.0088558940 -1 0
-0.0607342750 -0.0083226890 -1 0
-0.0601245970 -0.0083565390 -1 0
-0.0593766560 -0.0089610860 -1 0
-0.0585401660 -0.0100821770 -1 0
-0.0576655360 -0.0116107640 -1 0
-0.0568014240 -0.0133918190 -1 0
-0.0559928940 -0.0152391450 -1 0
-0.0552799490 -0.0169546320 -1 0
-0.0546964680 -0.0183498520 -1 0
-0.0542687080 -0.0192675760 -1 0
-0.0540127810 -0.0196005970 -1 0
-0.0539320600 -0.0193050180 -1 0
-0.0540159990 -0.0184056050 -1 0
-0.0542409610 -0.0169924410 -1 0
-0.0545721250 -0.0152102170 -1 0
-0.0549655850 -0.0132421830 -1 0
-0.0553711150 -0.0112904900 -1 0
-0.0557362620 -0.0095549990 -1 0
-0.0560109530 -0.0082136820 -1 0
-0.0561514850 -0.0074068100 -1 0
-0.0561242540 -0.0072244480 -1 0
-0.0559103440 -0.0076969200 -1 0
-0.0555102730 -0.0087908240 -1 0
-0.0549460280 -0.0104132230 -1 0
-0.0542586140 -0.0124227290 -1 0
-0.0535025960 -0.0146431120 -1 0
-0.0527402500 -0.0168769120 -1 0
-0.0520363890 -0.0189209600 -1 0
-0.0514532960 -0.0205855730 -1 0
-0.0510446180 -0.0217144610 -1 0
-0.0508481990 -0.0222008070 -1 0
-0.0508797340 -0.0219975270 -1 0
-0.0511292630 -0.0211214870 -1 0
-0.0515609440 -0.0196521850 -1 0
-0.0521155450 -0.0177261440 -1 0
-0.0527152540 -0.0155266080 -1 0
-0.0532715360 -0.0132657800 -1 0
-0.0536966380 -0.0111595820 -1 0
-0.0539169470 -0.0094013270 -1 0
-0.0538842990 -0.0081425360 -1 0
-0.0535819080 -0.0074835490 -1 0
-0.0530241330 -0.0074703540 -1 0
-0.0522515230 -0.0080936910 -1 0
-0.0513232280 -0.0092897360 -1 0
-0.0503083150 -0.0109435820 -1 0
-0.0492774660 -0.0128969060 -1 0
-0.0482968150 -0.0149606890 -1 0
-0.0474244950 -0.0169327200 -1 0
-0.0467084180 -0.0186180580 -1 0
-0.0461834200 -0.0198495020 -1 0
-0.0458676710 -0.0205053340 -1 0
-0.0457593260 -0.0205227670 -1 0
-0.0458344730 -0.0199065400 -1 0
-0.0460479420 -0.0187310370 -1 0
-0.0463386370 -0.0171329150 -1 0
-0.0466388830 -0.0152940700 -1 0
-0.0468845510 -0.0134191810 -1 0
-0.0470230310 -0.0117122400 -1 0
-0.0470185670 -0.0103541410 -1 0
-0.0468557150 -0.0094832120 -1 0
-0.0465413370 -0.0091822200 -1 0
-0.0461047780 -0.0094744480 -1 0
-0.0455949270 -0.0103276680 -1 0
-0.0450735830 -0.0116624450 -1 0
-0.0446070960 -0.0133618150 -1 0
-0.0442590800 -0.0152807240 -1 0
-0.0440848470 -0.0172549840 -1 0
-0.0441268530 -0.0191113520 -1 0
-0.0444110240 -0.0206809630 -1 0
-0.0449442760 -0.0218160370 -1 0
-0.0457129960 -0.0224075050 -1 0
-0.0466823760 -0.0224005100 -1 0
-0.0477973320 -0.0218039880 -1 0
-0.0489859930 -0.0206907370 -1 0
-0.0501656770 -0.0191882290 -1 0
-0.0512505470 -0.0174641790 -1 0
-0.0521600580 -0.0157099880 -1 0
-0.0528273230 -0.0141215930 -1 0
-0.0532063200 -0.0128774480 -1 0
-0.0532769290 -0.0121179320 -1 0
-0.0530474460 -0.0119316960 -1 0
-0.0525548560 -0.0123482860 -1 0
-0.0518625180 -0.0133329370 -1 0
-0.0510542240 -0.0147851280 -1 0
-0.0502244430 -0.0165462850 -1 0
-0.0494665270 -0.0184182080 -1 0
-0.0488617520 -0.0201886990 -1 0
-0.0484711180 -0.0216581840 -1 0
-0.0483302740 -0.0226626180 -1 0
-0.0484480290 -0.0230915120 -1 0
-0.0488086920 -0.0228990690 -1 0
-0.0493766760 -0.0221050230 -1 0
-0.0501016220 -0.0207860150 -1 0
-0.0509237740 -0.0190630440 -1 0
-0.0517789160 -0.0170894010 -1 0
-0.0526012320 -0.0150392450 -1 0
-0.0533242410 -0.0130945710 -1 0
-0.0538827660 -0.0114291820 -1 0
-0.0542186970 -0.0101915520 -1 0
-0.0542896550 -0.0094914250 -1 0
-0.0540763740 -0.0093930880 -1 0
-0.0535854830 -0.0099131670 -1 0
-0.0528482370 -0.0110198470 -1 0
-0.0519174620 -0.0126335690 -1 0
-0.0508630440 -0.0146304830 -1 0
-0.0497653420 -0.0168493460 -1 0
-0.0487075970 -0.0191027600 -1 0
-0.0477689130 -0.0211935710 -1 0
-0.0470179350 -0.0229349950 -1 0
-0.0465065690 -0.0241703040 -1 0
-0.0462642060 -0.0247887870 -1 0
-0.0462937300 -0.0247376270 -1 0
-0.0465703130 -0.0240289930 -1 0
-0.0470435850 -0.0227394920 -1 0
-0.0476431830 -0.0210006740 -1 0
-0.0482871400 -0.0189831990 -1 0
-0.0488926790 -0.0168785850 -1 0
-0.0493884370 -0.0148805180 -1 0
-0.0497252820 -0.0131664930 -1 0
-0.0498821810 -0.0118815390 -1 0
-0.0498659360 -0.0111260310 -1 0
-0.0497065340 -0.0109477800 -1 0
-0.0494505110 -0.0113379490 -1 0
-0.0491537740 -0.0122316310 -1 0
-0.0488747210 -0.0135141700 -1 0
-0.0486682090 -0.0150329340 -1 0
-0.0485797110 -0.0166132460 -1 0
-0.0486387480 -0.0180770150 -1 0
-0.0488530950 -0.0192624010 -1 0
-0.0492070410 -0.0200417160 -1 0
-0.0496650410 -0.0203343910 -1 0
-0.0501789380 -0.0201131810 -1 0
-0.0506958690 -0.0194036140 -1 0
-0.0511650820 -0.0182782460 -1 0
-0.0515429020 -0.0168479360 -1 0
-0.0517951180 -0.0152517050 -1 0
-0.0518963460 -0.0136457700 -1 0
-0.0518273360 -0.0121916950 -1 0
-0.0515720190 -0.0110428290 -1 0
-0.0511159130 -0.0103293000 -1 0
-0.0504476680 -0.0101442300 -1 0
-0.0495651510 -0.0105329550 -1 0
-0.0484846050 -0.0114851830 -1 0
-0.0472483300 -0.0129315330 -1 0
-0.0459259550 -0.0147474400 -1 0
-0.0446068120 -0.0167654690 -1 0
-0.0433854260 -0.0187939080 -1 0
-0.0423460250 -0.0206376020 -1 0
-0.0415516190 -0.0221178470 -1 0
-0.0410390880 -0.0230904580 -1 0
-0.0408186110 -0.0234617380 -1 0
-0.0408756040 -0.0232001480 -1 0
-0.0411741440 -0.0223399570 -1 0
-0.0416613320 -0.0209750170 -1 0
-0.0422721540 -0.0192454470 -1 0
-0.0429348980 -0.0173223460 -1 0
-0.0435779520 -0.0153928990 -1 0
-0.0441380010 -0.0136446150 -1 0
-0.0445675840 -0.0122476640 -1 0
-0.0448393850 -0.0113373160 -1 0
-0.0449464400 -0.0109996440 -1 0
-0.0448996330 -0.0112624390 -1 0
-0.0447241370 -0.0120920380 -1 0
-0.0444558330 -0.0133965040 -1 0
-0.0441387920 -0.0150354220 -1 0
-0.0438239980 -0.0168362470 -1 0
-0.0435671550 -0.0186149250 -1 0
-0.0434233790 -0.0201955150 -1 0
-0.0434393220 -0.0214251530 -1 0
-0.0436450250 -0.0221841350 -1 0
-0.0440467120 -0.0223892590 -1 0
-0.0446211690 -0.0219908150 -1 0
-0.0453148480 -0.0209741410 -1 0
-0.0460513550 -0.0193725960 -1 0
-0.0467455110 -0.0172790680 -1 0
-0.0473175110 -0.0148418790 -1 0
-0.0477030560 -0.0122490470 -1 0
-0.0478594240 -0.0097111110 -1 0
-0.0477678240 -0.0074446150 -1 0
-0.0474321580 -0.0056533460 -1 0
-0.0468754620 -0.0045066330 -1 0
-0.0461359760 -0.0041179350 -1 0
-0.0452644460 -0.0045281560 -1 0
-0.0443232090 -0.0056974110 -1 0
-0.0433850440 -0.0075081550 -1 0
-0.0425280570 -0.0097802100 -1 0
-0.0418261280 -0.0122945880 -1 0
-0.0413394990 -0.0148205690 -1 0
-0.0411097440 -0.0171407390 -1 0
-0.0411585860 -0.0190711630 -1 0
-0.0414874480 -0.0204760100 -1 0
-0.0420765320 -0.0212768710 -1 0
-0.0428846950 -0.0214575040 -1 0
-0.0438514880 -0.0210639640 -1 0
-0.0449020530 -0.0201983880 -1 0
-0.0459551930 -0.0190058790 -1 0
-0.0469330880 -0.0176570030 -1 0
-0.0477692440 -0.0163295370 -1 0
-0.0484127210 -0.0151918090 -1 0
-0.0488297030 -0.0143879940 -1 0
-0.0490046480 -0.0140252160 -1 0
-0.0489421300 -0.0141633260 -1 0
-0.0486683870 -0.0148089420 -1 0
-0.0482301520 -0.0159144990 -1 0
-0.0476891590 -0.0173823070 -1 0
-0.0471139410 -0.0190739560 -1 0
-0.0465723950 -0.0208246120 -1 0
-0.0461265660 -0.0224600500 -1 0
-0.0458287400 -0.0238137140 -1 0
-0.0457184460 -0.0247421730 -1 0
-0.0458205870 -0.0251386120 -1 0
-0.0461439860 -0.0249439700 -1 0
-0.0466792570 -0.0241545380 -1 0
-0.0473963290 -0.0228244750 -1 0
-0.0482437160 -0.0210618750 -1 0
-0.0491515980 -0.0190181170 -1 0
-0.0500389910 -0.0168722450 -1 0
-0.0508235020 -0.0148135790 -1 0
-0.0514315690 -0.0130249060 -1 0
-0.0518073150 -0.0116666130 -1 0
-0.0519185490 -0.0108617630 -1 0
-0.0517591140 -0.0106839890 -1 0
-0.0513480790 -0.0111504870 -1 0
-0.0507276880 -0.0122199790 -1 0
-0.0499614560 -0.0137945300 -1 0
-0.0491309850 -0.0157258380 -1 0
-0.0483293400 -0.0178274420 -1 0
-0.0476508690 -0.0198927450 -1 0
-0.0471790080 -0.0217171430 -1 0
-0.0469741860 -0.0231210060 -1 0
-0.0470645030 -0.0239703000 -1 0
-0.0474413060 -0.0241929350 -1 0
-0.0480604760 -0.0237881740 -1 0
-0.0488497140 -0.0228248580 -1 0
-0.0497211930 -0.0214271330 -1 0
-0.0505860280 -0.0197524660 -1 0
-0.0513654740 -0.0179698690 -1 0
-0.0519963910 -0.0162439280 -1 0
-0.0524317520 -0.0147248750 -1 0
-0.0526383110 -0.0135402640 -1 0
-0.0525944470 -0.0127847160 -1 0
-0.0522908590 -0.0125096240 -1 0
-0.0517342850 -0.0127171250 -1 0
-0.0509519400 -0.0133603230 -1 0
-0.0499937390 -0.0143499430 -1 0
-0.0489303050 -0.0155661310 -1 0
-0.0478461100 -0.0168721070 -1 0
-0.0468285100 -0.0181266240 -1 0
-0.0459548360 -0.0191948760 -1 0
-0.0452809010 -0.0199589470 -1 0
-0.0448344030 -0.0203282580 -1 0
-0.0446145570 -0.0202491100 -1 0
-0.0445964830 -0.0197118430 -1 0
-0.0447376170 -0.0187541560 -1 0
-0.0449838960 -0.0174592610 -1 0
-0.0452744720 -0.0159482840 -1 0
-0.0455454970 -0.0143674840 -1 0
-0.0457346690 -0.0128719920 -1 0
-0.0457874680 -0.0116089640 -1 0
-0.0456645150 -0.0107029220 -1 0
-0.0453481650 -0.0102441680 -1 0
-0.0448457460 -0.0102807080 -1 0
-0.0441877530 -0.0108151320 -1 0
-0.0434213590 -0.0118063670 -1 0
-0.0426011900 -0.0131730730 -1 0
-0.0417803470 -0.0147963950 -1 0
-0.0410045350 -0.0165246420 -1 0
-0.0403099940 -0.0181844920 -1 0
-0.0397239360 -0.0195999250 -1 0
-0.0392659790 -0.0206153170 -1 0
-0.0389493040 -0.0211168700 -1 0
-0.0387805000 -0.0210474450 -1 0
-0.0387583090 -0.0204124700 -1 0
-0.0388721080 -0.0192774600 -1 0
-0.0391008910 -0.0177594210 -1 0
-0.0394136730 -0.0160135220 -1 0
-0.0397714620 -0.0142150430 -1 0
-0.0401298950 -0.0125383860 -1 0
-0.0404425290 -0.0111373300 -1 0
-0.0406657490 -0.0101298060 -1 0
-0.0407648210 -0.0095885660 -1 0
-0.0407188970 -0.0095384160 -1 0
-0.0405234320 -0.0099587930 -1 0
-0.0401903800 -0.0107883910 -1 0
-0.0397474610 -0.0119303740 -1 0
-0.0392367390 -0.0132600750 -1 0
-0.0387111910 -0.0146362690 -1 0
-0.0382280920 -0.0159129840 -1 0
-0.0378401830 -0.0169493050 -1 0
-0.0375876510 -0.0176199230 -1 0
-0.0374934800 -0.0178297650 -1 0
-0.0375622160 -0.0175298670 -1 0
-0.0377801030 -0.0167277570 -1 0
-0.0381151390 -0.0154880050 -1 0
-0.0385178660 -0.0139243580 -1 0
-0.0389248120 -0.0121878830 -1 0
-0.0392653190 -0.0104521470 -1 0
-0.0394703190 -0.0088942820 -1 0
-0.0394810050 -0.0076754370 -1 0
-0.0392566800 -0.0069260640 -1 0
-0.0387816190 -0.0067365290 -1 0
-0.0380698030 -0.0071498150 -1 0
-0.0371653080 -0.0081549560 -1 0
-0.0361367160 -0.0096838090 -1 0
-0.0350668850 -0.0116146760 -1 0
-0.0340418880 -0.0137837360 -1 0
-0.0331421620 -0.0160026270 -1 0
-0.0324361360 -0.0180794020 -1 0
-0.0319747530 -0.0198391710 -1 0
-0.0317857070 -0.0211404720 -1 0
-0.0318685730 -0.0218856230 -1 0
-0.0321940520 -0.0220266530 -1 0
-0.0327090980 -0.0215692270 -1 0
-0.0333458810 -0.0205742940 -1 0
-0.0340312980 -0.0191548520 -1 0
-0.0346952470 -0.0174660600 -1 0
-0.0352770220 -0.0156891430 -1 0
-0.0357297370 -0.0140120150 -1 0
-0.0360234420 -0.0126106280 -1 0
-0.0361472840 -0.0116331080 -1 0
-0.0361095800 -0.0111863150 -1 0
-0.0359347810 -0.0113248460 -1 0
-0.0356587160 -0.0120446760 -1 0
-0.0353245860 -0.0132836990 -1 0
-0.0349801650 -0.0149289710 -1 0
-0.0346747900 -0.0168289350 -1 0
-0.0344553020 -0.0188092430 -1 0
-0.0343614330 -0.0206904290 -1 0
-0.0344212990 -0.0223053670 -1 0
-0.0346475360 -0.0235150710 -1 0
-0.0350349460 -0.0242216800 -1 0
-0.0355605960 -0.0243771590 -1 0
-0.0361863610 -0.0239868240 -1 0
-0.0368628930 -0.0231077500 -1 0
-0.0375342900 -0.0218423500 -1 0
-0.0381433780 -0.0203274910 -1 0
-0.0386373260 -0.0187207350 -1 0
-0.0389729570 -0.0171866640 -1 0
-0.0391213360 -0.0158848510 -1 0
-0.0390709590 -0.0149576160 -1 0
-0.0388281740 -0.0145155160 -1 0
-0.0384144890 -0.0146225880 -1 0
-0.0378626800 -0.0152862050 -1 0
-0.0372139790 -0.0164552050 -1 0
-0.0365164640 -0.0180264240 -1 0
-0.0358228280 -0.0198561230 -1 0
-0.0351863030 -0.0217724700 -1 0
-0.0346551280 -0.0235884640 -1 0
-0.0342667410 -0.0251177740 -1 0
-0.0340427240 -0.0261951940 -1 0
-0.0339860100 -0.0266988150 -1 0
-0.0340820100 -0.0265672260 -1 0
-0.0343035000 -0.0258065930 -1 0
-0.0346164960 -0.0244874320 -1 0
-0.0349842080 -0.0227348150 -1 0
-0.0353684070 -0.0207155130 -1 0
-0.0357294680 -0.0186226130 -1 0
-0.0360271050 -0.0166572430 -1 0
-0.0362235470 -0.0150091540 -1 0
-0.0362893520 -0.0138385150 -1 0
-0.0362093780 -0.0132601090 -1 0
-0.0359857650 -0.0133309750 -1 0
-0.0356375770 -0.0140437080 -1 0
-0.0351988820 -0.0153270870 -1 0
-0.0347158430 -0.0170530770 -1 0
-0.0342418100 -0.0190487880 -1 0
-0.0338304580 -0.0211138860 -1 0
-0.0335288340 -0.0230429890 -1 0
-0.0333719800 -0.0246494880 -1 0
-0.0333795740 -0.0257861580 -1 0
-0.0335546920 -0.0263582610 -1 0
-0.0338850200 -0.0263270710 -1 0
-0.0343458620 -0.0257067230 -1 0
-0.0349030050 -0.0245591600 -1 0
-0.0355141360 -0.0229888030 -1 0
-0.0361292590 -0.0211355120 -1 0
-0.0366915240 -0.0191622690 -1 0
-0.0371396440 -0.0172354850 -1 0
-0.0374129570 -0.0155053390 -1 0
-0.0374596930 -0.0140961770 -1 0
-0.0372470190 -0.0131040340 -1 0
-0.0367696640 -0.0125918670 -1 0
-0.0360540970 -0.0125821310 -1 0
-0.0351570390 -0.0130527230 -1 0
-0.0341589650 -0.0139389550 -1 0
-0.0331541060 -0.0151396910 -1 0
-0.0322387560 -0.0165260520 -1 0
-0.0314999690 -0.0179535050 -1 0
-0.0310064750 -0.0192768540 -1 0
-0.0308029870 -0.0203647850 -1 0
-0.0309078200 -0.0211115340 -1 0
-0.0313126720 -0.0214458750 -1 0
-0.0319839350 -0.0213373290 -1 0
-0.0328660180 -0.0207985430 -1 0
-0.0338866380 -0.0198840790 -1 0
-0.0349629600 -0.0186863190 -1 0
-0.0360076660 -0.0173275070 -1 0
-0.0369353070 -0.0159473420 -1 0
-0.0376701930 -0.0146886440 -1 0
-0.0381561040 -0.0136840090 -1 0
-0.0383652760 -0.0130443620 -1 0
-0.0383030630 -0.0128490740 -1 0
-0.0380072310 -0.0131369300 -1 0
-0.0375435460 -0.0138979130 -1 0
-0.0369983980 -0.0150679680 -1 0
-0.0364672260 -0.0165303130 -1 0
-0.0360393020 -0.0181256340 -1 0
-0.0357827340 -0.0196706420 -1 0
-0.0357341010 -0.0209822530 -1 0
-0.0358950250 -0.0219034590 -1 0
-0.0362351490 -0.0223256590 -1 0
-0.0366991810 -0.0222020640 -1 0
-0.0372163290 -0.0215496540 -1 0
-0.0377115780 -0.0204415050 -1 0
-0.0381166590 -0.0189933470 -1 0
-0.0383765410 -0.0173478940 -1 0
-0.0384500620 -0.0156595990 -1 0
-0.0383083500 -0.0140813980 -1 0
-0.0379355600 -0.0127535970 -1 0
-0.0373321680 -0.0117937480 -1 0
-0.0365170200 -0.0112867780 -1 0
-0.0355247290 -0.0112762340 -1 0
-0.0343994010 -0.0117580730 -1 0
-0.0331887590 -0.0126783390 -1 0
-0.0319411710 -0.0139369540 -1 0
-0.0307048610 -0.0153989430 -1 0
-0.0295275460 -0.0169113300 0 0
-0.0284551600 -0.0183217000 0 0
-0.0275287870 -0.0194943400 0 0
-0.0267795970 -0.0203212020 0 0
-0.0262231410 -0.0207280980 0 0
-0.0258555830 -0.0206790140 0 0
-0.0256535590 -0.0201797430 0 0
-0.0255771510 -0.0192790000 0 0
-0.0255749950 -0.0180651870 0 0
-0.0255913040 -0.0166584520 0 0
-0.0255741910 -0.0151983310 0 0
-0.0254828040 -0.0138292440 0 0
-0.0252901960 -0.0126877600 0 0
-0.0249816700 -0.0118929990 0 0
-0.0245516290 -0.0115380750 0 0
-0.0240017600 -0.0116806540 0 0
-0.0233409860 -0.0123332860 0 0
-0.0225863680 -0.0134569250 0 0
-0.0217641010 -0.0149614330 0 0
-0.0209096570 -0.0167133480 0 0
-0.0200663880 -0.0185488770 0 0
-0.0192826780 -0.0202906670 0 0
-0.0186081970 -0.0217668780 0 0
-0.0180891100 -0.0228298600 0 0
-0.0177612420 -0.0233715480 0 0
-0.0176418120 -0.0233338870 0 0
-0.0177233300 -0.0227144240 0 0
-0.0179735350 -0.0215678300 0 0
-0.0183420920 -0.0200024150 0 0
-0.0187709870 -0.0181701550 0 0
-0.0192040700 -0.0162507640 0 0
-0.0195932530 -0.0144322880 0 0
-0.0199022430 -0.0128915320 0 0
-0.0201092700 -0.0117770350 0 0
-0.0202089790 -0.0111953860 0 0
-0.0202129670 -0.0112008510 0 0
-0.0201489270 -0.0117896500 0 0
-0.0200588180 -0.0129007970 0 0
-0.0199961220 -0.0144228920 0 0
-0.0200213160 -0.0162045370 0 0
-0.0201948360 -0.0180675240 0 0
-0.0205686450 -0.0198232830 0 0
-0.0211792520 -0.0212915860 0 0
-0.0220446860 -0.0223181840 0 0
-0.0231656370 -0.0227884130 0 0
-0.0245284950 -0.0226368510 0 0
-0.0261075730 -0.0218547720 0 0
-0.0278654320 -0.0204950450 0 0
-0.0297519380 -0.0186711230 0 0
-0.0317032950 -0.0165468500 -1 0
-0.0336430140 -0.0143175220 -1 0
-0.0354866630 -0.0121870300 -1 0
-0.0371502760 -0.0103464780 -1 0
-0.0385602510 -0.0089564910 -1 0
-0.0396627050 -0.0081327320 -1 0
-0.0404306310 -0.0079341910 -1 0
-0.0408666730 -0.0083554740 -1 0
-0.0410000220 -0.0093258870 -1 0
-0.0408790790 -0.0107165060 -1 0
-0.0405640680 -0.0123535840 -1 0
-0.0401225640 -0.0140368660 -1 0
-0.0396267880 -0.0155616960 -1 0
-0.0391492220 -0.0167417400 -1 0
-0.0387549020 -0.0174283260 -1 0
-0.0384919940 -0.0175237900 -1 0
-0.0383839650 -0.0169878400 -1 0
-0.0384264310 -0.0158389950 -1 0
-0.0385902240 -0.0141546510 -1 0
-0.0388292390 -0.0120693720 -1 0
-0.0390891030 -0.0097666950 -1 0
-0.0393135380 -0.0074610920 -1 0
-0.0394488070 -0.0053721630 -1 0
-0.0394490810 -0.0036980630 -1 0
-0.0392841770 -0.0025954410 -1 0
-0.0389472510 -0.0021685670 -1 0
-0.0384583040 -0.0024653860 -1 0
-0.0378616800 -0.0034772210 -1 0
-0.0372191580 -0.0051402640 -1 0
-0.0366014280 -0.0073381970 -1 0
-0.0360797580 -0.0099073220 -1 0
-0.0357182510 -0.0126469860 -1 0
-0.0355664090 -0.0153366250 -1 0
-0.0356523210 -0.0177583560 -1 0
-0.0359780830 -0.0197217130 -1 0
-0.0365190880 -0.0210848900 -1 0
-0.0372274980 -0.0217675740 -1 0
-0.0380387460 -0.0217550330 -1 0
-0.0388793720 -0.0210965250 -1 0
-0.0396747100 -0.0198999600 -1 0
-0.0403551550 -0.0183216940 -1 0
-0.0408602690 -0.0165499400 -1 0
-0.0411414630 -0.0147833090 -1 0
-0.0411650060 -0.0132091330 -1 0
-0.0409162130 -0.0119856390 -1 0
-0.0404039320 -0.0112288850 -1 0
-0.0396633940 -0.0110040400 -1 0
-0.0387552040 -0.0113217070 -1 0
-0.0377586240 -0.0121397130 -1 0
-0.0367594660 -0.0133690230 -1 0
-0.0358363840 -0.0148820140 -1 0
-0.0350506130 -0.0165221160 -1 0
-0.0344417550 -0.0181145620 -1 0
-0.0340286740 -0.0194791180 -1 0
-0.0338122780 -0.0204470270 -1 0
-0.0337774060 -0.0208827840 -1 0
-0.0338937310 -0.0207059940 -1 0
-0.0341179380 -0.0199053480 -1 0
-0.0343988860 -0.0185403200 -1 0
-0.0346847440 -0.0167328500 -1 0
-0.0349290420 -0.0146538910 -1 0
-0.0350930370 -0.0125072750 -1 0
-0.0351437940 -0.0105103460 -1 0
-0.0350498720 -0.0088715260 -1 0
-0.0347789360 -0.0077675170 -1 0
-0.0343011580 -0.0073238250 -1 0
-0.0335975230 -0.0076016250 -1 0
-0.0326677820 -0.0085927990 -1 0
-0.0315339190 -0.0102229430 -1 0
-0.0302392570 -0.0123599600 -1 0
-0.0288456100 -0.0148262890 0 0
-0.0274298510 -0.0174145490 0 0
-0.0260789860 -0.0199059840 0 0
-0.0248817550 -0.0220898790 0 0
-0.0239165800 -0.0237823060 0 0
-0.0232387060 -0.0248430980 0 0
-0.0228702990 -0.0251897650 0 0
-0.0227956670 -0.0248069060 0 0
-0.0229622690 -0.0237492960 0 0
-0.0232874190 -0.0221369310 0 0
-0.0236697820 -0.0201422720 0 0
-0.0240038870 -0.0179718830 0 0
-0.0241955920 -0.0158447610 0 0
-0.0241762940 -0.0139700010 0 0
-0.0239128320 -0.0125266530 0 0
-0.0234100110 -0.0116473580 0 0
-0.0227056190 -0.0114059610 0 0
-0.0218610970 -0.0118092370 0 0
-0.0209516310 -0.0127945150 0 0
-0.0200575230 -0.0142356080 0 0
-0.0192565030 -0.0159567440 0 0
-0.0186163860 -0.0177521720 0 0
-0.0181890800 -0.0194094130 0 0
-0.0180069850 -0.0207327160 0 0
-0.0180816080 -0.0215625210 0 0
-0.0184043680 -0.0217894330 0 0
-0.0189495230 -0.0213624980 0 0
-0.0196775340 -0.0202910350 0 0
-0.0205373420 -0.0186410820 0 0
-0.0214681980 -0.0165287550 0 0
-0.0224027610 -0.0141111640 0 0
-0.0232724440 -0.0115753000 0 0
-0.0240144760 -0.0091248800 0 0
-0.0245790790 -0.0069628450 0 0
-0.0249355740 -0.0052704360 0 0
-0.0250773340 -0.0041894370 0 0
-0.0250245840 -0.0038108010 0 0
-0.0248232190 -0.0041666830 0 0
-0.0245398740 -0.0052246190 0 0
-0.0242546420 -0.0068864200 0 0
-0.0240513850 -0.0089939320 0 0
-0.0240063440 -0.0113428770 0 0
-0.0241785670 -0.0137049490 0 0
-0.0246055090 -0.0158543530 0 0
-0.0253033000 -0.0175923020 0 0
-0.0262682120 -0.0187658110 0 0
-0.0274771070 -0.0192807740 0 0
-0.0288878280 -0.0191100050 0 0
-0.0304412440 -0.0182956520 -1 0
-0.0320654170 -0.0169439200 -1 0
-0.0336819320 -0.0152111650 -1 0
-0.0352141130 -0.0132842730 -1 0
-0.0365954830 -0.0113604260 -1 0
-0.0377761310 -0.0096300880 -1 0
-0.0387256740 -0.0082638000 -1 0
-0.0394329130 -0.0074008210 -1 0
-0.0399033790 -0.0071377070 -1 0
-0.0401568060 -0.0075169130 -1 0
-0.0402261120 -0.0085175720 -1 0
-0.0401573840 -0.0100516860 -1 0
-0.0400083700 -0.0119694590 -1 0
-0.0398433900 -0.0140763690 -1 0
-0.0397248730 -0.0161596100 -1 0
-0.0397033360 -0.0180157990 -1 0
-0.0398081970 -0.0194718480 -1 0
-0.0400424440 -0.0203974370 -1 0
-0.0403840470 -0.0207135580 -1 0
-0.0407938610 -0.0204006220 -1 0
-0.0412252680 -0.0195041250 -1 0
-0.0416303920 -0.0181327400 -1 0
-0.0419621310 -0.0164458090 -1 0
-0.0421748300 -0.0146324150 -1 0
-0.0422262820 -0.0128881010 -1 0
-0.0420821710 -0.0113943930 -1 0
-0.0417224650 -0.0103027340 -1 0
-0.0411474700 -0.0097225730 -1 0
-0.0403807890 -0.0097131520 -1 0
-0.0394683640 -0.0102788380 -1 0
-0.0384747460 -0.0113683900 -1 0
-0.0374775490 -0.0128790110 -1 0
-0.0365598740 -0.0146652660 -1 0
-0.0358012440 -0.0165515930 -1 0
-0.0352693450 -0.0183477350 -1 0
-0.0350140560 -0.0198672870 -1 0
-0.0350630160 -0.0209482930 -1 0
-0.0354174590 -0.0214727400 -1 0
-0.0360487640 -0.0213806160 -1 0
-0.0368980520 -0.0206751330 -1 0
-0.0378811140 -0.0194194790 -1 0
-0.0388984210 -0.0177286560 -1 0
-0.0398474670 -0.0157587050 -1 0
-0.0406342510 -0.0136930940 -1 0
-0.0411818920 -0.0117263490 -1 0
-0.0414363000 -0.0100466050 -1 0
-0.0413699700 -0.0088189160 -1 0
-0.0409838610 -0.0081699290 -1 0
-0.0403060160 -0.0081739880 -1 0
-0.0393866180 -0.0088425690 -1 0
-0.0382909890 -0.0101208300 -1 0
-0.0370924740 -0.0118929220 -1 0
-0.0358665410 -0.0139939850 -1 0
-0.0346864710 -0.0162265380 -1 0
-0.0336195740 -0.0183801120 -1 0
-0.0327221400 -0.0202524200 -1 0
-0.0320329430 -0.0216697190 -1 0
-0.0315677940 -0.0225039800 -1 0
-0.0313178180 -0.0226846210 -1 0
-0.0312516250 -0.0222034340 -1 0
-0.0313198070 -0.0211130020 -1 0
-0.0314607650 -0.0195201880 -1 0
-0.0316075930 -0.0175763370 -1 0
-0.0316954350 -0.0154652340 -1 0
-0.0316684880 -0.0133886920 -1 0
-0.0314860200 -0.0115486240 -1 0
-0.0311266190 -0.0101259540 -1 0
-0.0305895520 -0.0092596580 -1 0
-0.0298929780 -0.0090304880 0 0
-0.0290704100 -0.0094531380 0 0
-0.0281671720 -0.0104772980 0 0
-0.0272371430 -0.0119942740 0 0
-0.0263390040 -0.0138465630 0 0
-0.0255318640 -0.0158412040 0 0
-0.0248709270 -0.0177682430 0 0
-0.0244038790 -0.0194234780 0 0
-0.0241684850 -0.0206321780 0 0
-0.0241915610 -0.0212690520 0 0
-0.0244881050 -0.0212706700 0 0
-0.0250584480 -0.0206396190 0 0
-0.0258830500 -0.0194426150 0 0
-0.0269177940 -0.0178042380 0 0
-0.0280935260 -0.0158952070 0 0
-0.0293215230 -0.0139139510 0 0
-0.0305040270 -0.0120631340 -1 0
-0.0315474370 -0.0105255280 -1 0
-0.0323752550 -0.0094442150 -1 0
-0.0329382440 -0.0089099230 -1 0
-0.0332198640 -0.0089549700 -1 0
-0.0332359410 -0.0095523490 -1 0
-0.0330292970 -0.0106205820 -1 0
-0.0326622080 -0.0120347050 -1 0
-0.0322098130 -0.0136398090 -1 0
-0.0317547970 -0.0152638010 -1 0
-0.0313801290 -0.0167309340 -1 0
-0.0311575000 -0.0178781460 -1 0
-0.0311343960 -0.0185711880 -1 0
-0.0313257740 -0.0187150160 -1 0
-0.0317131680 -0.0182575760 -1 0
-0.0322498900 -0.0171927390 -1 0
-0.0328701650 -0.0155670400 -1 0
-0.0335002770 -0.0134863730 -1 0
-0.0340685480 -0.0111139860 -1 0
-0.0345111630 -0.0086560880 -1 0
-0.0347746500 -0.0063395640 -1 0
-0.0348188020 -0.0043875460 -1 0
-0.0346214600 -0.0029949580 -1 0
-0.0341824920 -0.0023056390 -1 0
-0.0335239820 -0.0023940870 -1 0
-0.0326862990 -0.0032549660 -1 0
-0.0317219280 -0.0048030470 -1 0
-0.0306893280 -0.0068838840 -1 0
-0.0296482160 -0.0092920790 0 0
-0.0286563730 -0.0117938150 0 0
-0.0277670730 -0.0141524140 0 0
-0.0270259130 -0.0161548440 0 0
-0.0264663480 -0.0176340040 0 0
-0.0261044350 -0.0184822900 0 0
-0.0259345750 -0.0186562940 0 0
-0.0259283240 -0.0181749970 0 0
-0.0260370140 -0.0171136780 0 0
-0.0261970970 -0.0155948500 0 0
-0.0263363390 -0.0137766940 0 0
-0.0263801360 -0.0118397800 0 0
-0.0262582760 -0.0099731930 0 0
-0.0259120500 -0.0083598800 0 0
-0.0253005510 -0.0071605020 0 0
-0.0244049460 -0.0064968590 0 0
-0.0232303390 -0.0064375350 0 0
-0.0218057070 -0.0069886990 0 0
-0.0201826930 -0.0080926040 0 0
-0.0184336160 -0.0096349080 0 0
-0.0166480510 -0.0114590640 0 0
-0.0149269060 -0.0133836540 0 0
-0.0133737460 -0.0152194710 0 0
-0.0120841470 -0.0167860090 0 0
-0.0111346630 -0.0179273660 0 0
-0.0105732380 -0.0185266910 0 0
-0.0104127400 -0.0185184460 0 0
-0.0106294100 -0.0178968870 0 0
-0.0111672000 -0.0167181300 0 0
-0.0119466670 -0.0150943260 0 0
-0.0128756750 -0.0131810270 0 0
-0.0138602410 -0.0111609270 0 0
-0.0148152160 -0.0092270250 0 0
-0.0156743430 -0.0075654140 0 0
-0.0163980870 -0.0063369540 0 0
-0.0169772970 -0.0056600220 0 0
-0.0174319300 -0.0055986200 0 0
-0.0178057570 -0.0061577810 0 0
-0.0181583580 -0.0072849350 0 0
-0.0185553110 -0.0088757310 0 0
-0.0190582600 -0.0107839300 0 0
-0.0197173140 -0.0128342490 0 0
-0.0205668650 -0.0148362890 0 0
-0.0216239280 -0.0165983050 0 0
-0.0228880650 -0.0179402660 0 0
-0.0243430070 -0.0187076630 0 0
-0.0259597810 -0.0187895540 0 0
-0.0276998370 -0.0181403280 0 0
-0.0295166870 -0.0167961930 0 0
-0.0313569300 -0.0148757810 -1 0
-0.0331632340 -0.0125635410 -1 0
-0.0348799360 -0.0100841540 -1 0
-0.0364588240 -0.0076758920 -1 0
-0.0378626330 -0.0055649840 -1 0
-0.0390663150 -0.0039412040 -1 0
-0.0400574180 -0.0029377100 -1 0
-0.0408358620 -0.0026199800 -1 0
-0.0414129060 -0.0029861350 -1 0
-0.0418102880 -0.0039750280 -1 0
-0.0420602120 -0.0054755000 -1 0
-0.0422047240 -0.0073343470 -1 0
-0.0422929190 -0.0093658360 -1 0
-0.0423760290 -0.0113657370 -1 0
-0.0425011190 -0.0131299940 -1 0
-0.0427041340 -0.0144766330 -1 0
-0.0430037660 -0.0152682320 -1 0
-0.0433982750 -0.0154302560 -1 0
-0.0438665820 -0.0149603350 -1 0
-0.0443725650 -0.0139264640 -1 0
-0.0448700880 -0.0124555750 -1 0
-0.0453078170 -0.0107158440 -1 0
-0.0456355040 -0.0088959750 -1 0
-0.0458126830 -0.0071845520 -1 0
-0.0458166290 -0.0057530560 -1 0
-0.0456446910 -0.0047446690 -1 0
-0.0453099880 -0.0042668690 -1 0
-0.0448346280 -0.0043840000 -1 0
-0.0442458080 -0.0051091610 -1 0
-0.0435768570 -0.0063984010 -1 0
-0.0428706200 -0.0081503520 -1 0
-0.0421802350 -0.0102124940 -1 0
-0.0415647350 -0.0123937420 -1 0
-0.0410806960 -0.0144819920 -1 0
-0.0407726790 -0.0162646110 -1 0
-0.0406654670 -0.0175496200 -1 0
-0.0407607290 -0.0181850630 -1 0
-0.0410386590 -0.0180757610 -1 0
-0.0414627020 -0.0171987410 -1 0
-0.0419848340 -0.0156144370 -1 0
-0.0425495020 -0.0134643400 -1 0
-0.0430955830 -0.0109512330 -1 0
-0.0435575800 -0.0083106080 -1 0
-0.0438684820 -0.0057840480 -1 0
-0.0439659910 -0.0035973520 -1 0
-0.0438009820 -0.0019412910 -1 0
-0.0433450820 -0.0009545880 -1 0
-0.0425952140 -0.0007104140 -1 0
-0.0415748880 -0.0012075050 -1 0
-0.0403323590 -0.0023692480 -1 0
-0.0389354340 -0.0040551190 -1 0
-0.0374632370 -0.0060829630 -1 0
-0.0359964270 -0.0082544200 -1 0
-0.0346076480 -0.0103759680 -1 0
-0.0333534560 -0.0122730730 -1 0
-0.0322693440 -0.0137999410 -1 0
-0.0313697400 -0.0148478210 -1 0
-0.0306526390 -0.0153518880 -1 0
-0.0301060500 -0.0152951430 -1 0
-0.0297129800 -0.0147092280 0 0
-0.0294523930 -0.0136734080 0 0
-0.0292956070 -0.0123113850 0 0
-0.0292011690 -0.0107833590 0 0
-0.0291136610 -0.0092716870 0 0
-0.0289700030 -0.0079613080 0 0
-0.0287114700 -0.0070179180 0 0
-0.0282956050 -0.0065676230 0 0
-0.0277030510 -0.0066821240 0 0
-0.0269388560 -0.0073719680 0 0
-0.0260312730 -0.0085874960 0 0
-0.0250300630 -0.0102261860 0 0
-0.0240031160 -0.0121452820 0 0
-0.0230295250 -0.0141776960 0 0
-0.0221898550 -0.0161482300 0 0
-0.0215562080 -0.0178883290 0 0
-0.0211838750 -0.0192497720 0 0
-0.0211048890 -0.0201186510 0 0
-0.0213235770 -0.0204292010 0 0
-0.0218145450 -0.0201739640 0 0
-0.0225234540 -0.0194063380 0 0
-0.0233710480 -0.0182342720 0 0
-0.0242611170 -0.0168066590 0 0
-0.0250922290 -0.0152962180 0 0
-0.0257707890 -0.0138827060 0 0
-0.0262221100 -0.0127370000 0 0
-0.0263978250 -0.0120045880 0 0
-0.0262798200 -0.0117891290 0 0
-0.0258810790 -0.0121391290 0 0
-0.0252432540 -0.0130405840 0 0
-0.0244310230 -0.0144168890 0 0
-0.0235240520 -0.0161360900 0 0
-0.0226075800 -0.0180248380 0 0
-0.0217623510 -0.0198868980 0 0
-0.0210551830 -0.0215235610 0 0
-0.0205318130 -0.0227544900 0 0
-0.0202125740 -0.0234374040 0 0
-0.0200909590 -0.0234834470 0 0
-0.0201356850 -0.0228655570 0 0
-0.0202960770 -0.0216198130 0 0
-0.0205088200 -0.0198414810 0 0
-0.0207041080 -0.0176764550 0 0
-0.0208106950 -0.0153070570 0 0
-0.0207606670 -0.0129328080 0 0
-0.0204952790 -0.0107504990 0 0
-0.0199723490 -0.0089381940 0 0
-0.0191741210 -0.0076440240 0 0
-0.0181141050 -0.0069769360 0 0
-0.0168415470 -0.0069973770 0 0
-0.0154411180 -0.0077092210 0 0
-0.0140251590 -0.0090553070 0 0
-0.0127192540 -0.0109182500 0 0
-0.0116456640 -0.0131282180 0 0
-0.0109090480 -0.0154784830 0 0
-0.0105866530 -0.0177473360 0 0
-0.0107235680 -0.0197230290 0 0
-0.0113322750 -0.0212274020 0 0
-0.0123947620 -0.0221341400 0 0
-0.0138658320 -0.0223796330 0 0
-0.0156770990 -0.0219671610 0 0
-0.0177424260 -0.0209659810 0 0
-0.0199661300 -0.0195050530 0 0
-0.0222534770 -0.0177603550 0 0
-0.0245206690 -0.0159366350 0 0
-0.0267015590 -0.0142458730 0 0
-0.0287503790 -0.0128848420 0 0
-0.0306418550 -0.0120148550 -1 0
-0.0323707090 -0.0117466500 -1 0
-0.0339511710 -0.0121310490 -1 0
-0.0354154660 -0.0131543220 -1 0
-0.0368104220 -0.0147381610 -1 0
-0.0381928090 -0.0167456980 -1 0
-0.0396244900 -0.0189945640 -1 0
-0.0411671920 -0.0212759920 -1 0
-0.0428753890 -0.0233766850 -1 0
-0.0447867540 -0.0250999630 -1 0
-0.0469127740 -0.0262846100 -1 0
-0.0492337610 -0.0268201720 -1 0
-0.0517004560 -0.0266559730 -1 0
-0.0542410870 -0.0258021100 -1 0
-0.0567707720 -0.0243234180 -1 0
-0.0592000360 -0.0223300980 -1 0
-0.0614412930 -0.0199702380 -1 0
-0.0634143490 -0.0174245190 -1 0
-0.0650521840 -0.0148960360 -1 0
-0.0663070890 -0.0125911500 -1 0
-0.0671560920 -0.0106969940 -1 0
-0.0676036200 -0.0093623470 -1 0
-0.0676797300 -0.0086828360 -1 0
-0.0674349860 -0.0086904450 -1 0
-0.0669352380 -0.0093499590 -1 0
-0.0662582290 -0.0105638270 -1 0
-0.0654908540 -0.0121834940 -1 0
-0.0647247410 -0.0140247030 -1 0
-0.0640494480 -0.0158865320 -1 0
-0.0635441180 -0.0175746660 -1 0
-0.0632686460 -0.0189252860 -1 0
-0.0632560730 -0.0198228980 -1 0
-0.0635089510 -0.0202088170 -1 0
-0.0640009770 -0.0200815950 -1 0
-0.0646822780 -0.0194916650 -1 0
-0.0654858020 -0.0185327050 -1 0
-0.0663332610 -0.0173320750 -1 0
-0.0671404770 -0.0160398960 -1 0
-0.0678233980 -0.0148138090 -1 0
-0.0683058190 -0.0138001890 -1 0
-0.0685274120 -0.0131182100 -1 0
-0.0684498340 -0.0128510490 -1 0
-0.0680603240 -0.0130420700 -1 0
-0.0673731440 -0.0136923940 -1 0
-0.0664285580 -0.0147597190 -1 0
-0.0652887410 -0.0161600390 -1 0
-0.0640306850 -0.0177731360 -1 0
-0.0627379440 -0.0194520210 -1 0
-0.0614935930 -0.0210360760 -1 0
-0.0603744690 -0.0223668990 -1 0
-0.0594452900 -0.0233055380 -1 0
-0.0587526690 -0.0237490230 -1 0
-0.0583199610 -0.0236428830 -1 0
-0.0581438150 -0.0229873690 -1 0
-0.0581938560 -0.0218377900 -1 0
-0.0584164140 -0.0203000890 -1 0
-0.0587413020 -0.0185215760 -1 0
-0.0590902360 -0.0166768610 -1 0
-0.0593861200 -0.0149509000 -1 0
-0.0595620720 -0.0135211390 -1 0
-0.0595685730 -0.0125395950 -1 0
-0.0593778940 -0.0121160600 -1 0
-0.0589859750 -0.0123049630 -1 0
-0.0584124300 -0.0130978840 -1 0
-0.0576990390 -0.0144226250 -1 0
-0.0569061000 -0.0161498120 -1 0
-0.0561054300 -0.0181069800 -1 0
-0.0553701340 -0.0200976800 -1 0
-0.0547640920 -0.0219224560 -1 0
-0.0543350670 -0.0233989170 -1 0
-0.0541122980 -0.0243784700 -1 0
-0.0541065910 -0.0247584510 -1 0
-0.0543110800 -0.0244898590 -1 0
-0.0547016850 -0.0235811640 -1 0
-0.0552375980 -0.0220980090 -1 0
-0.0558639270 -0.0201582810 -1 0
-0.0565174330 -0.0179222030 -1 0
-0.0571330320 -0.0155776750 -1 0
-0.0576489630 -0.0133223110 -1 0
-0.0580112980 -0.0113442790 -1 0
-0.0581785990 -0.0098040610 -1 0
-0.0581262840 -0.0088197220 -1 0
-0.0578505430 -0.0084576900 -1 0
-0.0573713690 -0.0087288700 -1 0
-0.0567329910 -0.0095892070 -1 0
-0.0560004650 -0.0109448520 -1 0
-0.0552532070 -0.0126614600 -1 0
-0.0545770470 -0.0145759930 -1 0
-0.0540555180 -0.0165104070 -1 0
-0.0537605940 -0.0182874340 -1 0
-0.0537437640 -0.0197477110 -1 0
-0.0540291000 -0.0207668100 -1 0
-0.0546098580 -0.0212699510 -1 0
-0.0554493620 -0.0212415270 -1 0
-0.0564853500 -0.0207276340 -1 0
-0.0576359400 -0.0198299050 -1 0
-0.0588067850 -0.0186894110 -1 0
-0.0599010570 -0.0174649440 -1 0
-0.0608321750 -0.0163140580 -1 0
-0.0615351330 -0.0153797170 -1 0
-0.0619723150 -0.0147795770 -1 0
-0.0621339830 -0.0145967370 -1 0
-0.0620360230 -0.0148733510 -1 0
-0.0617160600 -0.0156077500 -1 0
-0.0612274450 -0.0167545940 -1 0
-0.0606315450 -0.0182263530 -1 0
-0.0599901080 -0.0198959170 -1 0
-0.0593595260 -0.0216046090 -1 0
-0.0587881720 -0.0231793500 -1 0
-0.0583165190 -0.0244552610 -1 0
-0.0579781620 -0.0252956540 -1 0
-0.0577995690 -0.0256053920 -1 0
-0.0577975210 -0.0253386750 -1 0
-0.0579744270 -0.0245025030 -1 0
-0.0583133760 -0.0231560860 -1 0
-0.0587763010 -0.0214066040 -1 0
-0.0593073030 -0.0194012330 -1 0
-0.0598394810 -0.0173146600 -1 0
-0.0603023490 -0.0153321740 -1 0
-0.0606289610 -0.0136303380 -1 0
-0.0607632680 -0.0123588090 -1 0
-0.0606666570 -0.0116262220 -1 0
-0.0603213610 -0.0114907260 -1 0
-0.0597304980 -0.0119547320 -1 0
-0.0589171500 -0.0129644820 -1 0
-0.0579241830 -0.0144152370 -1 0
-0.0568136370 -0.0161616620 -1 0
-0.0556630410 -0.0180323750 -1 0
-0.0545569890 -0.0198473110 -1 0
-0.0535750830 -0.0214357820 -1 0
-0.0527799980 -0.0226522490 -1 0
-0.0522093470 -0.0233874750 -1 0
-0.0518725930 -0.0235756930 -1 0
-0.0517521490 -0.0231998590 -1 0
-0.0518075200 -0.0222949080 -1 0
-0.0519817640 -0.0209476190 -1 0
-0.0522097570 -0.0192925490 -1 0
-0.0524272040 -0.0175022330 -1 0
-0.0525782920 -0.0157689040 -1 0
-0.0526202460 -0.0142799350 -1 0
-0.0525251740 -0.0131950130 -1 0
-0.0522807840 -0.0126305770 -1 0
-0.0518904310 -0.0126504050 -1 0
-0.0513716430 -0.0132603140 -1 0
-0.0507527990 -0.0144076880 -1 0
-0.0500693800 -0.0159864860 -1 0
-0.0493611780 -0.0178472760 -1 0
-0.0486701920 -0.0198120570 -1 0
-0.0480385070 -0.0216931790 -1 0
-0.0475065370 -0.0233137260 -1 0
-0.0471119380 -0.0245254220 -1 0
-0.0468878830 -0.0252210110 -1 0
-0.0468588670 -0.0253409170 -1 0
-0.0470345690 -0.0248763580 -1 0
-0.0474053760 -0.0238705780 -1 0
-0.0479425510 -0.0224170820 -1 0
-0.0486023000 -0.0206522730 -1 0
-0.0493313210 -0.0187423260 -1 0
-0.0500726920 -0.0168673860 -1 0
-0.0507718620 -0.0152057890 -1 0
-0.0513818050 -0.0139190500 -1 0
-0.0518662750 -0.0131381070 -1 0
-0.0522018030 -0.0129517620 -1 0
-0.0523804100 -0.0133977610 -1 0
-0.0524131950 -0.0144569520 -1 0
-0.0523322170 -0.0160520640 -1 0
-0.0521883690 -0.0180526490 -1 0
-0.0520454210 -0.0202863380 -1 0
-0.0519718400 -0.0225555670 -1 0
-0.0520319550 -0.0246578340 -1 0
-0.0522779690 -0.0264066750 -1 0
-0.0527436510 -0.0276509220 -1 0
-0.0534394580 -0.0282908950 -1 0
-0.0543489340 -0.0282902840 -1 0
-0.0554278110 -0.0276815440 -1 0
-0.0566078140 -0.0265627990 -1 0
-0.0578053720 -0.0250864350 -1 0
-0.0589335970 -0.0234413560 -1 0
-0.0599150260 -0.0218308550 -1 0
-0.0606917470 -0.0204484980 -1 0
-0.0612301950 -0.0194561780 -1 0
-0.0615212110 -0.0189687060 -1 0
-0.0615784300 -0.0190456780 -1 0
-0.0614369380 -0.0196875910 -1 0
-0.0611513060 -0.0208342460 -1 0
-0.0607907030 -0.0223678380 -1 0
-0.0604308900 -0.0241242120 -1 0
-0.0601460050 -0.0259118640 -1 0
-0.0600024140 -0.0275345030 -1 0
-0.0600535500 -0.0288126230 -1 0
-0.0603337950 -0.0296015930 -1 0
-0.0608518660 -0.0298058690 -1 0
-0.0615864510 -0.0293890840 -1 0
-0.0624866330 -0.0283784620 -1 0
-0.0634774880 -0.0268621910 -1 0
-0.0644694760 -0.0249799170 -1 0
-0.0653698670 -0.0229067950 -1 0
-0.0660949100 -0.0208324660 -1 0
-0.0665811210 -0.0189394790 -1 0
-0.0667929010 -0.0173863540 -1 0
-0.0667236600 -0.0162967090 -1 0
-0.0663908220 -0.0157530170 -1 0
-0.0658285500 -0.0157936240 -1 0
-0.0650821690 -0.0164116970 -1 0
-0.0642054790 -0.0175545960 -1 0
-0.0632595390 -0.0191238200 -1 0
-0.0623106280 -0.0209783050 -1 0
-0.0614257810 -0.0229440370 -1 0
-0.0606663010 -0.0248295550 -1 0
-0.0600814590 -0.0264444930 -1 0
-0.0597042870 -0.0276195800 -1 0
-0.0595493450 -0.0282265400 -1 0
-0.0596116070 -0.0281940040 -1 0
-0.0598666600 -0.0275160830 -1 0
-0.0602732030 -0.0262520670 -1 0
-0.0607775890 -0.0245176780 -1 0
-0.0613190040 -0.0224721360 -1 0
-0.0618343660 -0.0203041260 -1 0
-0.0622623530 -0.0182145320 -1 0
-0.0625463230 -0.0163953920 -1 0
-0.0626376070 -0.0150094420 -1 0
-0.0625005090 -0.0141733190 -1 0
-0.0621184110 -0.0139457010 -1 0
-0.0614995500 -0.0143235460 -1 0
-0.0606805350 -0.0152476940 -1 0
-0.0597249200 -0.0166145180 -1 0
-0.0587153190 -0.0182893670 -1 0
-0.0577407630 -0.0201189500 -1 0
-0.0568836430 -0.0219416140 -1 0
-0.0562105790 -0.0235965100 -1 0
-0.0557685940 -0.0249338410 -1 0
-0.0555847790 -0.0258277350 -1 0
-0.0556667930 -0.0261903250 -1 0
-0.0560024940 -0.0259832760 -1 0
-0.0565585820 -0.0252232560 -1 0
-0.0572801140 -0.0239800330 -1 0
-0.0580933350 -0.0223692340 -1 0
-0.0589123990 -0.0205430000 -1 0
-0.0596486660 -0.0186782890 -1 0
-0.0602213820 -0.0169602120 -1 0
-0.0605684650 -0.0155610230 -1 0
-0.0606550790 -0.0146196030 -1 0
-0.0604776990 -0.0142255920 -1 0
-0.0600632260 -0.0144091350 -1 0
-0.0594643820 -0.0151365920 -1 0
-0.0587525460 -0.0163136690 -1 0
-0.0580085400 -0.0177967220 -1 0
-0.0573123490 -0.0194106480 -1 0
-0.0567336150 -0.0209700680 -1 0
-0.0563245730 -0.0223002600 -1 0
-0.0561157350 -0.0232548110 -1 0
-0.0561135440 -0.0237279040 -1 0
-0.0562999200 -0.0236613200 -1 0
-0.0566348870 -0.0230477780 -1 0
-0.0570626910 -0.0219313360 -1 0
-0.0575195190 -0.0204043520 -1 0
-0.0579403860 -0.0186006860 -1 0
-0.0582642720 -0.0166850310 -1 0
-0.0584378270 -0.0148386050 -1 0
-0.0584184990 -0.0132423270 -1 0
-0.0581779790 -0.0120591400 -1 0
-0.0577054490 -0.0114169640 -1 0
-0.0570088090 -0.0113936990 -1 0
-0.0561132060 -0.0120064390 -1 0
-0.0550582010 -0.0132071550 -1 0
-0.0538949710 -0.0148858000 -1 0
-0.0526830790 -0.0168805270 -1 0
-0.0514851770 -0.0189945330 -1 0
-0.0503596030 -0.0210177610 -1 0
-0.0493531330 -0.0227496450 -1 0
-0.0484962810 -0.0240191300 -1 0
-0.0478022410 -0.0247009090 -1 0
-0.0472699620 -0.0247283980 -1 0
-0.0468907100 -0.0241018730 -1 0
-0.0466547260 -0.0228888990 -1 0
-0.0465538200 -0.0212170290 -1 0
-0.0465786410 -0.0192611160 -1 0
-0.0467128620 -0.0172261410 -1 0
-0.0469284470 -0.0153252900 -1 0
-0.0471855780 -0.0137557480 -1 0
-0.0474378750 -0.0126780330 -1 0
-0.0476410740 -0.0122031480 -1 0
-0.0477627610 -0.0123867390 -1 0
-0.0477902840 -0.0132268900 -1 0
-0.0477339880 -0.0146638630 -1 0
-0.0476251010 -0.0165830730 -1 0
-0.0475097780 -0.0188236290 -1 0
-0.0474408400 -0.0211932850 -1 0
-0.0474687730 -0.0234882430 -1 0
-0.0476342970 -0.0255143780 -1 0
-0.0479643450 -0.0271061580 -1 0
-0.0484711970 -0.0281408490 -1 0
-0.0491530530 -0.0285474850 -1 0
-0.0499946710 -0.0283107230 -1 0
-0.0509680010 -0.0274687350 -1 0
-0.0520329140 -0.0261043590 -1 0
-0.0531379340 -0.0243334730 -1 0
-0.0542222750 -0.0222983270 -1 0
-0.0552216550 -0.0201665480 -1 0
-0.0560782940 -0.0181266090 -1 0
-0.0567519050 -0.0163723830 -1 0
-0.0572269260 -0.0150762420 -1 0
-0.0575130460 -0.0143562170 -1 0
-0.0576406660 -0.0142516380 -1 0
-0.0576561880 -0.0147218750 -1 0
-0.0576193930 -0.0156660470 -1 0
-0.0575994540 -0.0169472170 -1 0
-0.0576662220 -0.0184095490 -1 0
-0.0578787920 -0.0198897460 -1 0
-0.0582760950 -0.0212279770 -1 0
-0.0588722600 -0.0222801870 -1 0
-0.0596570020 -0.0229316600 -1 0
-0.0605998060 -0.0231104250 -1 0
-0.0616555300 -0.0227971430 -1 0
-0.0627691250 -0.0220286510 -1 0
-0.0638791460 -0.0208955550 -1 0
-0.0649214050 -0.0195354700 -1 0
-0.0658340430 -0.0181212270 -1 0
-0.0665634880 -0.0168421890 -1 0
-0.0670691960 -0.0158803380 -1 0
-0.0673260590 -0.0153873960 -1 0
-0.0673259950 -0.0154683400 -1 0
-0.0670801270 -0.0161716020 -1 0
-0.0666203310 -0.0174841290 -1 0
-0.0659975850 -0.0193317640 -1 0
-0.0652760650 -0.0215859350 -1 0
-0.0645242830 -0.0240757940 -1 0
-0.0638061090 -0.0266045310 -1 0
-0.0631743090 -0.0289683640 -1 0
-0.0626676140 -0.0309759790 -1 -1
-0.0623103360 -0.0324662810 -1 -1
-0.0621128380 -0.0333230470 -1 -1
-0.0620718190 -0.0334855190 -1 -1
-0.0621703040 -0.0329538950 -1 -1
-0.0623783180 -0.0317889750 -1 -1
-0.0626556860 -0.0301061100 -1 -1
-0.0629568880 -0.0280644040 -1 0
-0.0632360830 -0.0258522930 -1 0
-0.0634508240 -0.0236706600 -1 0
-0.0635645430 -0.0217145110 -1 0
-0.0635482530 -0.0201547030 -1 0
-0.0633819380 -0.0191217510 -1 0
-0.0630564000 -0.0186933770 -1 0
-0.0625756570 -0.0188867240 -1 0
-0.0619589050 -0.0196566540 -1 0
-0.0612410990 -0.0209015890 -1 0
-0.0604712440 -0.0224753840 -1 0
-0.0597076790 -0.0242019400 -1 0
-0.0590111200 -0.0258915350 -1 0
-0.0584372270 -0.0273600590 -1 0
-0.0580297110 -0.0284504650 -1 0
-0.0578149160 -0.0290518350 -1 0
-0.0577996550 -0.0291104170 -1 0
-0.0579730670 -0.0286304210 -1 0
-0.0583107280 -0.0276672150 -1 0
-0.0587782080 -0.0263186390 -1 0
-0.0593325900 -0.0247177760 -1 0
-0.0599231450 -0.0230244030 -1 0
-0.0604940740 -0.0214111580 -1 0
-0.0609907020 -0.0200459320 -1 0
-0.0613676520 -0.0190753840 -1 0
-0.0615966560 -0.0186115600 -1 0
-0.0616720240 -0.0187207220 -1 0
-0.0616123390 -0.0194143420 -1 0
-0.0614580280 -0.0206442790 -1 0
-0.0612653190 -0.0223049750 -1 0
-0.0610976970 -0.0242436120 -1 0
-0.0610171500 -0.0262762680 -1 0
-0.0610772030 -0.0282068420 -1 0
-0.0613176870 -0.0298462710 -1 0
-0.0617599510 -0.0310314420 -1 -1
-0.0624021950 -0.0316432990 -1 -1
-0.0632163660 -0.0316213060 -1 -1
-0.0641491000 -0.0309703570 -1 -1
-0.0651280200 -0.0297582040 -1 0
-0.0660719320 -0.0281046330 -1 0
-0.0669015620 -0.0261665650 -1 0
-0.0675478720 -0.0241231500 -1 0
-0.0679566980 -0.0221613110 -1 0
-0.0680902340 -0.0204602650 -1 0
-0.0679273060 -0.0191755600 -1 0
-0.0674641230 -0.0184250710 -1 0
-0.0667153010 -0.0182780990 -1 0
-0.0657136290 -0.0187474610 -1 0
-0.0645078880 -0.0197858040 -1 0
-0.0631594650 -0.0212883720 -1 0
-0.0617384610 -0.0231025360 -1 0
-0.0603188820 -0.0250421590 -1 0
-0.0589726820 -0.0269049040 -1 0
-0.0577632840 -0.0284917720 -1 0
-0.0567393830 -0.0296276260 -1 0
-0.0559300980 -0.0301794060 -1 -1
-0.0553426770 -0.0300687000 -1 -1
-0.0549629610 -0.0292781320 -1 0
-0.0547576730 -0.0278526420 -1 0
-0.0546773530 -0.0258960240 -1 0
-0.0546594560 -0.0235620810 -1 0
-0.0546328920 -0.0210400320 -1 0
-0.0545256930 -0.0185354700 -1 0
-0.0542745150 -0.0162498320 -1 0
-0.0538324550 -0.0143615380 -1 0
-0.0531741040 -0.0130105800 -1 0
-0.0522988310 -0.0122867090 -1 0
-0.0512318890 -0.0122219990 -1 0
-0.0500221660 -0.0127900310 -1 0
-0.0487367740 -0.0139117810 -1 0
-0.0474536700 -0.0154645910 -1 0
-0.0462531470 -0.0172915110 -1 0
-0.0452088940 -0.0192120260 -1 0
-0.0443795330 -0.0210352320 -1 0
-0.0438015740 -0.0225745510 -1 0
-0.0434853500 -0.0236645190 -1 0
-0.0434158560 -0.0241805370 -1 0
-0.0435582210 -0.0240577040 -1 0
-0.0438646760 -0.0233024790 -1 0
-0.0442800270 -0.0219934620 -1 0
-0.0447455880 -0.0202702660 -1 0
-0.0452041920 -0.0183139570 -1 0
-0.0456077040 -0.0163255340 -1 0
-0.0459245210 -0.0145054320 -1 0
-0.0461430130 -0.0130344130 -1 0
-0.0462698130 -0.0120575610 -1 0
-0.0463252660 -0.0116723030 -1 0
-0.0463387190 -0.0119196300 -1 0
-0.0463452520 -0.0127787150 -1 0
-0.0463841130 -0.0141662060 -1 0
-0.0464972970 -0.0159422220 -1 0
-0.0467261050 -0.0179247000 -1 0
-0.0471056300 -0.0199091440 -1 0
-0.0476591600 -0.0216895160 -1 0
-0.0483943590 -0.0230812340 -1 0
-0.0493020460 -0.0239456870 -1 0
-0.0503572060 -0.0242084020 -1 0
-0.0515210670 -0.0238651950 -1 0
-0.0527435070 -0.0229783530 -1 0
-0.0539659430 -0.0216669200 -1 0
-0.0551251060 -0.0200930640 -1 0
-0.0561583850 -0.0184450080 -1 0
-0.0570113300 -0.0169173710 -1 0
-0.0576461970 -0.0156916010 -1 0
-0.0580483610 -0.0149197390 -1 0
-0.0582275920 -0.0147123820 -1 0
-0.0582139290 -0.0151295790 -1 0
-0.0580512900 -0.0161744360 -1 0
-0.0577929780 -0.0177906850 -1 0
-0.0575004960 -0.0198650920 -1 0
-0.0572430050 -0.0222354320 -1 0
-0.0570938280 -0.0247051750 -1 0
-0.0571232070 -0.0270647310 -1 0
-0.0573897610 -0.0291160110 -1 0
-0.0579328430 -0.0306943660 -1 -1
-0.0587662270 -0.0316828810 -1 -1
-0.0598737470 -0.0320189140 -1 -1
-0.0612085910 -0.0316965220 -1 -1
-0.0626972460 -0.0307665040 -1 -1
-0.0642473890 -0.0293322920 -1 0
-0.0657577610 -0.0275402270 -1 0
-0.0671284470 -0.0255654400 -1 0
-0.0682707970 -0.0235960990 -1 0
-0.0691158110 -0.0218183510 -1 0
-0.0696196680 -0.0204024190 -1 0
-0.0697664680 -0.0194884080 -1 0
-0.0695696010 -0.0191714580 -1 0
-0.0690724210 -0.0194892500 -1 0
-0.0683465880 -0.0204154060 -1 0
-0.0674857810 -0.0218596550 -1 0
-0.0665949720 -0.0236748280 -1 0
-0.0657781140 -0.0256711620 -1 0
-0.0651266660 -0.0276371900 -1 0
-0.0647094930 -0.0293643450 -1 0
-0.0645647230 -0.0306709350 -1 -1
-0.0646954910 -0.0314214000 -1 -1
-0.0650714740 -0.0315390470 -1 -1
-0.0656362770 -0.0310122410 -1 -1
-0.0663184420 -0.0298946480 -1 0
-0.0670422240 -0.0282997430 -1 0
-0.0677347850 -0.0263892230 -1 0
-0.0683298010 -0.0243560720 -1 0
-0.0687704260 -0.0224044750 -1 0
-0.0690137940 -0.0207288500 -1 0
-0.0690361760 -0.0194945360 -1 0
-0.0688362420 -0.0188221790 -1 0
-0.0684351070 -0.0187763950 -1 0
-0.0678734510 -0.0193602210 -1 0
-0.0672056310 -0.0205174190 -1 0
-0.0664910490 -0.0221403490 -1 0
-0.0657859000 -0.0240790360 -1 0
-0.0651390300 -0.0261514930 -1 0
-0.0645920310 -0.0281588100 -1 0
-0.0641806330 -0.0299056120 -1 0
-0.0639344800 -0.0312216660 -1 -1
-0.0638739310 -0.0319799370 -1 -1
-0.0640045540 -0.0321093200 -1 -1
-0.0643119420 -0.0316017160 -1 -1
-0.0647598020 -0.0305122660 -1 -1
-0.0652927270 -0.0289516730 -1 0
-0.0658426840 -0.0270717010 -1 0
-0.0663368600 -0.0250473890 -1 0
-0.0667049520 -0.0230599780 -1 0
-0.0668858700 -0.0212819480 -1 0
-0.0668344050 -0.0198634000 -1 0
-0.0665267880 -0.0189196040 -1 0
-0.0659634230 -0.0185205470 -1 0
-0.0651692320 -0.0186837270 -1 0
-0.0641934870 -0.0193717760 -1 0
-0.0631082030 -0.0204956990 -1 0
-0.0620013920 -0.0219226410 -1 0
-0.0609644710 -0.0234868960 -1 0
-0.0600782140 -0.0250041870 -1 0
-0.0594018000 -0.0262889470 -1 0
-0.0589662300 -0.0271731560 -1 0
-0.0587719580 -0.0275250960 -1 0
-0.0587903890 -0.0272666480 -1 0
-0.0589685900 -0.0263867120 -1 0
-0.0592368660 -0.0249465590 -1 0
-0.0595181670 -0.0230739140 -1 0
-0.0597369100 -0.0209463170 -1 0
-0.0598253630 -0.0187676950 -1 0
-0.0597278940 -0.0167440530 -1 0
-0.0594040810 -0.0150639350 -1 0
-0.0588308540 -0.0138852040 -1 0
-0.0580034210 -0.0133249950 -1 0
-0.0569353040 -0.0134497270 -1 0
-0.0556582680 -0.0142659540 -1 0
-0.0542221150 -0.0157148170 -1 0
-0.0526927650 -0.0176719020 -1 0
-0.0511475530 -0.0199543930 -1 0
-0.0496684750 -0.0223383970 -1 0
-0.0483340060 -0.0245857550 -1 0
-0.0472095030 -0.0264727650 -1 0
-0.0463375630 -0.0278130300 -1 0
-0.0457314310 -0.0284734370 -1 0
-0.0453741490 -0.0283852290 -1 0
-0.0452238870 -0.0275495700 -1 0
-0.0452234420 -0.0260363640 -1 0
-0.0453105270 -0.0239768510 -1 0
-0.0454263500 -0.0215516110 -1 0
-0.0455221780 -0.0189757870 -1 0
-0.0455642410 -0.0164813540 -1 0
-0.0455364860 -0.0142956350 -1 0
-0.0454404270 -0.0126182640 -1 0
-0.0452924250 -0.0116005120 -1 0
-0.0451203750 -0.0113299880 -1 0
-0.0449617910 -0.0118228270 -1 0
-0.0448629410 -0.0130240030 -1 0
-0.0448769970 -0.0148143510 -1 0
-0.0450596330 -0.0170224200 -1 0
-0.0454619580 -0.0194401280 -1 0
-0.0461226340 -0.0218416810 -1 0
-0.0470617850 -0.0240050920 -1 0
-0.0482782800 -0.0257351270 -1 0
-0.0497507310 -0.0268849910 -1 0
-0.0514408590 -0.0273722100 -1 0
-0.0532968840 -0.0271852930 -1 0
-0.0552563030 -0.0263815540 -1 0
-0.0572492720 -0.0250783210 -1 0
-0.0592029140 -0.0234392200 -1 0
-0.0610459200 -0.0216569400 -1 0
-0.0627137180 -0.0199339660 -1 0
-0.0641546100 -0.0184628970 -1 0
-0.0653355030 -0.0174084530 -1 0
-0.0662453630 -0.0168932410 -1 0
-0.0668964320 -0.0169877280 -1 0
-0.0673242810 -0.0177038250 -1 0
-0.0675863270 -0.0189929040 -1 0
-0.0677573520 -0.0207502410 -1 0
-0.0679213680 -0.0228260220 -1 0
-0.0681609050 -0.0250406600 -1 0
-0.0685461440 -0.0272021440 -1 0
-0.0691264240 -0.0291243050 -1 0
-0.0699253550 -0.0306449820 -1 -1
-0.0709395770 -0.0316420140 -1 -1
-0.0721407990 -0.0320444740 -1 -1
-0.0734803420 -0.0318379600 -1 -1
-0.0748949110 -0.0310649070 -1 -1
-0.0763127760 -0.0298211880 -1 0
-0.0776601460 -0.0282486200 -1 0
-0.0788670490 -0.0265220970 -1 0
-0.0798718650 -0.0248316570 -1 0
-0.0806249290 -0.0233621360 -1 0
-0.0810927980 -0.0222732570 -1 0
-0.0812635370 -0.0216823870 -1 0
-0.0811505100 -0.0216531470 -1 0
-0.0807918270 -0.0221925760 -1 0
-0.0802455330 -0.0232549530 -1 0
-0.0795828210 -0.0247479800 -1 0
-0.0788809170 -0.0265400760 -1 0
-0.0782162980 -0.0284700100 -1 0
-0.0776588890 -0.0303590920 -1 -1
-0.0772675420 -0.0320258110 -1 -1
-0.0770856990 -0.0333035170 -1 -1
-0.0771364160 -0.0340596690 -1 -1
-0.0774183050 -0.0342121080 -1 -1
-0.0779046160 -0.0337389130 -1 -1
-0.0785456990 -0.0326816580 -1 -1
-0.0792739510 -0.0311421810 -1 -1
-0.0800110020 -0.0292721850 -1 0
-0.0806767810 -0.0272569230 -1 0
-0.0811987400 -0.0252960340 -1 0
-0.0815192430 -0.0235837290 -1 0
-0.0816002270 -0.0222895720 -1 0
-0.0814249510 -0.0215416030 -1 0
-0.0809971090 -0.0214136810 -1 0
-0.0803386750 -0.0219183390 -1 0
-0.0794883860 -0.0230059900 -1 0
-0.0785009500 -0.0245704760 -1 0
-0.0774445030 -0.0264596870 -1 0
-0.0763943700 -0.0284898520 -1 0
-0.0754246110 -0.0304623990 -1 -1
-0.0746005400 -0.0321825720 -1 -1
-0.0739736770 -0.0334793040 -1 -1
-0.0735782360 -0.0342247010 -1 -1
-0.0734278570 -0.0343494010 -1 -1
-0.0735125170 -0.0338500270 -1 -1
-0.0737973250 -0.0327874020 -1 -1
-0.0742254270 -0.0312770120 -1 -1
-0.0747253910 -0.0294740240 -1 0
-0.0752215010 -0.0275545700 -1 0
-0.0756450260 -0.0256957300 -1 0
-0.0759440540 -0.0240577520 -1 0
-0.0760887880 -0.0227712220 -1 0
-0.0760709860 -0.0219296220 -1 0
-0.0758995530 -0.0215857060 -1 0
-0.0755955320 -0.0217492920 -1 0
-0.0751881390 -0.0223861430 -1 0
-0.0747116270 -0.0234195580 -1 0
-0.0742023300 -0.0247356660 -1 0
-0.0736956020 -0.0261927820 -1 0
-0.0732227190 -0.0276347270 -1 0
-0.0728079950 -0.0289062910 -1 0
-0.0724667820 -0.0298686810 -1 0
-0.0722052640 -0.0304143870 -1 -1
-0.0720215370 -0.0304805510 -1 -1
-0.0719056050 -0.0300572090 -1 -1
-0.0718367580 -0.0291851680 -1 0
-0.0717795750 -0.0279416900 -1 0
-0.0716817760 -0.0264215240 -1 0
-0.0714779280 -0.0247272330 -1 0
-0.0711010170 -0.0229739840 -1 0
-0.0704984170 -0.0212977080 -1 0
-0.0696450920 -0.0198527070 -1 0
-0.0685492360 -0.0187956670 -1 0
-0.0672501730 -0.0182620910 -1 0
-0.0658107970 -0.0183428710 -1 0
-0.0643073250 -0.0190667370 -1 0
-0.0628190210 -0.0203911860 -1 0
-0.0614203930 -0.0222029440 -1 0
-0.0601772820 -0.0243287800 -1 0
-0.0591453470 -0.0265554390 -1 0
-0.0583680400 -0.0286549010 -1 0
-0.0578738020 -0.0304111420 -1 -1
-0.0576748010 -0.0316455790 -1 -1
-0.0577674190 -0.0322384690 -1 -1
-0.0581318930 -0.0321431700 -1 -1
-0.0587304830 -0.0313900640 -1 -1
-0.0595069960 -0.0300785940 -1 -1
-0.0603903340 -0.0283603120 -1 0
-0.0613015170 -0.0264190870 -1 0
-0.0621612870 -0.0244527490 -1 0
-0.0628964100 -0.0226562080 -1 0
-0.0634453350 -0.0212049010 -1 0
-0.0637641880 -0.0202387940 -1 0
-0.0638321230 -0.0198486560 -1 0
-0.0636542280 -0.0200666680 -1 0
-0.0632614690 -0.0208626610 -1 0
-0.0627076730 -0.0221471030 -1 0
-0.0620623240 -0.0237812610 -1 0
-0.0613991050 -0.0255923910 -1 0
-0.0607840430 -0.0273909540 -1 0
-0.0602679740 -0.0289886880 -1 0
-0.0598840470 -0.0302172670 -1 -1
-0.0596472040 -0.0309465470 -1 -1
-0.0595532230 -0.0311005100 -1 -1
-0.0595787910 -0.0306678230 -1 -1
-0.0596856340 -0.0297038490 -1 0
-0.0598278990 -0.0283233420 -1 0
-0.0599582560 -0.0266859650 -1 0
-0.0600301260 -0.0249776060 -1 0
-0.0599983560 -0.0233899410 -1 0
-0.0598219560 -0.0221009180 -1 0
-0.0594697570 -0.0212585300 -1 0
-0.0589268700 -0.0209678310 -1 0
-0.0581987410 -0.0212801780 -1 0
-0.0573109120 -0.0221865540 -1 0
-0.0563053760 -0.0236183440 -1 0
-0.0552357010 -0.0254550970 -1 0
-0.0541623910 -0.0275354530 -1 0
-0.0531489710 -0.0296701530 -1 0
-0.0522583660 -0.0316591470 -1 -1
-0.0515484720 -0.0333126620 -1 -1
-0.0510664760 -0.0344725300 -1 -1
-0.0508433790 -0.0350294680 -1 -1
-0.0508912090 -0.0349341130 -1 -1
-0.0512036460 -0.0342015070 -1 -1
-0.0517583600 -0.0329088710 -1 -1
-0.0525193840 -0.0311863830 -1 -1
-0.0534396200 -0.0292016860 -1 0
-0.0544640410 -0.0271404540 -1 0
-0.0555332900 -0.0251871720 -1 0
-0.0565873750 -0.0235096090 -1 0
-0.0575704660 -0.0222475520 -1 0
-0.0584376060 -0.0215044150 -1 0
-0.0591618030 -0.0213398190 -1 0
-0.0597388290 -0.0217621620 -1 0
-0.0601879390 -0.0227239130 -1 0
-0.0605479530 -0.0241239450 -1 0
-0.0608693850 -0.0258172020 -1 0
-0.0612048320 -0.0276292050 -1 0
-0.0616007100 -0.0293746690 -1 0
-0.0620925910 -0.0308783710 -1 -1
-0.0627034740 -0.0319930890 -1 -1
-0.0634422090 -0.0326117190 -1 -1
-0.0643011970 -0.0326747410 -1 -1
-0.0652554950 -0.0321738110 -1 -1
-0.0662649900 -0.0311515540 -1 -1
-0.0672789150 -0.0296979490 -1 0
-0.0682413160 -0.0279422350 -1 0
-0.0690967920 -0.0260395540 -1 0
-0.0697962620 -0.0241563330 -1 0
-0.0703027170 -0.0224590790 -1 0
-0.0705964120 -0.0211043800 -1 0
-0.0706782260 -0.0202255010 -1 0
-0.0705701300 -0.0199165350 -1 0
-0.0703123800 -0.0202187370 -1 0
-0.0699581360 -0.0211129580 -1 0
-0.0695672770 -0.0225200750 -1 0
-0.0692008040 -0.0243089760 -1 0
-0.0689162540 -0.0263106130 -1 0
-0.0687645470 -0.0283363510 -1 0
-0.0687882420 -0.0301976220 -1 -1
-0.0690196060 -0.0317239520 -1 -1
-0.0694769480 -0.0327783080 -1 -1
-0.0701598830 -0.0332694940 -1 -1
-0.0710456200 -0.0331608230 -1 -1
-0.0720876310 -0.0324738170 -1 -1
-0.0732174400 -0.0312860010 -1 -1
-0.0743505560 -0.0297232750 -1 0
-0.0753964000 -0.0279481570 -1 0
-0.0762699480 -0.0261444120 -1 0
-0.0769025480 -0.0244984680 -1 0
-0.0772501470 -0.0231797640 -1 0
-0.0772974040 -0.0223226840 -1 0
-0.0770570070 -0.0220115190 -1 0
-0.0765657640 -0.0222698020 -1 0
-0.0758798720 -0.0230568110 -1 0
-0.0750697420 -0.0242739970 -1 0
-0.0742127570 -0.0257804100 -1 0
-0.0733836220 -0.0274118280 -1 0
-0.0726447560 -0.0289984670 -1 0
-0.0720395640 -0.0303799590 -1 -1
-0.0715895500 -0.0314181340 -1 -1
-0.0712947320 -0.0320078310 -1 -1
-0.0711363260 -0.0320859020 -1 -1
-0.0710806880 -0.0316379440 -1 -1
-0.0710837780 -0.0307009480 -1 -1
-0.0710959270 -0.0293604580 -1 0
-0.0710666890 -0.0277431150 -1 0
-0.0709490800 -0.0260058190 -1 0
-0.0707025970 -0.0243213810 -1 0
-0.0702954310 -0.0228604690 -1 0
-0.0697068520 -0.0217716190 -1 0
-0.0689301330 -0.0211633000 -1 0
-0.0679755770 -0.0210924780 -1 0
-0.0668728570 -0.0215618680 -1 0
-0.0656714180 -0.0225239030 -1 0
-0.0644373640 -0.0238872140 -1 0
-0.0632464050 -0.0255234460 -1 0
-0.0621745110 -0.0272753760 -1 0
-0.0612886680 -0.0289683300 -1 0
-0.0606393590 -0.0304260300 -1 -1
-0.0602555240 -0.0314900060 -1 -1
-0.0601423590 -0.0320389510 -1 -1
-0.0602817410 -0.0320036210 -1 -1
-0.0606346680 -0.0313749780 -1 -1
-0.0611453690 -0.0302055330 -1 -1
-0.0617464470 -0.0286045080 -1 0
-0.0623637020 -0.0267272670 -1 0
-0.0629202360 -0.0247595830 -1 0
-0.0633412560 -0.0228982020 -1 0
-0.0635608260 -0.0213300800 -1 0
-0.0635301680 -0.0202130490 -1 0
-0.0632255170 -0.0196602320 -1 0
-0.0626523760 -0.0197290650 -1 0
-0.0618443390 -0.0204152790 -1 0
-0.0608582360 -0.0216530800 -1 0
-0.0597685200 -0.0233224110 -1 0
-0.0586611410 -0.0252621070 -1 0
-0.0576255020 -0.0272860970 -1 0
-0.0567449140 -0.0291999470 -1 0
-0.0560880110 -0.0308164650 -1 -1
-0.0557030370 -0.0319708760 -1 -1
-0.0556147500 -0.0325365260 -1 -1
-0.0558227580 -0.0324401680 -1 -1
-0.0563010760 -0.0316735150 -1 -1
-0.0570002010 -0.0302979600 -1 -1
-0.0578529060 -0.0284411990 -1 0
-0.0587832900 -0.0262851190 -1 0
-0.0597169370 -0.0240451580 -1 0
-0.0605897100 -0.0219439460 -1 0
-0.0613531760 -0.0201840810 -1 0
-0.0619757030 -0.0189246740 -1 0
-0.0624400980 -0.0182659630 -1 0
-0.0627407290 -0.0182449440 -1 0
-0.0628828310 -0.0188398600 -1 0
-0.0628835460 -0.0199775150 -1 0
-0.0627721530 -0.0215404030 -1 0
-0.0625880820 -0.0233753990 -1 0
-0.0623769990 -0.0253061960 -1 0
-0.0621859930 -0.0271486210 -1 0
-0.0620591790 -0.0287260470 -1 0
-0.0620338800 -0.0298836170 -1 0
-0.0621356140 -0.0305021840 -1 -1
-0.0623713130 -0.0305116290 -1 -1
-0.0627240330 -0.0299006540 -1 0
-0.0631534970 -0.0287205780 -1 0
-0.0636030740 -0.0270822580 -1 0
-0.0640097910 -0.0251456430 -1 0
-0.0643137840 -0.0231022510 -1 0
-0.0644649960 -0.0211529560 -1 0
-0.0644261130 -0.0194850550 -1 0
-0.0641728450 -0.0182527520 -1 0
-0.0636939490 -0.0175635770 -1 0
-0.0629920210 -0.0174704670 -1 0
-0.0620845980 -0.0179676420 -1 0
-0.0610050310 -0.0189900380 -1 0
-0.0598024400 -0.0204176040 -1 0
-0.0585395890 -0.0220855340 -1 0
-0.0572886180 -0.0238023040 -1 0
-0.0561264490 -0.0253749200 -1 0
-0.0551308200 -0.0266337470 -1 0
-0.0543753310 -0.0274492680 -1 0
-0.0539212410 -0.0277407190 -1 0
-0.0538064150 -0.0274797290 -1 0
-0.0540357280 -0.0266900550 -1 0
-0.0545779930 -0.0254434710 -1 0
-0.0553710370 -0.0238520020 -1 0
-0.0563333080 -0.0220569040 -1 0
-0.0573787830 -0.0202149660 -1 0
-0.0584307730 -0.0184827970 -1 0
-0.0594306940 -0.0170016900 -1 0
-0.0603412890 -0.0158873720 -1 0
-0.0611463840 -0.0152256530 -1 0
-0.0618488330 -0.0150700890 -1 0
-0.0624668430 -0.0154382590 -1 0
-0.0630289040 -0.0163071710 -1 0
-0.0635687770 -0.0176106330 -1 0
-0.0641223750 -0.0192410690 -1 0
-0.0647266110 -0.0210569930 -1 0
-0.0654179280 -0.0228956560 -1 0
-0.0662283360 -0.0245888980 -1 0
-0.0671797450 -0.0259804120 -1 0
-0.0682797150 -0.0269428970 -1 0
-0.0695202340 -0.0273920270 -1 0
-0.0708781450 -0.0272941770 -1 0
-0.0723156700 -0.0266681240 -1 0
-0.0737815030 -0.0255829390 -1 0
-0.0752132470 -0.0241528160 -1 0
-0.0765408960 -0.0225279360 -1 0
-0.0776914020 -0.0208809310 -1 0
-0.0785957520 -0.0193897070 -1 0
-0.0791987480 -0.0182182930 -1 0
-0.0794681600 -0.0174984480 -1 0
-0.0793994000 -0.0173152290 -1 0
-0.0790156700 -0.0176983000 -1 0
-0.0783659750 -0.0186191000 -1 0
-0.0775218320 -0.0199937840 -1 0
-0.0765713670 -0.0216918500 -1 0
-0.0756095540 -0.0235495260 -1 0
-0.0747252800 -0.0253859930 -1 0
-0.0739882990 -0.0270207610 -1 0
-0.0734400420 -0.0282915250 -1 0
-0.0730905560 -0.0290712070 -1 0
-0.0729210260 -0.0292812590 -1 0
-0.0728897210 -0.0288991460 -1 0
-0.0729395920 -0.0279606320 -1 0
-0.0730064770 -0.0265581520 -1 0
-0.0730273370 -0.0248343630 -1 0
-0.0729477740 -0.0229688340 -1 0
-0.0727274360 -0.0211581760 -1 0
-0.0723423080 -0.0195932440 -1 0
-0.0717848650 -0.0184381610 -1 0
-0.0710639430 -0.0178143630 -1 0
-0.0702046360 -0.0177906630 -1 0
-0.0692465650 -0.0183790410 -1 0
-0.0682393770 -0.0195355110 -1 0
-0.0672370390 -0.0211645350 -1 0
-0.0662938820 -0.0231255260 -1 0
-0.0654629210 -0.0252425960 -1 0
-0.0647936570 -0.0273197110 -1 0
-0.0643272190 -0.0291602000 -1 0
-0.0640898230 -0.0305871620 -1 -1
-0.0640868740 -0.0314622060 -1 -1
-0.0642996760 -0.0317007000 -1 -1
-0.0646863760 -0.0312816610 -1 -1
-0.0651874950 -0.0302508920 -1 -1
-0.0657341960 -0.0287168260 -1 0
-0.0662563620 -0.0268392110 -1 0
-0.0666888700 -0.0248113220 -1 0
-0.0669762520 -0.0228373210 -1 0
-0.0670765870 -0.0211081910 -1 0
-0.0669646900 -0.0197811290 -1 0
-0.0666345050 -0.0189661390 -1 0
-0.0661012510 -0.0187200480 -1 0
-0.0654029350 -0.0190456420 -1 0
-0.0645984450 -0.0198936240 -1 0
-0.0637603060 -0.0211667980 -1 0
-0.0629647170 -0.0227275710 -1 0
-0.0622833950 -0.0244095410 -1 0
-0.0617784990 -0.0260321090 -1 0
-0.0614986620 -0.0274167130 -1 0
-0.0614747820 -0.0284041150 -1 0
-0.0617160540 -0.0288718340 -1 0
-0.0622075130 -0.0287490830 -1 0
-0.0629102170 -0.0280261130 -1 0
-0.0637644720 -0.0267558530 -1 0
-0.0646953390 -0.0250466140 -1 0
-0.0656191660 -0.0230474900 -1 0
-0.0664508120 -0.0209321410 -1 0
-0.0671120560 -0.0188850240 -1 0
-0.0675407810 -0.0170879450 -1 0
-0.0676990790 -0.0157037470 -1 0
-0.0675783030 -0.0148575680 -1 0
-0.0671997150 -0.0146193480 -1 0
-0.0666112290 -0.0149940210 -1 0
-0.0658822540 -0.0159232590 -1 0
-0.0650972060 -0.0172960530 -1 0
-0.0643463750 -0.0189639760 -1 0
-0.0637144160 -0.0207585840 -1 0
-0.0632696570 -0.0225081430 -1 0
-0.0630576880 -0.0240517610 -1 0
-0.0631000030 -0.0252508720 -1 0
-0.0633956970 -0.0259985530 -1 0
-0.0639238600 -0.0262273390 -1 0
-0.0646459000 -0.0259164960 -1 0
-0.0655080420 -0.0250986340 -1 0
-0.0664443360 -0.0238628120 -1 0
-0.0673803580 -0.0223495650 -1 0
-0.0682378570 -0.0207350690 -1 0
-0.0689409160 -0.0192067260 -1 0
-0.0694239260 -0.0179368480 -1 0
-0.0696400510 -0.0170612960 -1 0
-0.0695674390 -0.0166669180 -1 0
-0.0692113490 -0.0167882780 -1 0
-0.0686025590 -0.0174107300 -1 0
-0.0677936470 -0.0184755680 -1 0
-0.0668538140 -0.0198856110 -1 0
-0.0658620690 -0.0215124190 -1 0
-0.0648993540 -0.0232060180 -1 0
-0.0640406000 -0.0248063540 -1 0
-0.0633470520 -0.0261555200 -1 0
-0.0628595490 -0.0271109310 -1 0
-0.0625941760 -0.0275600430 -1 0
-0.0625412890 -0.0274352110 -1 0
-0.0626684640 -0.0267243210 -1 0
-0.0629270950 -0.0254738480 -1 0
-0.0632603630 -0.0237852510 -1 0
-0.0636091930 -0.0218069990 -1 0
-0.0639148470 -0.0197221550 -1 0
-0.0641203910 -0.0177304130 -1 0
-0.0641747040 -0.0160257360 -1 0
-0.0640401240 -0.0147734620 -1 0
-0.0637008490 -0.0140918580 -1 0
-0.0631680750 -0.0140417270 -1 0
-0.0624802350 -0.0146243710 -1 0
-0.0616988190 -0.0157853170 -1 0
-0.0609007320 -0.0174206490 -1 0
-0.0601687920 -0.0193848840 -1 0
-0.0595823440 -0.0215019590 -1 0
-0.0592088060 -0.0235807760 -1 0
-0.0590964260 -0.0254341250 -1 0
-0.0592695490 -0.0268974370 -1 0
-0.0597273600 -0.0278435330 -1 0
-0.0604451750 -0.0281919730 -1 0
-0.0613767180 -0.0279147770 -1 0
-0.0624572150 -0.0270403760 -1 0
-0.0636084750 -0.0256548680 -1 0
-0.0647467640 -0.0238981570 -1 0
-0.0657923980 -0.0219531690 -1 0
-0.0666782580 -0.0200276730 -1 0
-0.0673549880 -0.0183306530 -1 0
-0.0677932090 -0.0170475140 -1 0
-0.0679846190 -0.0163184670 -1 0
-0.0679428940 -0.0162229440 -1 0
-0.0677035640 -0.0167716810 -1 0
-0.0673212870 -0.0179069120 -1 0
-0.0668636930 -0.0195100740 -1 0
-0.0664030710 -0.0214155710 -1 0
-0.0660086940 -0.0234287340 -1 0
-0.0657413530 -0.0253461950 -1 0
-0.0656492230 -0.0269769480 -1 0
-0.0657638240 -0.0281621330 -1 0
-0.0660959740 -0.0287913350 -1 0
-0.0666324890 -0.0288131170 -1 0
-0.0673348630 -0.0282381940 -1 0
-0.0681413520 -0.0271348340 -1 0
-0.0689737430 -0.0256176640 -1 0
-0.0697489090 -0.0238330960 -1 0
-0.0703928920 -0.0219449930 -1 0
-0.0708531180 -0.0201220540 -1 0
-0.0711051460 -0.0185269510 -1 0
-0.0711537320 -0.0173071420 -1 0
-0.0710303490 -0.0165866050 -1 0
-0.0707894600 -0.0164564850 -1 0
-0.0705044280 -0.0169641950 -1 0
-0.0702618500 -0.0181050520 -1 0
-0.0701527710 -0.0198218690 -1 0
-0.0702616830 -0.0220131740 -1 0
-0.0706563360 -0.0245461290 -1 0
-0.0713812040 -0.0272702100 -1 0
-0.0724555120 -0.0300302860 -1 -1
-0.0738744040 -0.0326797920 -1 -1
-0.0756112120 -0.0350942470 -1 -1
-0.0776203130 -0.0371829580 -1 -1
-0.0798413780 -0.0388963440 -1 -1
-0.0822053560 -0.0402296080 -1 -1
-0.0846409730 -0.0412255320 -1 -1
-0.0870798130 -0.0419761350 -1 -1
-0.0894590600 -0.0426191400 -1 -1
-0.0917227160 -0.0433258810 -1 -1
-0.0938233090 -0.0442812390 -1 -1
-0.0957249960 -0.0456587020 -1 -1
-0.0974068550 -0.0475953540 -1 -1
-0.0988650750 -0.0501722810 -1 -1
-0.1001141960 -0.0534037090 -1 -1
-0.1011872630 -0.0572353060 -1 -1
-0.1021337350 -0.0615498860 -1 -1
-0.1030146900 -0.0661785820 -1 -1
-0.1038960750 -0.0709182770 -1 -1
-0.1048408500 -0.0755555150 -1 -1
-0.1059008890 -0.0798917490 -1 -1
-0.1071099730 -0.0837624140 -1 -1
-0.1084796230 -0.0870467880 -1 -1
-0.1099986410 -0.0896721220 -1 -1
-0.1116354100 -0.0916181230 -1 -1
-0.1133410570 -0.0929231220 -1 -1
-0.1150521780 -0.0936856670 -1 -1
-0.1166938730 -0.0940555210 -1 -1
-0.1181854160 -0.0942166670 -1 -1
-0.1194496620 -0.0943686190 -1 -1
-0.1204241350 -0.0947081140 -1 -1
-0.1210706000 -0.0954111390 -1 -1
-0.1213807930 -0.0966163520 -1 -1
-0.1213770470 -0.0984109160 -1 -1
-0.1211081950 -0.1008200550 -1 -1
-0.1206427660 -0.1038025730 -1 -1
-0.1200613260 -0.1072534670 -1 -1
-0.1194485150 -0.1110129100 -1 -1
-0.1188847990 -0.1148807130 -1 -1
-0.1184386870 -0.1186356880 -1 -1
-0.1181612370 -0.1220582150 -1 -1
-0.1180843770 -0.1249523240 -1 -1
-0.1182220460 -0.1271638290 -1 -1
-0.1185713020 -0.1285943720 -1 -1
-0.1191123570 -0.1292126240 -1 -1
-0.1198091940 -0.1290603740 -1 -1
-0.1206120850 -0.1282494310 -1 -1
-0.1214612830 -0.1269488590 -1 -1
-0.1222908210 -0.1253657470 -1 -1
-0.1230328650 -0.1237229870 -1 -1
-0.1236241200 -0.1222367810 -1 -1
-0.1240144190 -0.1210965560 -1 -1
-0.1241747530 -0.1204496440 -1 -1
-0.1241011690 -0.1203914220 -1 -1
-0.1238132990 -0.1209601160 -1 -1
-0.1233494740 -0.1221353830 -1 -1
-0.1227610300 -0.1238399310 -1 -1
-0.1221067150 -0.1259442070 -1 -1
-0.1214472170 -0.1282761700 -1 -1
-0.1208403030 -0.1306382270 -1 -1
-0.1203367740 -0.1328295930 -1 -1
-0.1199767210 -0.1346682160 -1 -1
-0.1197860440 -0.1360075620 -1 -1
-0.1197741240 -0.1367480480 -1 -1
-0.1199332120 -0.1368444170 -1 -1
-0.1202393760 -0.1363087300 -1 -1
-0.1206543400 -0.1352083840 -1 -1
-0.1211276740 -0.1336596390 -1 -1
-0.1215997760 -0.1318177120 -1 -1
-0.1220064840 -0.1298642060 -1 -1
-0.1222853190 -0.1279917540 -1 -1
-0.1223827900 -0.1263860350 -1 -1
-0.1222621880 -0.1252067620 -1 -1
-0.1219107080 -0.1245698360 -1 -1
-0.1213438990 -0.1245330020 -1 -1
-0.1206057390 -0.1250883840 -1 -1
-0.1197635570 -0.1261646300 -1 -1
-0.1188982870 -0.1276372000 -1 -1
-0.1180928510 -0.1293427330 -1 -1
-0.1174223040 -0.1310952260 -1 -1
-0.1169474930 -0.1327032400 -1 -1
-0.1167119330 -0.1339869110 -1 -1
-0.1167408380 -0.1347946150 -1 -1
-0.1170412230 -0.1350200240 -1 -1
-0.1176023380 -0.1346178280 -1 -1
-0.1183957850 -0.1336138320 -1 -1
-0.1193746910 -0.1321058600 -1 -1
-0.1204732900 -0.1302539910 -1 -1
-0.1216103810 -0.1282603530 -1 -1
-0.1226980090 -0.1263417150 -1 -1
-0.1236523030 -0.1247016800 -1 -1
-0.1244033440 -0.1235096790 -1 -1
-0.1249037850 -0.1228890220 -1 -1
-0.1251361080 -0.1229106050 -1 -1
-0.1251164990 -0.1235890640 -1 -1
-0.1248930160 -0.1248818020 -1 -1
-0.1245375550 -0.1266917440 -1 -1
-0.1241341320 -0.1288735220 -1 -1
-0.1237674280 -0.1312429560 -1 -1
-0.1235138860 -0.1335897680 -1 -1
-0.1234353590 -0.1356935790 -1 -1
-0.1235746390 -0.1373439890 -1 -1
-0.1239523550 -0.1383642310 -1 -1
-0.1245648190 -0.1386344210 -1 -1
-0.1253833820 -0.1381087950 -1 -1
-0.1263568250 -0.1368239820 -1 -1
-0.1274168930 -0.1348976190 -1 -1
-0.1284849030 -0.1325156840 -1 -1
-0.1294779790 -0.1299094010 -1 -1
-0.1303158320 -0.1273289520 -1 -1
-0.1309294380 -0.1250195120 -1 -1
-0.1312703870 -0.1231988200 -1 -1
-0.1313176800 -0.1220363900 -1 -1
-0.1310797750 -0.1216380550 -1 -1
-0.1305923300 -0.1220379380 -1 -1
-0.1299136710 -0.1231969690 -1 -1
-0.1291186500 -0.1250064250 -1 -1
-0.1282899940 -0.1272960660 -1 -1
-0.1275080740 -0.1298478480 -1 -1
-0.1268422490 -0.1324160610 -1 -1
-0.1263456320 -0.1347527050 -1 -1
-0.1260525760 -0.1366348790 -1 -1
-0.1259776920 -0.1378899760 -1 -1
-0.1261160220 -0.1384144140 -1 -1
-0.1264446380 -0.1381831510 -1 -1
-0.1269256070 -0.1372495170 -1 -1
-0.1275098530 -0.1357369460 -1 -1
-0.1281418570 -0.1338251690 -1 -1
-0.1287649830 -0.1317324710 -1 -1
-0.1293260450 -0.1296942080 -1 -1
-0.1297780240 -0.1279382550 -1 -1
-0.1300818130 -0.1266602060 -1 -1
-0.1302091560 -0.1260019650 -1 -1
-0.1301478380 -0.1260365210 -1 -1
-0.1299071440 -0.1267608230 -1 -1
-0.1295198110 -0.1280984530 -1 -1
-0.1290379940 -0.1299123680 -1 -1
-0.1285244220 -0.1320250390 -1 -1
-0.1280423290 -0.1342401630 -1 -1
-0.1276471030 -0.1363601500 -1 -1
-0.1273804630 -0.1381981970 -1 -1
-0.1272670430 -0.1395890500 -1 -1
-0.1273135580 -0.1404021280 -1 -1
-0.1275106710 -0.1405555450 -1 -1
-0.1278361790 -0.1400264880 -1 -1
-0.1282574660 -0.1388549240 -1 -1
-0.1287329540 -0.1371408130 -1 -1
-0.1292138980 -0.1350362260 -1 -1
-0.1296470370 -0.1327328150 -1 -1
-0.1299776070 -0.1304446920 -1 -1
-0.1301532110 -0.1283876810 -1 -1
-0.1301297740 -0.1267572840 -1 -1
-0.1298792420 -0.1257085570 -1 -1
-0.1293968790 -0.1253407790 -1 -1
-0.1287054290 -0.1256887270 -1 -1
-0.1278539670 -0.1267212460 -1 -1
-0.1269115050 -0.1283464090 -1 -1
-0.1259579130 -0.1304215460 -1 -1
-0.1250748020 -0.1327668150 -1 -1
-0.1243373050 -0.1351817510 -1 -1
-0.1238071170 -0.1374636830 -1 -1
-0.1235273930 -0.1394257900 -1 -1
-0.1235188750 -0.1409127610 -1 -1
-0.1237762080 -0.1418132660 -1 -1
-0.1242656030 -0.1420689020 -1 -1
-0.1249269220 -0.1416791750 -1 -1
-0.1256818140 -0.1407021600 -1 -1
-0.1264464710 -0.1392502280 -1 -1
-0.1271455490 -0.1374805130 -1 -1
-0.1277229960 -0.1355804510 -1 -1
-0.1281459150 -0.1337490640 -1 -1
-0.1284008450 -0.1321759950 -1 -1
-0.1284868140 -0.1310220350 -1 -1
-0.1284110550 -0.1304037010 -1 -1
-0.1281891900 -0.1303823590 -1 -1
-0.1278471250 -0.1309582550 -1 -1
-0.1274216220 -0.1320699380 -1 -1
-0.1269590280 -0.1335988910 -1 -1
-0.1265129810 -0.1353799030 -1 -1
-0.1261406300 -0.1372178110 -1 -1
-0.1258954320 -0.1389089540 -1 -1
-0.1258168790 -0.1402641800 -1 -1
-0.1259217150 -0.1411304360 -1 -1
-0.1262013460 -0.1414079220 -1 -1
-0.1266258060 -0.1410598650 -1 -1
-0.1271508510 -0.1401141490 -1 -1
-0.1277241990 -0.1386587890 -1 -1
-0.1282891030 -0.1368327830 -1 -1
-0.1287864120 -0.1348120060 -1 -1
-0.1291577340 -0.1327905150 -1 -1
-0.1293510700 -0.1309595070 -1 -1
-0.1293275340 -0.1294872820 -1 -1
-0.1290667400 -0.1285039830 -1 -1
-0.1285695740 -0.1280926650 -1 -1
-0.1278584400 -0.1282842780 -1 -1
-0.1269757750 -0.1290541890 -1 -1
-0.1259813430 -0.1303210840 -1 -1
-0.1249473780 -0.1319505550 -1 -1
-0.1239503400 -0.1337651040 -1 -1
-0.1230601640 -0.1355617180 -1 -1
-0.1223298100 -0.1371360700 -1 -1
-0.1217879580 -0.1383085430 -1 -1
-0.1214362040 -0.1389453070 -1 -1
-0.1212507410 -0.1389708320 -1 -1
-0.1211877350 -0.1383729630 -1 -1
-0.1211909440 -0.1372026380 -1 -1
-0.1211997160 -0.1355683200 -1 -1
-0.1211561070 -0.1336247630 -1 -1
-0.1210110820 -0.1315574180 -1 -1
-0.1207301300 -0.1295639540 -1 -1
-0.1202977520 -0.1278339080 -1 -1
-0.1197190280 -0.1265289900 -1 -1
-0.1190170670 -0.1257673580 -1 -1
-0.1182275160 -0.1256131420 -1 -1
-0.1173926600 -0.1260710980 -1 -1
-0.1165566100 -0.1270866420 -1 -1
-0.1157618740 -0.1285516810 -1 -1
-0.1150471340 -0.1303154440 -1 -1
-0.1144454760 -0.1321983600 -1 -1
-0.1139820200 -0.1340077460 -1 -1
-0.1136706730 -0.1355551760 -1 -1
-0.1135112340 -0.1366748810 -1 -1
-0.1134894650 -0.1372411230 -1 -1
-0.1135816250 -0.1371820450 -1 -1
-0.1137613920 -0.1364875670 -1 -1
-0.1140048820 -0.1352086100 -1 -1
-0.1142911270 -0.1334476680 -1 -1
-0.1145992050 -0.1313456900 -1 -1
-0.1149057930 -0.1290698670 -1 -1
-0.1151863340 -0.1268018770 -1 -1
-0.1154196050 -0.1247243260 -1 -1
-0.1155923580 -0.1230049390 -1 -1
-0.1157010110 -0.1217801370 -1 -1
-0.1157506270 -0.1211409360 -1 -1
-0.1157533100 -0.1211227490 -1 -1
-0.1157272120 -0.1216996930 -1 -1
-0.1156963620 -0.1227865040 -1 -1
-0.1156908480 -0.1242499620 -1 -1
-0.1157455510 -0.1259261640 -1 -1
-0.1158959540 -0.1276391140 -1 -1
-0.1161726710 -0.1292180590 -1 -1
-0.1165980100 -0.1305111340 -1 -1
-0.1171854990 -0.1313948700 -1 -1
-0.1179404880 -0.1317821070 -1 -1
-0.1188602710 -0.1316302580 -1 -1
-0.1199332000 -0.1309490010 -1 -1
-0.1211361880 -0.1298051330 -1 -1
-0.1224310830 -0.1283221540 -1 -1
-0.1237628640 -0.1266712540 -1 -1
-0.1250626860 -0.1250510960 -1 -1
-0.1262556300 -0.1236590710 -1 -1
-0.1272703650 -0.1226630310 -1 -1
-0.1280484580 -0.1221818660 -1 -1
-0.1285525690 -0.1222762580 -1 -1
-0.1287725510 -0.1229465350 -1 -1
-0.1287273260 -0.1241360470 -1 -1
-0.1284613420 -0.1257399700 -1 -1
-0.1280375390 -0.1276178060 -1 -1
-0.1275299630 -0.1296063640 -1 -1
-0.1270168350 -0.1315316190 -1 -1
-0.1265727350 -0.1332206660 -1 -1
-0.1262592160 -0.1345150190 -1 -1
-0.1261153720 -0.1352843570 -1 -1
-0.1261514870 -0.1354388850 -1 -1
-0.1263483330 -0.1349389680 -1 -1
-0.1266619720 -0.1338005690 -1 -1
-0.1270313360 -0.1320953000 -1 -1
-0.1273857410 -0.1299453850 -1 -1
-0.1276515550 -0.1275147830 -1 -1
-0.1277586860 -0.1249968560 -1 -1
-0.1276468660 -0.1225977920 -1 -1
-0.1272715300 -0.1205159350 -1 -1
-0.1266099460 -0.1189198810 -1 -1
-0.1256674470 -0.1179297160 -1 -1
-0.1244813740 -0.1176050380 -1 -1
-0.1231196810 -0.1179409110 -1 -1
-0.1216732290 -0.1188703980 -1 -1
-0.1202437140 -0.1202717010 -1 -1
-0.1189303630 -0.1219791830 -1 -1
-0.1178176110 -0.1237983550 -1 -1
-0.1169652200 -0.1255245770 -1 -1
-0.1164020030 -0.1269639840 -1 -1
-0.1161238040 -0.1279536960 -1 -1
-0.1160959480 -0.1283779360 -1 -1
-0.1162599960 -0.1281780250 -1 -1
-0.1165435750 -0.1273562500 -1 -1
-0.1168710380 -0.1259743090 -1 -1
-0.1171721620 -0.1241470160 -1 -1
-0.1173868190 -0.1220322150 -1 -1
-0.1174665680 -0.1198172540 -1 -1
-0.1173763080 -0.1177019130 -1 -1
-0.1170970310 -0.1158786740 -1 -1
-0.1166276970 -0.1145128280 -1 -1
-0.1159852060 -0.1137251070 -1 -1
-0.1152033130 -0.1135784000 -1 -1
-0.1143306020 -0.1140693500 -1 -1
-0.1134268580 -0.1151265000 -1 -1
-0.1125577900 -0.1166169910 -1 -1
-0.1117885810 -0.1183615490 -1 -1
-0.1111767630 -0.1201549330 -1 -1
-0.1107652520 -0.1217884040 -1 -1
-0.1105770510 -0.1230717710 -1 -1
-0.1106130500 -0.1238533600 -1 -1
-0.1108530800 -0.1240365460 -1 -1
-0.1112592740 -0.1235909850 -1 -1
-0.1117804600 -0.1225557810 -1 -1
-0.1123567270 -0.1210328220 -1 -1
-0.1129237010 -0.1191714130 -1 -1
-0.1134162520 -0.1171485660 -1 -1
-0.1137719150 -0.1151502420 -1 -1
-0.1139349450 -0.1133551790 -1 -1
-0.1138617490 -0.1119205690 -1 -1
-0.1135272950 -0.1109695560 -1 -1
-0.1129305930 -0.1105802250 -1 -1
-0.1120970390 -0.1107769130 -1 -1
-0.1110769810 -0.1115268730 -1 -1
-0.1099409130 -0.1127428340 -1 -1
-0.1087718420 -0.1142896470 -1 -1
-0.1076561660 -0.1159957570 -1 -1
-0.1066751870 -0.1176713050 -1 -1
-0.1058982600 -0.1191306380 -1 -1
-0.1053773750 -0.1202138770 -1 -1
-0.1051428770 -0.1208033980 -1 -1
-0.1052005400 -0.1208337780 -1 -1
-0.1055310430 -0.1202954750 -1 -1
-0.1060927250 -0.1192329270 -1 -1
-0.1068267620 -0.1177377530 -1 -1
-0.1076628900 -0.1159382590 -1 -1
-0.1085251760 -0.1139869440 -1 -1
-0.1093392040 -0.1120475880 -1 -1
-0.1100410860 -0.1102833820 -1 -1
-0.1105850190 -0.1088463940 -1 -1
-0.1109448330 -0.1078669480 -1 -1
-0.1111096860 -0.1074414220 -1 -1
-0.1110788680 -0.1076193150 -1 -1
-0.1108598570 -0.1083932440 -1 -1
-0.1104696660 -0.1096959530 -1 -1
-0.1099368610 -0.1114050480 -1 -1
-0.1093017310 -0.1133534620 -1 -1
-0.1086136490 -0.1153447480 -1 -1
-0.1079254660 -0.1171734140 -1 -1
-0.1072851960 -0.1186484170 -1 -1
-0.1067266930 -0.1196158440 -1 -1
-0.1062623880 -0.1199771420 -1 -1
-0.1058807720 -0.1197007860 -1 -1
-0.1055497280 -0.1188259520 -1 -1
-0.1052250580 -0.1174571180 -1 -1
-0.1048617370 -0.1157501790 -1 -1
-0.1044239500 -0.1138927460 -1 -1
-0.1038905000 -0.1120825230 -1 -1
-0.1032551270 -0.1105071810 -1 -1
-0.1025239650 -0.1093272080 -1 -1
-0.1017120100 -0.1086621280 -1 -1
-0.1008392420 -0.1085809290 -1 -1
-0.0999279600 -0.1090963700 -1 -1
-0.0990035910 -0.1101616980 -1 -1
-0.0980979520 -0.1116710050 -1 -1
-0.0972505140 -0.1134671810 -1 -1
-0.0965049300 -0.1153586550 -1 -1
-0.0959025450 -0.1171414310 -1 -1
-0.0954761220 -0.1186218830 -1 -1
-0.0952455680 -0.1196371240 -1 -1
-0.0952159970 -0.1200706240 -1 -1
-0.0953776530 -0.1198620790 -1 -1
-0.0957068660 -0.1190119760 -1 -1
-0.0961677000 -0.1175812900 -1 -1
-0.0967143790 -0.1156858980 -1 -1
-0.0972944310 -0.1134859410 -1 -1
-0.0978523960 -0.1111721360 -1 -1
-0.0983345340 -0.1089503390 -1 -1
-0.0986949040 -0.1070237000 -1 -1
-0.0989017940 -0.1055731410 -1 -1
-0.0989425850 -0.1047393290 -1 -1
-0.0988260700 -0.1046080820 -1 -1
-0.0985820630 -0.1051997360 -1 -1
-0.0982583250 -0.1064646000 -1 -1
-0.0979156120 -0.1082870470 -1 -1
-0.0976221370 -0.1104971220 -1 -1
-0.0974480300 -0.1128861760 -1 -1
-0.0974592670 -0.1152256660 -1 -1
-0.0977103790 -0.1172900230 -1 -1
-0.0982365140 -0.1188811190 -1 -1
-0.0990472470 -0.1198491290 -1 -1
-0.1001246120 -0.1201068310 -1 -1
-0.1014254150 -0.1196372880 -1 -1
-0.1028856160 -0.1184946110 -1 -1
-0.1044251390 -0.1167970820 -1 -1
-0.1059539110 -0.1147141130 -1 -1
-0.1073801090 -0.1124501650 -1 -1
-0.1086195280 -0.1102270600 -1 -1
-0.1096042200 -0.1082641130 -1 -1
-0.1102892900 -0.1067564030 -1 -1
-0.1106569380 -0.1058536170 -1 -1
-0.1107170000 -0.1056431730 -1 -1
-0.1105041340 -0.1061409740 -1 -1
-0.1100724110 -0.1072918260 -1 -1
-0.1094885710 -0.1089792520 -1 -1
-0.1088255020 -0.1110415000 -1 -1
-0.1081571460 -0.1132891070 -1 -1
-0.1075547840 -0.1155212030 -1 -1
-0.1070834970 -0.1175398840 -1 -1
-0.1067976940 -0.1191630020 -1 -1
-0.1067357930 -0.1202373470 -1 -1
-0.1069152140 -0.1206538500 -1 -1
-0.1073292320 -0.1203618040 -1 -1
-0.1079471280 -0.1193764140 -1 -1
-0.1087184750 -0.1177775310 -1 -1
-0.1095807780 -0.1157020100 -1 -1
-0.1104682820 -0.1133322980 -1 -1
-0.1113196280 -0.1108811250 -1 -1
-0.1120831360 -0.1085709390 -1 -1
-0.1127199080 -0.1066090820 -1 -1
-0.1132060850 -0.1051630730 -1 -1
-0.1135352710 -0.1043410460 -1 -1
-0.1137203360 -0.1041807510 -1 -1
-0.1137925310 -0.1046487250 -1 -1
-0.1137967470 -0.1056488910 -1 -1
-0.1137837950 -0.1070368200 -1 -1
-0.1138023060 -0.1086350710 -1 -1
-0.1138926850 -0.1102479960 -1 -1
-0.1140833900 -0.1116774390 -1 -1
-0.1143882370 -0.1127405850 -1 -1
-0.1148042380 -0.1132889630 -1 -1
-0.1153107900 -0.1132256900 -1 -1
-0.1158710120 -0.1125172430 -1 -1
-0.1164351320 -0.1111973550 -1 -1
-0.1169455350 -0.1093632170 -1 -1
-0.1173434170 -0.1071647300 -1 -1
-0.1175765560 -0.1047878180 -1 -1
-0.1176064930 -0.1024359500 -1 -1
-0.1174133330 -0.1003138950 -1 -1
-0.1169973820 -0.0986116430 -1 -1
-0.1163773520 -0.0974852500 -1 -1
-0.1155854810 -0.0970376000 -1 -1
-0.1146614170 -0.0973050500 -1 -1
-0.1136475080 -0.0982529550 -1 -1
-0.1125866880 -0.0997796840 -1 -1
-0.1115221800 -0.1017264280 -1 -1
-0.1104975650 -0.1038904890 -1 -1
-0.1095561070 -0.1060436160 -1 -1
-0.1087385760 -0.1079572030 -1 -1
-0.1080796130 -0.1094302500 -1 -1
-0.1076032690 -0.1103130100 -1 -1
-0.1073186740 -0.1105227460 -1 -1
-0.1072171950 -0.1100509130 -1 -1
-0.1072727730 -0.1089610750 -1 -1
-0.1074459490 -0.1073781100 -1 -1
-0.1076899350 -0.1054720760 -1 -1
-0.1079560340 -0.1034405360 -1 -1
-0.1081971050 -0.1014905420 -1 -1
-0.1083700220 -0.0998201210 -1 -1
-0.1084388250 -0.0986005590 -1 -1
-0.1083787840 -0.0979617320 -1 -1
-0.1081798570 -0.0979810790 -1 -1
-0.1078482450 -0.0986750990 -1 -1
-0.1074062760 -0.0999932230 -1 -1
-0.1068912460 -0.1018171060 -1 -1
-0.1063529550 -0.1039693960 -1 -1
-0.1058494600 -0.1062320670 -1 -1
-0.1054409820 -0.1083701660 -1 -1
-0.1051821200 -0.1101573350 -1 -1
-0.1051131340 -0.1114009660 -1 -1
-0.1052523000 -0.1119642340 -1 -1
-0.1055914720 -0.1117811050 -1 -1
-0.1060960430 -0.1108612200 -1 -1
-0.1067090330 -0.1092848890 -1 -1
-0.1073575350 -0.1071912880 -1 -1
-0.1079600070 -0.1047627380 -1 -1
-0.1084354050 -0.1022070360 -1 -1
-0.1087148680 -0.0997398930 -1 -1
-0.1087523540 -0.0975683120 -1 -1
-0.1085288270 -0.0958738520 -1 -1
-0.1080489510 -0.0947950460 -1 -1
-0.1073339500 -0.0944110800 -1 -1
-0.1064152060 -0.0947314170 -1 -1
-0.1053309410 -0.0956952360 -1 -1
-0.1041253860 -0.0971804210 -1 -1
-0.1028485200 -0.0990185750 -1 -1
-0.1015549810 -0.1010127760 -1 -1
-0.1003014630 -0.1029562490 -1 -1
-0.0991424920 -0.1046511280 -1 -1
-0.0981247800 -0.1059267920 -1 -1
-0.0972810680 -0.1066563740 -1 -1
-0.0966254390 -0.1067691560 -1 -1
-0.0961515100 -0.1062566280 -1 -1
-0.0958331430 -0.1051714310 -1 -1
-0.0956274810 -0.1036205620 -1 -1
-0.0954809170 -0.1017551500 -1 -1
-0.0953373080 -0.0997575000 -1 -1
-0.0951461290 -0.0978243300 -1 -1
-0.0948686930 -0.0961464130 -1 -1
-0.0944822270 -0.0948879210 -1 -1
-0.0939824780 -0.0941697950 -1 -1
-0.0933849880 -0.0940596860 -1 -1
-0.0927243110 -0.0945684370 -1 -1
-0.0920509460 -0.0956517320 -1 -1
-0.0914267910 -0.0972154290 -1 -1
-0.0909196850 -0.0991234800 -1 -1
-0.0905968670 -0.1012081800 -1 -1
-0.0905175350 -0.1032835310 -1 -1
-0.0907254790 -0.1051617410 -1 -1
-0.0912432560 -0.1066709880 -1 -1
-0.0920690560 -0.1076715030 -1 -1
-0.0931760550 -0.1080668990 -1 -1
-0.0945135100 -0.1078099240 -1 -1
-0.0960105380 -0.1069053080 -1 -1
-0.0975842050 -0.1054119360 -1 -1
-0.0991507880 -0.1034429480 -1 -1
-0.1006355530 -0.1011598550 -1 -1
-0.1019768540 -0.0987576900 -1 -1
-0.1031253210 -0.0964438560 -1 -1
-0.1040425710 -0.0944167940 -1 -1
-0.1047024870 -0.0928470020 -1 -1
-0.1050946440 -0.0918600370 -1 -1
-0.1052276300 -0.0915221560 -1 -1
-0.1051302990 -0.0918299390 -1 -1
-0.1048500160 -0.0927064570 -1 -1
-0.1044478230 -0.0940080500 -1 -1
-0.1039915740 -0.0955437620 -1 -1
-0.1035488050 -0.0971036460 -1 -1
-0.1031807350 -0.0984876800 -1 -1
-0.1029383560 -0.0995283480 -1 -1
-0.1028607250 -0.1001047440 -1 -1
-0.1029737560 -0.1001494830 -1 -1
-0.1032875070 -0.0996507440 -1 -1
-0.1037923460 -0.0986508970 -1 -1
-0.1044558830 -0.0972413560 -1 -1
-0.1052222320 -0.0955536260 -1 -1
-0.1060152850 -0.0937481780 -1 -1
-0.1067473790 -0.0920022690 -1 -1
-0.1073325760 -0.0904958140 -1 -1
-0.1077011570 -0.0893943400 -1 -1
-0.1078112130 -0.0888305220 -1 -1
-0.1076543490 -0.0888882010 -1 -1
-0.1072547320 -0.0895923750 -1 -1
-0.1066627110 -0.0909060650 -1 -1
-0.1059453170 -0.0927330900 -1 -1
-0.1051763000 -0.0949255250 -1 -1
-0.1044280640 -0.0972959590 -1 -1
-0.1037666500 -0.0996354880 -1 -1
-0.1032494430 -0.1017360190 -1 -1
-0.1029238940 -0.1034121530 -1 -1
-0.1028249640 -0.1045184560 -1 -1
-0.1029706070 -0.1049614720 -1 -1
-0.1033571450 -0.1047076500 -1 -1
-0.1039572300 -0.1037875010 -1 -1
-0.1047215890 -0.1022944970 -1 -1
-0.1055836520 -0.1003766260 -1 -1
-0.1064653310 -0.0982207770 -1 -1
-0.1072835820 -0.0960328070 -1 -1
-0.1079585390 -0.0940165000 -1 -1
-0.1084228990 -0.0923547020 -1 -1
-0.1086305160 -0.0911956070 -1 -1
-0.1085621400 -0.0906436930 -1 -1
-0.1082272370 -0.0907518820 -1 -1
-0.1076614940 -0.0915139750 -1 -1
-0.1069209490 -0.0928605850 -1 -1
-0.1060751450 -0.0946626410 -1 -1
-0.1052008400 -0.0967437370 -1 -1
-0.1043760060 -0.0988985170 -1 -1
-0.1036735430 -0.1009126250 -1 -1
-0.1031545270 -0.1025826430 -1 -1
-0.1028610740 -0.1037371670 -1 -1
-0.1028099690 -0.1042578960 -1 -1
-0.1029892420 -0.1040950240 -1 -1
-0.1033590900 -0.1032712400 -1 -1
-0.1038569220 -0.1018747010 -1 -1
-0.1044054840 -0.1000457440 -1 -1
-0.1049223970 -0.0979613740 -1 -1
-0.1053290890 -0.0958196150 -1 -1
-0.1055583170 -0.0938244850 -1 -1
-0.1055610790 -0.0921704660 -1 -1
-0.1053130940 -0.0910248580 -1 -1
-0.1048191400 -0.0905092330 -1 -1
-0.1041133860 -0.0906840250 -1 -1
-0.1032553190 -0.0915401050 -1 -1
-0.1023219950 -0.0929988290 -1 -1
-0.1013982090 -0.0949193810 -1 -1
-0.1005666830 -0.0971122110 -1 -1
-0.0998996630 -0.0993594850 -1 -1
-0.0994521280 -0.1014417210 -1 -1
-0.0992569640 -0.1031641960 -1 -1
-0.0993228240 -0.1043764720 -1 -1
-0.0996343340 -0.1049840280 -1 -1
-0.1001536740 -0.1049537280 -1 -1
-0.1008237960 -0.1043135130 -1 -1
-0.1015745400 -0.1031465380 -1 -1
-0.1023314810 -0.1015812130 -1 -1
-0.1030247880 -0.0997786360 -1 -1
-0.1035952880 -0.0979181900 -1 -1
-0.1039973520 -0.0961819710 -1 -1
-0.1041998220 -0.0947385220 -1 -1
-0.1041857720 -0.0937267240 -1 -1
-0.1039516790 -0.0932418490 -1 -1
-0.1035070170 -0.0933252830 -1 -1
-0.1028745180 -0.0939579760 -1 -1
-0.1020898130 -0.0950587920 -1 -1
-0.1011992800 -0.0964906390 -1 -1
-0.1002565890 -0.0980758220 -1 -1
-0.0993188470 -0.0996178370 -1 -1
-0.0984421630 -0.1009240350 -1 -1
-0.0976762510 -0.1018249180 -1 -1
-0.0970585030 -0.1021895660 -1 -1
