-0.1025433580 -0.0237686320 -1 0
-0.1028724690 -0.0253374170 -1 0
-0.1035695840 -0.0256895710 -1 0
-0.1045423360 -0.0248202440 -1 0
-0.1056774800 -0.0228438560 -1 0
-0.1068498310 -0.0199794700 -1 0
-0.1079329680 -0.0165267990 -1 0
-0.1088114450 -0.0128368220 -1 0
-0.1093930700 -0.0092796510 -1 0
-0.1096187380 -0.0062113000 -1 0
-0.1094678450 -0.0039414030 -1 0
-0.1089590520 -0.0027050720 -1 0
-0.1081474960 -0.0026418550 -1 0
-0.1071196850 -0.0037828160 -1 0
-0.1059858500 -0.0060454560 -1 0
-0.1048688840 -0.0092371820 -1 0
-0.1038908940 -0.0130697320 -1 0
-0.1031605850 -0.0171857690 -1 0
-0.1027637110 -0.0211943680 -1 0
-0.1027566170 -0.0247099660 -1 0
-0.1031619470 -0.0273907080 -1 0
-0.1039657360 -0.0289718580 -1 0
-0.1051154860 -0.0292900840 -1 0
-0.1065203370 -0.0282994590 -1 0
-0.1080557700 -0.0260808970 -1 0
-0.1095742450 -0.0228398280 -1 0
-0.1109209240 -0.0188878240 -1 0
-0.1119523870 -0.0146125060 -1 0
-0.1125551250 -0.0104394570 -1 0
-0.1126595280 -0.0067870000 -1 0
-0.1122460900 -0.0040200850 -1 0
-0.1113439350 -0.0024117620 -1 0
-0.1100250630 -0.0021163740 -1 0
-0.1083976420 -0.0031551560 -1 0
-0.1065982220 -0.0054130550 -1 0
-0.1047806480 -0.0086468610 -1 0
-0.1031010910 -0.0125082050 -1 0
-0.1017011780 -0.0165832560 -1 0
-0.1006922890 -0.0204438310 -1 0
-0.1001436940 -0.0236980000 -1 0
-0.1000764140 -0.0260294120 -1 0
-0.1004639060 -0.0272233950 -1 0
-0.1012389280 -0.0271827470 -1 0
-0.1023035520 -0.0259337190 -1 0
-0.1035389610 -0.0236208380 -1 0
-0.1048144410 -0.0204906660 -1 0
-0.1059973410 -0.0168662460 -1 0
-0.1069648780 -0.0131145370 -1 0
-0.1076157380 -0.0096100080 -1 0
-0.1078788880 -0.0066985570 -1 0
-0.1077193900 -0.0046653970 -1 0
-0.1071421040 -0.0037087900 -1 0
-0.1061923990 -0.0039211480 -1 0
-0.1049523210 -0.0052802790 -1 0
-0.1035325480 -0.0076529940 -1 0
-0.1020615820 -0.0108097800 -1 0
-0.1006732980 -0.0144473460 -1 0
-0.0994939910 -0.0182166610 -1 0
-0.0986304930 -0.0217542750 -1 0
-0.0981605900 -0.0247144780 -1 0
-0.0981261800 -0.0268006230 -1 0
-0.0985291190 -0.0277942650 -1 0
-0.0993298900 -0.0275797860 -1 0
-0.1004502240 -0.0261606550 -1 0
-0.1017806800 -0.0236633410 -1 0
-0.1031924090 -0.0203271080 -1 0
-0.1045509270 -0.0164806770 -1 0
-0.1057299580 -0.0125083430 -1 0
-0.1066237470 -0.0088094110 -1 0
-0.1071562880 -0.0057559170 -1 0
-0.1072864310 -0.0036540110 -1 0
-0.1070092360 -0.0027138180 -1 0
-0.1063552350 -0.0030308810 -1 0
-0.1053886550 -0.0045799260 -1 0
-0.1042037270 -0.0072199150 -1 0
-0.1029174680 -0.0107087570 -1 0
-0.1016583460 -0.0147257980 -1 0
-0.1005521280 -0.0189002540 -1 0
-0.0997078210 -0.0228446380 -1 0
-0.0992065080 -0.0261912400 -1 0
-0.0990941320 -0.0286269760 -1 0
-0.0993782350 -0.0299228200 -1 0
-0.1000287330 -0.0299569040 -1 0
-0.1009818530 -0.0287290100 -1 0
-0.1021460050 -0.0263617930 -1 0
-0.1034095970 -0.0230873190 -1 0
-0.1046511970 -0.0192226230 -1 0
-0.1057513900 -0.0151387230 -1 0
-0.1066052320 -0.0112258690 -1 0
-0.1071339050 -0.0078575580 -1 0
-0.1072937370 -0.0053562570 -1 0
-0.1070811060 -0.0039633170 -1 0
-0.1065325720 -0.0038150090 -1 0
-0.1057198640 -0.0049269970 -1 0
-0.1047403830 -0.0071903810 -1 0
-0.1037052850 -0.0103818640 -1 0
-0.1027271690 -0.0141877920 -1 0
-0.1019085710 -0.0182382370 -1 0
-0.1013325450 -0.0221451450 -1 0
-0.1010559970 -0.0255391120 -1 0
-0.1011050210 -0.0281016740 -1 0
-0.1014719320 -0.0295914910 -1 0
-0.1021151000 -0.0298630520 -1 0
-0.1029624730 -0.0288781790 -1 0
-0.1039189280 -0.0267110680 -1 0
-0.1048769100 -0.0235439410 -1 0
-0.1057285250 -0.0196505530 -1 0
-0.1063767140 -0.0153706300 -1 0
-0.1067441420 -0.0110789280 -1 0
-0.1067795200 -0.0071500450 -1 0
-0.1064612010 -0.0039211520 -1 0
-0.1057982380 -0.0016563590 -1 0
-0.1048300180 -0.0005193450 -1 0
-0.1036255430 -0.0005609000 -1 0
-0.1022814320 -0.0017192010 -1 0
-0.1009160650 -0.0038260790 -1 0
-0.0996582020 -0.0066204320 -1 0
-0.0986310470 -0.0097735340 -1 0
-0.0979355670 -0.0129240190 -1 0
-0.0976376020 -0.0157164520 -1 0
-0.0977608750 -0.0178388830 -1 0
-0.0982851510 -0.0190548940 -1 0
-0.0991485990 -0.0192262720 -1 0
-0.1002542680 -0.0183249810 -1 0
-0.1014799780 -0.0164350340 -1 0
-0.1026897830 -0.0137450050 -1 0
-0.1037458760 -0.0105313130 -1 0
-0.1045213840 -0.0071324910 -1 0
-0.1049142590 -0.0039160890 -1 0
-0.1048604350 -0.0012417520 -1 0
-0.1043429080 0.0005755000 -1 0
-0.1033941450 0.0012988170 -1 0
-0.1020914970 0.0007969360 -1 0
-0.1005475140 -0.0009386710 -1 0
-0.0988976140 -0.0037905150 -1 0
-0.0972866670 -0.0075263470 -1 0
-0.0958550940 -0.0118228270 -1 0
-0.0947253220 -0.0162978380 -1 0
-0.0939902870 -0.0205469970 -1 0
-0.0937054160 -0.0241812090 -1 0
-0.0938848920 -0.0268638660 -1 0
-0.0945023950 -0.0283454910 -1 0
-0.0954955900 -0.0284915010 -1 0
-0.0967728340 -0.0272987320 -1 0
-0.0982210230 -0.0248978620 -1 0
-0.0997147510 -0.0215406780 -1 0
-0.1011269350 -0.0175731410 -1 0
-0.1023400480 -0.0133977480 -1 0
-0.1032565410 -0.0094310290 -1 0
-0.1038074300 -0.0060622700 -1 0
-0.1039586560 -0.0036172210 -1 0
-0.1037149500 -0.0023287170 -1 0
-0.1031203310 -0.0023163530 -1 0
-0.1022546690 -0.0035777250 -1 0
-0.1012266670 -0.0059918850 -1 0
-0.1001634390 -0.0093320640 -1 0
-0.0991962410 -0.0132849230 -1 0
-0.0984436630 -0.0174772950 -1 0
-0.0979961970 -0.0215108740 -1 0
-0.0979059560 -0.0250007240 -1 0
-0.0981828710 -0.0276121740 -1 0
-0.0987968350 -0.0290931200 -1 0
-0.0996842640 -0.0292999470 -1 0
-0.1007566230 -0.0282139850 -1 0
-0.1019087420 -0.0259444650 -1 0
-0.1030268860 -0.0227162810 -1 0
-0.1039979030 -0.0188448360 -1 0
-0.1047198480 -0.0147026290 -1 0
-0.1051127620 -0.0106825920 -1 0
-0.1051278380 -0.0071620570 -1 0
-0.1047537120 -0.0044692220 -1 0
-0.1040189600 -0.0028532910 -1 0
-0.1029895990 -0.0024611780 -1 0
-0.1017609650 -0.0033244970 -1 0
-0.1004457210 -0.0053577960 -1 0
-0.0991617970 -0.0083668120 -1 0
-0.0980225510 -0.0120661260 -1 0
-0.0971283450 -0.0161055510 -1 0
-0.0965580080 -0.0201030140 -1 0
-0.0963603800 -0.0236802640 -1 0
-0.0965478930 -0.0264981190 -1 0
-0.0970942430 -0.0282895290 -1 0
-0.0979367950 -0.0288882220 -1 0
-0.0989830030 -0.0282482760 -1 0
-0.1001197920 -0.0264499160 -1 0
-0.1012249220 -0.0236903490 -1 0
-0.1021794740 -0.0202619860 -1 0
-0.1028803250 -0.0165217430 -1 0
-0.1032505320 -0.0128551080 -1 0
-0.1032458190 -0.0096388710 -1 0
-0.1028570420 -0.0072060010 -1 0
-0.1021097890 -0.0058146330 -1 0
-0.1010624320 -0.0056227490 -1 0
-0.0998031660 -0.0066711170 -1 0
-0.0984452130 -0.0088762230 -1 0
-0.0971187240 -0.0120343670 -1 0
-0.0959588330 -0.0158392020 -1 0
-0.0950908310 -0.0199133510 -1 0
-0.0946143720 -0.0238493440 -1 0
-0.0945893260 -0.0272520730 -1 0
-0.0950264750 -0.0297775040 -1 0
-0.0958855840 -0.0311659310 -1 -1
-0.0970806780 -0.0312685400 -1 -1
-0.0984900840 -0.0300644450 -1 -1
-0.0999687470 -0.0276642490 -1 0
-0.1013616470 -0.0242980060 -1 0
-0.1025180400 -0.0202895770 -1 0
-0.1033059200 -0.0160222020 -1 0
-0.1036248200 -0.0119003010 -1 0
-0.1034150360 -0.0083114140 -1 0
-0.1026631580 -0.0055908580 -1 0
-0.1014047610 -0.0039908860 -1 0
-0.0997239430 -0.0036566600 -1 0
-0.0977483260 -0.0046120430 -1 0
-0.0956384100 -0.0067572230 -1 0
-0.0935711610 -0.0098783740 -1 0
-0.0917197000 -0.0136683810 -1 0
-0.0902333570 -0.0177574080 -1 0
-0.0892220730 -0.0217499890 -1 0
-0.0887463580 -0.0252619430 -1 0
-0.0888126250 -0.0279524040 -1 0
-0.0893742970 -0.0295510080 -1 0
-0.0903386250 -0.0298807190 -1 0
-0.0915779530 -0.0288770120 -1 0
-0.0929440190 -0.0266037950 -1 0
-0.0942833310 -0.0232585670 -1 0
-0.0954507960 -0.0191563840 -1 0
-0.0963206870 -0.0146943610 -1 0
-0.0967967790 -0.0103078180 -1 0
-0.0968222270 -0.0064240170 -1 0
-0.0963862380 -0.0034154930 -1 0
-0.0955243920 -0.0015602290 -1 0
-0.0943128390 -0.0010164820 -1 0
-0.0928590220 -0.0018122000 -1 0
-0.0912910540 -0.0038458320 -1 0
-0.0897465980 -0.0068981530 -1 0
-0.0883614470 -0.0106546560 -1 0
-0.0872579860 -0.0147373030 -1 0
-0.0865340560 -0.0187444150 -1 0
-0.0862532380 -0.0222923820 -1 0
-0.0864377790 -0.0250506660 -1 0
-0.0870652220 -0.0267683380 -1 0
-0.0880695030 -0.0272948070 -1 0
-0.0893472470 -0.0265946120 -1 0
-0.0907692690 -0.0247533630 -1 0
-0.0921955360 -0.0219719790 -1 0
-0.0934907400 -0.0185481370 -1 0
-0.0945378460 -0.0148461600 -1 0
-0.0952482020 -0.0112584880 -1 0
-0.0955686190 -0.0081632050 -1 0
-0.0954864020 -0.0058833080 -1 0
-0.0950322070 -0.0046533760 -1 0
-0.0942792020 -0.0045974990 -1 0
-0.0933364140 -0.0057197340 -1 0
-0.0923354430 -0.0079063860 -1 0
-0.0914131970 -0.0109383910 -1 0
-0.0906953620 -0.0145121830 -1 0
-0.0902837100 -0.0182685850 -1 0
-0.0902474240 -0.0218283380 -1 0
-0.0906177730 -0.0248299190 -1 0
-0.0913861530 -0.0269651670 -1 0
-0.0925058150 -0.0280097530 -1 0
-0.0938971890 -0.0278452850 -1 0
-0.0954558130 -0.0264704290 -1 0
-0.0970618690 -0.0240009800 -1 0
-0.0985908230 -0.0206601910 -1 0
-0.0999245130 -0.0167596090 -1 0
-0.1009613770 -0.0126696530 -1 0
-0.1016247870 -0.0087817000 -1 0
-0.1018689680 -0.0054680120 -1 0
-0.1016821530 -0.0030461990 -1 0
-0.1010872340 -0.0017505670 -1 0
-0.1001406060 -0.0017104280 -1 0
-0.0989291710 -0.0029364550 -1 0
-0.0975647790 -0.0053165950 -1 0
-0.0961756330 -0.0086234620 -1 0
-0.0948950250 -0.0125353260 -1 0
-0.0938483880 -0.0166695100 -1 0
-0.0931399100 -0.0206222000 -1 0
-0.0928400440 -0.0240081070 -1 0
-0.0929755540 -0.0264966730 -1 0
-0.0935242910 -0.0278431010 -1 0
-0.0944164290 -0.0279118250 -1 0
-0.0955420500 -0.0266901250 -1 0
-0.0967638950 -0.0242904190 -1 0
-0.0979337820 -0.0209402330 -1 0
-0.0989103360 -0.0169599270 -1 0
-0.0995748190 -0.0127303790 -1 0
-0.0998423200 -0.0086545850 -1 0
-0.0996675840 -0.0051177160 -1 0
-0.0990466340 -0.0024502130 -1 0
-0.0980159520 -0.0008979650 -1 0
-0.0966498230 -0.0006017230 -1 0
-0.0950546180 -0.0015855510 -1 0
-0.0933588590 -0.0037535720 -1 0
-0.0917003690 -0.0068958780 -1 0
-0.0902136820 -0.0107055300 -1 0
-0.0890194870 -0.0148066330 -1 0
-0.0882150180 -0.0187908660 -1 0
-0.0878640690 -0.0222584860 -1 0
-0.0879882820 -0.0248588640 -1 0
-0.0885630770 -0.0263252080 -1 0
-0.0895198690 -0.0265004560 -1 0
-0.0907536600 -0.0253532270 -1 0
-0.0921337610 -0.0229816660 -1 0
-0.0935156540 -0.0196038770 -1 0
-0.0947535170 -0.0155360380 -1 0
-0.0957134710 -0.0111593290 -1 0
-0.0962867030 -0.0068784130 -1 0
-0.0964011210 -0.0030776300 -1 0
-0.0960298640 -0.0000825693 -1 0
-0.0951952430 0.0018667620 -1 0
-0.0939677100 0.0026318310 -1 0
-0.0924595800 0.0021874390 -1 0
-0.0908134410 0.0006298740 -1 0
-0.0891871900 -0.0018289880 -1 0
-0.0877388610 -0.0048869340 -1 0
-0.0866127020 -0.0081874590 -1 0
-0.0859259010 -0.0113571660 -1 0
-0.0857556780 -0.0140436010 -1 0
-0.0861285410 -0.0159527570 -1 0
-0.0870150480 -0.0168800780 -1 0
-0.0883325700 -0.0167294030 -1 0
-0.0899558780 -0.0155186860 -1 0
-0.0917326110 -0.0133740980 -1 0
-0.0934996410 -0.0105150230 -1 0
-0.0950974980 -0.0072323380 -1 0
-0.0963826480 -0.0038616980 -1 0
-0.0972389260 -0.0007535730 -1 0
-0.0975882270 0.0017578680 -1 0
-0.0973982870 0.0033854410 -1 0
-0.0966855070 0.0039177910 -1 0
-0.0955131240 0.0032433000 -1 0
-0.0939861300 0.0013651090 -1 0
-0.0922430230 -0.0015953490 -1 0
-0.0904433980 -0.0054067280 -1 0
-0.0887518310 -0.0097474010 -1 0
-0.0873207510 -0.0142353800 -1 0
-0.0862754590 -0.0184660580 -1 0
-0.0857028270 -0.0220530620 -1 0
-0.0856436600 -0.0246676530 -1 0
-0.0860885320 -0.0260731280 -1 0
-0.0869780450 -0.0261490400 -1 0
-0.0882089760 -0.0249002250 -1 0
-0.0896459880 -0.0224515520 -1 0
-0.0911369620 -0.0190343210 -1 0
-0.0925300360 -0.0149681050 -1 0
-0.0936902010 -0.0106365000 -1 0
-0.0945125760 -0.0064537980 -1 0
-0.0949304530 -0.0028238380 -1 0
-0.0949185630 -0.0000974614 -1 0
-0.0944933500 0.0014644220 -1 0
-0.0937114180 0.0017172080 -1 0
-0.0926661790 0.0006454640 -1 0
-0.0914816790 -0.0016376880 -1 0
-0.0903020650 -0.0049020850 -1 0
-0.0892763040 -0.0088213910 -1 0
-0.0885404610 -0.0130034830 -1 0
-0.0882012020 -0.0170288690 -1 0
-0.0883232480 -0.0204929970 -1 0
-0.0889219840 -0.0230476640 -1 0
-0.0899613740 -0.0244367740 -1 0
-0.0913568320 -0.0245212760 -1 0
-0.0929828380 -0.0232899150 -1 0
-0.0946852880 -0.0208565170 -1 0
-0.0962979990 -0.0174468670 -1 0
-0.0976614090 -0.0133772430 -1 0
-0.0986399680 -0.0090250510 -1 0
-0.0991352640 -0.0047924440 -1 0
-0.0990938280 -0.0010664960 -1 0
-0.0985099730 0.0018185740 -1 0
-0.0974244050 0.0036126410 -1 0
-0.0959192730 0.0041722970 -1 0
-0.0941101210 0.0034736840 -1 0
-0.0921355250 0.0016142280 -1 0
-0.0901456100 -0.0011973280 -1 0
-0.0882901410 -0.0046615100 -1 0
-0.0867061100 -0.0084172000 -1 0
-0.0855052600 -0.0120767840 -1 0
-0.0847633400 -0.0152643250 -1 0
-0.0845133860 -0.0176531270 -1 0
-0.0847439550 -0.0189986290 -1 0
-0.0854011880 -0.0191624760 -1 0
-0.0863932410 -0.0181243700 -1 0
-0.0875973400 -0.0159810910 -1 0
-0.0888706070 -0.0129348330 -1 0
-0.0900644790 -0.0092732380 -1 0
-0.0910405930 -0.0053425310 -1 0
-0.0916854840 -0.0015151590 -1 0
-0.0919220430 0.0018452120 -1 0
-0.0917166140 0.0044174750 -1 0
-0.0910814630 0.0059526400 -1 0
-0.0900727390 0.0062971300 -1 0
-0.0887839050 0.0054079490 -1 0
-0.0873350220 0.0033585740 -1 0
-0.0858590220 0.0003348960 -1 0
-0.0844867200 -0.0033801930 -1 0
-0.0833329410 -0.0074340670 -1 0
-0.0824858700 -0.0114403980 -1 0
-0.0820006700 -0.0150184300 -1 0
-0.0818972320 -0.0178305410 -1 0
-0.0821608630 -0.0196147420 -1 0
-0.0827443020 -0.0202097810 -1 0
-0.0835707040 -0.0195706700 -1 0
-0.0845389990 -0.0177725210 -1 0
-0.0855327930 -0.0150021110 -1 0
-0.0864320740 -0.0115392670 -1 0
-0.0871256800 -0.0077308740 -1 0
-0.0875226090 -0.0039585070 -1 0
-0.0875613320 -0.0006013380 -1 0
-0.0872169380 0.0020009180 -1 0
-0.0865053570 0.0035806470 -1 0
-0.0854830460 0.0039690520 -1 0
-0.0842409740 0.0031152570 -1 0
-0.0828940200 0.0010942830 -1 0
-0.0815688370 -0.0018991090 -1 0
-0.0803926880 -0.0055703220 -1 0
-0.0794834180 -0.0095546390 -1 0
-0.0789393380 -0.0134525350 -1 0
-0.0788288740 -0.0168681010 -1 0
-0.0791821260 -0.0194472820 -1 0
-0.0799871240 -0.0209118130 -1 0
-0.0811919300 -0.0210875120 -1 0
-0.0827118230 -0.0199256180 -1 0
-0.0844391390 -0.0175111270 -1 0
-0.0862530740 -0.0140538420 -1 0
-0.0880283370 -0.0098653150 -1 0
-0.0896436850 -0.0053264800 -1 0
-0.0909918140 -0.0008493450 -1 0
-0.0919905690 0.0031622660 -1 0
-0.0925930180 0.0063493690 -1 0
-0.0927933090 0.0084324770 -1 0
-0.0926271260 0.0092427900 -1 0
-0.0921672830 0.0087420530 -1 0
-0.0915149130 0.0070239230 -1 0
-0.0907868200 0.0042983120 -1 0
-0.0901009390 0.0008664590 -1 0
-0.0895627920 -0.0029076570 -1 0
-0.0892551150 -0.0066302100 -1 0
-0.0892311710 -0.0099165400 -1 0
-0.0895109950 -0.0124323960 -1 0
-0.0900800260 -0.0139293830 -1 0
-0.0908906670 -0.0142685880 -1 0
-0.0918673650 -0.0134301310 -1 0
-0.0929147450 -0.0115097370 -1 0
-0.0939273220 -0.0087059710 -1 0
-0.0947995830 -0.0053014390 -1 0
-0.0954357040 -0.0016387250 -1 0
-0.0957582660 0.0019090600 -1 0
-0.0957152220 0.0049720840 -1 0
-0.0952846230 0.0072198420 -1 0
-0.0944774640 0.0083962460 -1 0
-0.0933392500 0.0083483220 -1 0
-0.0919495670 0.0070427920 -1 0
-0.0904180050 0.0045688610 -1 0
-0.0888756830 0.0011293380 -1 0
-0.0874634110 -0.0029783700 -1 0
-0.0863179330 -0.0073908560 -1 0
-0.0855567540 -0.0117139580 -1 0
-0.0852628420 -0.0155597040 -1 0
-0.0854729580 -0.0185822100 -1 0
-0.0861732990 -0.0205112050 -1 0
-0.0873024990 -0.0211795290 -1 0
-0.0887593530 -0.0205394730 -1 0
-0.0904131820 -0.0186660610 -1 0
-0.0921166140 -0.0157491470 -1 0
-0.0937205380 -0.0120760740 -1 0
-0.0950891840 -0.0080055350 -1 0
-0.0961127780 -0.0039340130 -1 0
-0.0967164450 -0.0002575630 -1 0
-0.0968651210 0.0026673350 -1 0
-0.0965652330 0.0045592720 -1 0
-0.0958642230 0.0052391330 -1 0
-0.0948475740 0.0046464180 -1 0
-0.0936315430 0.0028447220 -1 0
-0.0923509190 0.0000165061 -1 0
-0.0911439810 -0.0035538020 -1 0
-0.0901385440 -0.0075076220 -1 0
-0.0894411220 -0.0114470720 -1 0
-0.0891279760 -0.0149727380 -1 0
-0.0892367250 -0.0177223490 -1 0
-0.0897604600 -0.0194084720 -1 0
-0.0906476200 -0.0198503770 -1 0
-0.0918082850 -0.0189934710 -1 0
-0.0931249330 -0.0169128220 -1 0
-0.0944657360 -0.0138023890 -1 0
-0.0956988810 -0.0099534590 -1 0
-0.0967060300 -0.0057253630 -1 0
-0.0973930880 -0.0015117330 -1 0
-0.0976974960 0.0022948730 -1 0
-0.0975921920 0.0053387260 -1 0
-0.0970863490 0.0073358510 -1 0
-0.0962229860 0.0081042080 -1 0
-0.0950742730 0.0075834720 -1 0
-0.0937358900 0.0058409660 -1 0
-0.0923210770 0.0030637090 -1 0
-0.0909533950 -0.0004613470 -1 0
-0.0897563830 -0.0043755880 -1 0
-0.0888403710 -0.0082825030 -1 0
-0.0882895780 -0.0117851800 -1 0
-0.0881521220 -0.0145248350 -1 0
-0.0884336520 -0.0162160780 -1 0
-0.0890951010 -0.0166746710 -1 0
-0.0900552410 -0.0158345650 -1 0
-0.0911983810 -0.0137541600 -1 0
-0.0923871130 -0.0106139000 -1 0
-0.0934782410 -0.0067026070 -1 0
-0.0943383630 -0.0023876610 -1 0
-0.0948570630 0.0019255940 -1 0
-0.0949576080 0.0058337390 -1 0
-0.0946045200 0.0089734110 -1 0
-0.0938063920 0.0110615530 -1 0
-0.0926136450 0.0119296270 -1 0
-0.0911132090 0.0115382810 -1 0
-0.0894219210 0.0099716880 -1 0
-0.0876775650 0.0074215150 -1 0
-0.0860258990 0.0041661840 -1 0
-0.0846052850 0.0005440960 -1 0
-0.0835323920 -0.0030790580 -1 0
-0.0828908190 -0.0063445020 -1 0
-0.0827228710 -0.0089318470 -1 0
-0.0830252480 -0.0105867750 -1 0
-0.0837500960 -0.0111451090 -1 0
-0.0848116940 -0.0105508630 -1 0
-0.0860965050 -0.0088639970 -1 0
-0.0874735930 -0.0062562730 -1 0
-0.0888046440 -0.0029969510 -1 0
-0.0899549780 0.0005702100 -1 0
-0.0908063020 0.0040584270 -1 0
-0.0912699350 0.0070762860 -1 0
-0.0912975510 0.0092691300 -1 0
-0.0908863660 0.0103583170 -1 0
-0.0900779160 0.0101729910 -1 0
-0.0889522070 0.0086698450 -1 0
-0.0876192360 0.0059385920 -1 0
-0.0862086850 0.0021936030 -1 0
-0.0848584060 -0.0022468550 -1 0
-0.0837028770 -0.0069919550 -1 0
-0.0828624930 -0.0116168960 -1 0
-0.0824333370 -0.0157041520 -1 0
-0.0824770300 -0.0188835150 -1 0
-0.0830118920 -0.0208680800 -1 0
-0.0840077390 -0.0214826740 -1 0
-0.0853861950 -0.0206807740 -1 0
-0.0870271860 -0.0185481990 -1 0
-0.0887812800 -0.0152949540 -1 0
-0.0904866300 -0.0112363970 -1 0
-0.0919881050 -0.0067633740 -1 0
-0.0931548120 -0.0023028540 -1 0
-0.0938924420 0.0017256160 -1 0
-0.0941497010 0.0049516530 -1 0
-0.0939208970 0.0070897970 -1 0
-0.0932463720 0.0079661740 -1 0
-0.0922098900 0.0075333790 -1 0
-0.0909311940 0.0058725070 -1 0
-0.0895537330 0.0031833810 -1 0
-0.0882297780 -0.0002353910 -1 0
-0.0871051530 -0.0040150340 -1 0
-0.0863042600 -0.0077517140 -1 0
-0.0859158730 -0.0110456260 -1 0
-0.0859821820 -0.0135413670 -1 0
-0.0864944740 -0.0149658570 -1 0
-0.0873964030 -0.0151583520 -1 0
-0.0885927480 -0.0140870040 -1 0
-0.0899610490 -0.0118493960 -1 0
-0.0913647670 -0.0086590260 -1 0
-0.0926674180 -0.0048215820 -1 0
-0.0937463260 -0.0007035630 -1 0
-0.0945039340 0.0033041990 -1 0
-0.0948754860 0.0068237540 -1 0
-0.0948330670 0.0095241390 -1 0
-0.0943863460 0.0111509700 -1 0
-0.0935805420 0.0115501420 -1 0
-0.0924921860 0.0106828640 -1 0
-0.0912228630 0.0086301380 -1 0
-0.0898906120 0.0055865930 -1 0
-0.0886190260 0.0018439110 -1 0
-0.0875252730 -0.0022359540 -1 0
-0.0867088560 -0.0062561920 -1 0
-0.0862422900 -0.0098256420 -1 0
-0.0861638180 -0.0125994870 -1 0
-0.0864724890 -0.0143145370 -1 0
-0.0871271500 -0.0148141470 -1 0
-0.0880504110 -0.0140603280 -1 0
-0.0891367770 -0.0121342510 -1 0
-0.0902639140 -0.0092280110 -1 0
-0.0913061790 -0.0056285050 -1 0
-0.0921481230 -0.0016921680 -1 0
-0.0926952310 0.0021889800 -1 0
-0.0928813850 0.0056257160 -1 0
-0.0926744340 0.0082690800 -1 0
-0.0920803020 0.0098443030 -1 0
-0.0911441930 0.0101798400 -1 0
-0.0899471090 0.0092276850 -1 0
-0.0885975140 0.0070708050 -1 0
-0.0872198460 0.0039165150 -1 0
-0.0859421410 0.0000764652 -1 0
-0.0848840940 -0.0040651960 -1 0
-0.0841461580 -0.0080921710 -1 0
-0.0838000700 -0.0116004780 -1 0
-0.0838811360 -0.0142418430 -1 0
-0.0843831090 -0.0157599500 -1 0
-0.0852570520 -0.0160140510 -1 0
-0.0864147330 -0.0149877230 -1 0
-0.0877357580 -0.0127851090 -1 0
-0.0890777000 -0.0096184170 -1 0
-0.0902893980 -0.0057878470 -1 0
-0.0912274660 -0.0016540980 -1 0
-0.0917741580 0.0023941770 -1 0
-0.0918531080 0.0059749610 -1 0
-0.0914398400 0.0087480820 -1 0
-0.0905650670 0.0104494600 -1 0
-0.0893101390 0.0109203040 -1 0
-0.0877960930 0.0101256180 -1 0
-0.0861687450 0.0081584460 -1 0
-0.0845816110 0.0052297380 -1 0
-0.0831782510 0.0016460120 -1 0
-0.0820762640 -0.0022221810 -1 0
-0.0813549910 -0.0059780030 -1 0
-0.0810486440 -0.0092381370 -1 0
-0.0811460860 -0.0116692410 -1 0
-0.0815965620 -0.0130178290 -1 0
-0.0823188430 -0.0131331620 -1 0
-0.0832112270 -0.0119820120 -1 0
-0.0841609060 -0.0096524130 -1 0
-0.0850525690 -0.0063450150 -1 0
-0.0857772520 -0.0023533440 -1 0
-0.0862421500 0.0019644470 -1 0
-0.0863798920 0.0062202700 -1 0
-0.0861543850 0.0100351220 -1 0
-0.0855624940 0.0130761930 -1 0
-0.0846339120 0.0150849730 -1 0
-0.0834305140 0.0158971630 -1 0
-0.0820431310 0.0154578030 -1 0
-0.0805838090 0.0138295970 -1 0
-0.0791750680 0.0111911050 -1 0
-0.0779391170 0.0078225620 -1 0
-0.0769877000 0.0040787700 -1 0
-0.0764113260 0.0003536990 -1 0
-0.0762675590 -0.0029576540 -1 0
-0.0765706960 -0.0054989740 -1 0
-0.0772864800 -0.0069925430 -1 0
-0.0783337760 -0.0072724790 -1 0
-0.0795923980 -0.0063014430 -1 0
-0.0809144790 -0.0041636450 -1 0
-0.0821370780 -0.0010396860 -1 0
-0.0830964520 0.0028166540 -1 0
-0.0836461100 0.0070870030 -1 0
-0.0836774500 0.0113945280 -1 0
-0.0831370930 0.0153268720 -1 0
-0.0820351370 0.0184788270 -1 0
-0.0804430040 0.0205034670 -1 0
-0.0784831180 0.0211593110 -1 0
-0.0763134250 0.0203448680 -1 0
-0.0741098800 0.0181147010 -1 0
-0.0720498290 0.0146741170 -1 0
-0.0702977250 0.0103540650 -1 0
-0.0689926980 0.0055717490 -1 0
-0.0682375170 0.0007832550 -1 0
-0.0680898840 -0.0035660730 -1 0
-0.0685575460 -0.0070876390 -1 0
-0.0695979080 -0.0094864570 -1 0
-0.0711216760 -0.0105859440 -1 0
-0.0729996180 -0.0103401560 -1 0
-0.0750724580 -0.0088339930 -1 0
-0.0771644990 -0.0062722970 -1 0
-0.0791002230 -0.0029587400 -1 0
-0.0807215920 0.0007350070 -1 0
-0.0819035630 0.0044079350 -1 0
-0.0825654760 0.0076704500 -1 0
-0.0826768750 0.0101802580 -1 0
-0.0822582380 0.0116703880 -1 0
-0.0813780610 0.0119699310 -1 0
-0.0801465720 0.0110186580 -1 0
-0.0787056390 0.0088759740 -1 0
-0.0772154460 0.0057219190 -1 0
-0.0758391910 0.0018456220 -1 0
-0.0747270180 -0.0023807750 -1 0
-0.0740007740 -0.0065403510 -1 0
-0.0737415760 -0.0102167280 -1 0
-0.0739816630 -0.0130400380 -1 0
-0.0747013380 -0.0147275840 -1 0
-0.0758316140 -0.0151145930 -1 0
-0.0772630730 -0.0141714230 -1 0
-0.0788598240 -0.0120052540 -1 0
-0.0804752730 -0.0088466480 -1 0
-0.0819665980 -0.0050235640 -1 0
-0.0832072310 -0.0009272410 -1 0
-0.0840975640 0.0030259270 -1 0
-0.0845732210 0.0064343160 -1 0
-0.0846095770 0.0089505170 -1 0
-0.0842219070 0.0103161360 -1 0
-0.0834619290 0.0103876120 -1 0
-0.0824124820 0.0091501330 -1 0
-0.0811812290 0.0067186130 -1 0
-0.0798927440 0.0033260980 -1 0
-0.0786780930 -0.0006998170 -1 0
-0.0776620880 -0.0049708490 -1 0
-0.0769494950 -0.0090781580 -1 0
-0.0766122000 -0.0126336440 -1 0
-0.0766802500 -0.0153080420 -1 0
-0.0771391320 -0.0168620410 -1 0
-0.0779334390 -0.0171672710 -1 0
-0.0789751750 -0.0162158420 -1 0
-0.0801545050 -0.0141189710 -1 0
-0.0813507250 -0.0110950810 -1 0
-0.0824420510 -0.0074474760 -1 0
-0.0833146610 -0.0035333970 -1 0
-0.0838720620 0.0002716970 -1 0
-0.0840448440 0.0036097790 -1 0
-0.0837993920 0.0061713710 -1 0
-0.0831427620 0.0077202650 -1 0
-0.0821220430 0.0081126810 -1 0
-0.0808193090 0.0073113500 -1 0
-0.0793442080 0.0053927750 -1 0
-0.0778247150 0.0025444340 -1 0
-0.0763953240 -0.0009509820 -1 0
-0.0751824650 -0.0047442850 -1 0
-0.0742891070 -0.0084569280 -1 0
-0.0737825270 -0.0117194350 -1 0
-0.0736882520 -0.0142058470 -1 0
-0.0739899600 -0.0156630230 -1 0
-0.0746331420 -0.0159351010 -1 0
-0.0755312130 -0.0149812410 -1 0
-0.0765741640 -0.0128830880 -1 0
-0.0776400950 -0.0098397360 -1 0
-0.0786090130 -0.0061496990 -1 0
-0.0793763890 -0.0021806090 -1 0
-0.0798632700 0.0016697840 -1 0
-0.0800215950 0.0050155090 -1 0
-0.0798358200 0.0075218650 -1 0
-0.0793226460 0.0089382550 -1 0
-0.0785299950 0.0091211190 -1 0
-0.0775350340 0.0080456100 -1 0
-0.0764398700 0.0058058990 -1 0
-0.0753636740 0.0026054680 -1 0
-0.0744314360 -0.0012591140 -1 0
-0.0737611130 -0.0054201160 -1 0
-0.0734515710 -0.0094701320 -1 0
-0.0735725220 -0.0130021680 -1 0
-0.0741563010 -0.0156514160 -1 0
-0.0751919870 -0.0171355800 -1 0
-0.0766235310 -0.0172902230 -1 0
-0.0783533830 -0.0160889730 -1 0
-0.0802522610 -0.0136432850 -1 0
-0.0821738300 -0.0101874350 -1 0
-0.0839708870 -0.0060544780 -1 0
-0.0855098650 -0.0016439540 -1 0
-0.0866832290 0.0026180590 -1 0
-0.0874199640 0.0063240350 -1 0
-0.0876923640 0.0091297250 -1 0
-0.0875175020 0.0107901320 -1 0
-0.0869541050 0.0111808470 -1 0
-0.0860961090 0.0103042040 -1 0
-0.0850633470 0.0082821780 -1 0
-0.0839902890 0.0053391360 -1 0
-0.0830138890 0.0017783700 -1 0
-0.0822611340 -0.0020454560 -1 0
-0.0818371920 -0.0057572870 -1 0
-0.0818158900 -0.0089946770 -1 0
-0.0822339340 -0.0114403510 -1 0
-0.0830888640 -0.0128512120 -1 0
-0.0843398030 -0.0130808090 -1 0
-0.0859105910 -0.0120932530 -1 0
-0.0876956710 -0.0099674010 -1 0
-0.0895689520 -0.0068909440 -1 0
-0.0913950570 -0.0031447740 -1 0
-0.0930418870 0.0009208060 -1 0
-0.0943929240 0.0049160560 -1 0
-0.0953573840 0.0084472470 -1 0
-0.0958773150 0.0111567340 -1 0
-0.0959321060 0.0127627700 -1 0
-0.0955410120 0.0130906140 -1 0
-0.0947634280 0.0120890770 -1 0
-0.0936959620 0.0098331140 -1 0
-0.0924649740 0.0065166140 -1 0
-0.0912141170 0.0024371600 -1 0
-0.0900886910 -0.0020288300 -1 0
-0.0892200640 -0.0064613710 -1 0
-0.0887121740 -0.0104395460 -1 0
-0.0886302310 -0.0135854290 -1 0
-0.0889923200 -0.0156029390 -1 0
-0.0897662190 -0.0163071810 -1 0
-0.0908729020 -0.0156417120 -1 0
-0.0921959290 -0.0136824920 -1 0
-0.0935949470 -0.0106291790 -1 0
-0.0949216980 -0.0067858170 -1 0
-0.0960365200 -0.0025321170 -1 0
-0.0968229260 0.0017138760 -1 0
-0.0971987190 0.0055379320 -1 0
-0.0971233990 0.0085701850 -1 0
-0.0966017650 0.0105198020 -1 0
-0.0956831000 0.0112024820 -1 0
-0.0944554770 0.0105590760 -1 0
-0.0930358460 0.0086626230 -1 0
-0.0915574550 0.0057124890 -1 0
-0.0901562220 0.0020158280 -1 0
-0.0889575540 -0.0020428690 -1 0
-0.0880650160 -0.0060419360 -1 0
-0.0875518910 -0.0095676730 -1 0
-0.0874559030 -0.0122577490 -1 0
-0.0877766410 -0.0138367260 -1 0
-0.0884753510 -0.0141404640 -1 0
-0.0894771380 -0.0131286640 -1 0
-0.0906760150 -0.0108858810 -1 0
-0.0919431840 -0.0076123400 -1 0
-0.0931382310 -0.0036058840 -1 0
-0.0941222760 0.0007645780 -1 0
-0.0947722840 0.0050927520 -1 0
-0.0949953710 0.0089721640 -1 0
-0.0947410280 0.0120339670 -1 0
-0.0940085860 0.0139840340 -1 0
-0.0928474570 0.0146358930 -1 0
-0.0913498070 0.0139331810 -1 0
-0.0896385390 0.0119564140 -1 0
-0.0878542550 0.0089126710 -1 0
-0.0861425510 0.0051109580 -1 0
-0.0846414340 0.0009290560 -1 0
-0.0834690500 -0.0032227350 -1 0
-0.0827121710 -0.0069389370 -1 0
-0.0824161730 -0.0098576360 -1 0
-0.0825787420 -0.0116978170 -1 0
-0.0831499850 -0.0122881380 -1 0
-0.0840392940 -0.0115816030 -1 0
-0.0851264470 -0.0096566410 -1 0
-0.0862744260 -0.0067079790 -1 0
-0.0873432380 -0.0030288080 -1 0
-0.0882041080 0.0010161700 -1 0
-0.0887518940 0.0050259670 -1 0
-0.0889134550 0.0086031320 -1 0
-0.0886513790 0.0113930460 -1 0
-0.0879641960 0.0131187150 -1 0
-0.0868849410 0.0136092720 -1 0
-0.0854798130 0.0128201710 -1 0
-0.0838469930 0.0108404780 -1 0
-0.0821130190 0.0078837930 -1 0
-0.0804233180 0.0042650900 -1 0
-0.0789267160 0.0003680060 -1 0
-0.0777579830 -0.0033938750 -1 0
-0.0770228750 -0.0066175060 -1 0
-0.0767874310 -0.0089493280 -1 0
-0.0770711700 -0.0101200950 -1 0
-0.0778438870 -0.0099705670 -1 0
-0.0790272380 -0.0084650500 -1 0
-0.0805028950 -0.0056952360 -1 0
-0.0821268520 -0.0018752430 -1 0
-0.0837465770 0.0026752850 -1 0
-0.0852172780 0.0075606430 -1 0
-0.0864153170 0.0123470920 -1 0
-0.0872486020 0.0166039510 -1 0
-0.0876641930 0.0199437490 -1 0
-0.0876530780 0.0220596530 -1 0
-0.0872519500 0.0227574230 -1 0
-0.0865412720 0.0219765990 -1 0
-0.0856382120 0.0197965860 -1 0
-0.0846838560 0.0164271130 -1 0
-0.0838263800 0.0121857280 -1 0
-0.0832036950 0.0074661410 -1 0
-0.0829290880 0.0027010410 -1 0
-0.0830815190 -0.0016779410 -1 0
-0.0836998770 -0.0052806020 -1 0
-0.0847798330 -0.0077954720 -1 0
-0.0862733080 -0.0090201740 -1 0
-0.0880915820 -0.0088810930 -1 0
-0.0901122080 -0.0074393830 -1 0
-0.0921892880 -0.0048826490 -1 0
-0.0941669240 -0.0015039570 -1 0
-0.0958952840 0.0023288860 -1 0
-0.0972474310 0.0062100050 -1 0
-0.0981339050 0.0097345370 -1 0
-0.0985121520 0.0125374550 -1 0
-0.0983894840 0.0143292110 -1 0
-0.0978202130 0.0149241090 -1 0
-0.0968984700 0.0142578940 -1 0
-0.0957480460 0.0123935780 -1 0
-0.0945103740 0.0095154090 -1 0
-0.0933317960 0.0059105260 -1 0
-0.0923505750 0.0019397470 -1 0
-0.0916838480 -0.0019987870 -1 0
-0.0914161050 -0.0055099190 -1 0
-0.0915909330 -0.0082426570 -1 0
-0.0922058320 -0.0099273960 -1 0
-0.0932102150 -0.0104033270 -1 0
-0.0945085660 -0.0096320660 -1 0
-0.0959695760 -0.0076976200 -1 0
-0.0974393050 -0.0047952170 -1 0
-0.0987560620 -0.0012109430 -1 0
-0.0997660200 0.0027063330 -1 0
-0.1003390830 0.0065781400 -1 0
-0.1003835670 0.0100312380 -1 0
-0.0998573610 0.0127311360 -1 0
-0.0987738540 0.0144121120 -1 0
-0.0972016640 0.0149022270 -1 0
-0.0952574210 0.0141419540 -1 0
-0.0930924020 0.0121939670 -1 0
-0.0908756170 0.0092407240 -1 0
-0.0887761810 0.0055679190 -1 0
-0.0869470080 0.0015350580 -1 0
-0.0855116640 -0.0024626050 -1 0
-0.0845559410 -0.0060355150 -1 0
-0.0841240580 -0.0088398920 -1 0
-0.0842177580 -0.0106123890 -1 0
-0.0847972110 -0.0111955840 -1 0
-0.0857841970 -0.0105510630 -1 0
-0.0870681470 -0.0087591820 -1 0
-0.0885150240 -0.0060078180 -1 0
-0.0899788290 -0.0025734960 -1 0
-0.0913152890 0.0012036600 -1 0
-0.0923964970 0.0049510530 -1 0
-0.0931245010 0.0082989970 -1 0
-0.0934420960 0.0109161940 -1 0
-0.0933394380 0.0125411890 -1 0
-0.0928548390 0.0130072570 -1 0
-0.0920687030 0.0122594300 -1 0
-0.0910919940 0.0103624650 -1 0
-0.0900521580 0.0074973820 -1 0
-0.0890786540 0.0039444720 -1 0
-0.0882892450 0.0000543275 -1 0
-0.0877782520 -0.0037886270 -1 0
-0.0876077220 -0.0072059280 -1 0
-0.0878014630 -0.0098638640 -1 0
-0.0883419740 -0.0115062120 -1 0
-0.0891714650 -0.0119772730 -1 0
-0.0901983530 -0.0112337300 -1 0
-0.0913085900 -0.0093438310 -1 0
-0.0923786080 -0.0064722800 -1 0
-0.0932867380 -0.0028568730 -1 0
-0.0939233090 0.0012098380 -1 0
-0.0942009120 0.0053923970 -1 0
-0.0940638680 0.0093306150 -1 0
-0.0934945000 0.0126703410 -1 0
-0.0925153720 0.0151021690 -1 0
-0.0911877480 0.0164010900 -1 0
-0.0896062680 0.0164571970 -1 0
-0.0878897550 0.0152881190 -1 0
-0.0861689320 0.0130340960 -1 0
-0.0845728100 0.0099426510 -1 0
-0.0832159720 0.0063444970 -1 0
-0.0821887720 0.0026191660 -1 0
-0.0815510880 -0.0008462110 -1 0
-0.0813290130 -0.0036986770 -1 0
-0.0815135160 -0.0056569660 -1 0
-0.0820603760 -0.0065406440 -1 0
-0.0828917050 -0.0062882220 -1 0
-0.0839011380 -0.0049633820 -1 0
-0.0849645030 -0.0027480470 -1 0
-0.0859545730 0.0000786305 -1 0
-0.0867558440 0.0031729140 -1 0
-0.0872756360 0.0061650490 -1 0
-0.0874504960 0.0086979040 -1 0
-0.0872495770 0.0104624730 -1 0
-0.0866771200 0.0112284310 -1 0
-0.0857742350 0.0108669660 -1 0
-0.0846182110 0.0093626710 -1 0
-0.0833174710 0.0068129880 -1 0
-0.0820018730 0.0034167470 -1 0
-0.0808097890 -0.0005440600 -1 0
-0.0798743830 -0.0047267940 -1 0
-0.0793110910 -0.0087561650 -1 0
-0.0792070180 -0.0122581410 -1 0
-0.0796123570 -0.0148964720 -1 0
-0.0805340430 -0.0164081010 -1 0
-0.0819320220 -0.0166345410 -1 0
-0.0837192480 -0.0155439520 -1 0
-0.0857669350 -0.0132378380 -1 0
-0.0879156510 -0.0099401970 -1 0
-0.0899913910 -0.0059717960 -1 0
-0.0918242940 -0.0017150600 -1 0
-0.0932670220 0.0024245830 -1 0
-0.0942102630 0.0060569120 -1 0
-0.0945933970 0.0088425740 -1 0
-0.0944091620 0.0105243400 -1 0
-0.0937026280 0.0109515060 -1 0
-0.0925658030 0.0100947620 -1 0
-0.0911286960 0.0080497900 -1 0
-0.0895475870 0.0050289670 -1 0
-0.0879911660 0.0013405150 -1 0
-0.0866247490 -0.0026441810 -1 0
-0.0855933130 -0.0065303640 -1 0
-0.0850060520 -0.0099397820 -1 0
-0.0849255680 -0.0125452910 -1 0
-0.0853626710 -0.0140979600 -1 0
-0.0862760220 -0.0144469210 -1 0
-0.0875764880 -0.0135528660 -1 0
-0.0891364960 -0.0114943030 -1 0
-0.0908033450 -0.0084634720 -1 0
-0.0924145950 -0.0047496220 -1 0
-0.0938145220 -0.0007101910 -1 0
-0.0948709520 0.0032668350 -1 0
-0.0954903590 0.0068032300 -1 0
-0.0956283930 0.0095669010 -1 0
-0.0952942090 0.0113016680 -1 0
-0.0945479580 0.0118507140 -1 0
-0.0934916480 0.0111722050 -1 0
-0.0922553230 0.0093439730 -1 0
-0.0909816340 0.0065563470 -1 0
-0.0898111750 0.0030951040 -1 0
-0.0888693560 -0.0006834070 -1 0
-0.0882548940 -0.0043849070 -1 0
-0.0880305610 -0.0076175350 -1 0
-0.0882175270 -0.0100357620 -1 0
-0.0887942180 -0.0113794420 -1 0
-0.0896996830 -0.0114998450 -1 0
-0.0908406370 -0.0103699280 -1 0
-0.0921010840 -0.0080820330 -1 0
-0.0933535890 -0.0048374340 -1 0
-0.0944710570 -0.0009289900 -1 0
-0.0953378040 0.0032842530 -1 0
-0.0958597310 0.0074103170 -1 0
-0.0959739740 0.0110620250 -1 0
-0.0956565650 0.0138951160 -1 0
-0.0949253170 0.0156435440 -1 0
-0.0938371840 0.0161478080 -1 0
-0.0924819370 0.0153715730 -1 0
-0.0909737940 0.0134045260 -1 0
-0.0894411430 0.0104527670 -1 0
-0.0880143160 0.0068185940 -1 0
-0.0868126970 0.0028706620 -1 0
-0.0859333590 -0.0009932650 -1 0
-0.0854425160 -0.0043860450 -1 0
-0.0853692760 -0.0069684980 -1 0
-0.0857010880 -0.0084821290 -1 0
-0.0863820780 -0.0087750490 -1 0
-0.0873169050 -0.0078166180 -1 0
-0.0883810540 -0.0056978740 -1 0
-0.0894350180 -0.0026196580 -1 0
-0.0903386190 0.0011280650 -1 0
-0.0909638990 0.0051935560 -1 0
-0.0912071910 0.0091955520 -1 0
-0.0910005140 0.0127586000 -1 0
-0.0903204640 0.0155484960 -1 0
-0.0891923000 0.0173035240 -1 0
-0.0876880870 0.0178589590 -1 0
-0.0859188260 0.0171638150 -1 0
-0.0840217040 0.0152883530 -1 0
-0.0821451420 0.0124210060 -1 0
-0.0804343820 0.0088527820 -1 0
-0.0790187210 0.0049487790 -1 0
-0.0780003240 0.0011122610 -1 0
-0.0774448690 -0.0022527410 -1 0
-0.0773751500 -0.0047802570 -1 0
-0.0777691980 -0.0061829820 -1 0
-0.0785633800 -0.0062887620 -1 0
-0.0796595430 -0.0050631150 -1 0
-0.0809349090 -0.0026106020 -1 0
-0.0822537020 0.0008426180 -1 0
-0.0834796290 0.0049751350 -1 0
-0.0844886250 0.0094002830 -1 0
-0.0851811000 0.0137015170 -1 0
-0.0854918410 0.0174725080 -1 0
-0.0853955150 0.0203568880 -1 0
-0.0849071650 0.0220829470 -1 0
-0.0840786510 0.0224895790 -1 0
-0.0829921580 0.0215406980 -1 0
-0.0817514330 0.0193277080 -1 0
-0.0804716190 0.0160611390 -1 0
-0.0792687980 0.0120519660 -1 0
-0.0782498010 0.0076827590 -1 0
-0.0775031490 0.0033702730 -1 0
-0.0770926850 -0.0004764900 -1 0
-0.0770541710 -0.0034971700 -1 0
-0.0773933250 -0.0054148860 -1 0
-0.0780848390 -0.0060614000 -1 0
-0.0790738140 -0.0053905270 -1 0
-0.0802802490 -0.0034794160 -1 0
-0.0816053450 -0.0005191770 -1 0
-0.0829386770 0.0032029900 -1 0
-0.0841666780 0.0073292690 -1 0
-0.0851831570 0.0114637510 -1 0
-0.0859010170 0.0152091610 -1 0
-0.0862630910 0.0182037470 -1 0
-0.0862502990 0.0201555870 -1 0
-0.0858858460 0.0208722270 -1 0
-0.0852341160 0.0202824640 -1 0
-0.0843936770 0.0184463080 -1 0
-0.0834857020 0.0155501310 -1 0
-0.0826401380 0.0118869180 -1 0
-0.0819814160 0.0078248010 -1 0
-0.0816151980 0.0037688820 -1 0
-0.0816179200 0.0001210110 -1 0
-0.0820299370 -0.0027594850 -1 0
-0.0828516580 -0.0045915900 -1 0
-0.0840417750 -0.0052012480 -1 0
-0.0855176900 -0.0045382530 -1 0
-0.0871597170 -0.0026779870 -1 0
-0.0888209180 0.0001913280 -1 0
-0.0903429300 0.0037905900 -1 0
-0.0915760540 0.0077757460 -1 0
-0.0923999750 0.0117663290 -1 0
-0.0927401430 0.0153773260 -1 0
-0.0925757730 0.0182538250 -1 0
-0.0919388500 0.0201059400 -1 0
-0.0909067520 0.0207399180 -1 0
-0.0895918580 0.0200809170 -1 0
-0.0881298230 0.0181837830 -1 0
-0.0866668050 0.0152300590 -1 0
-0.0853459220 0.0115116860 -1 0
-0.0842939650 0.0074030700 -1 0
-0.0836103030 0.0033235740 -1 0
-0.0833596240 -0.0003058160 -1 0
-0.0835679340 -0.0031061840 -1 0
-0.0842204030 -0.0047800680 -1 0
-0.0852613300 -0.0051432680 -1 0
-0.0865977230 -0.0041454570 -1 0
-0.0881070340 -0.0018754300 -1 0
-0.0896483470 0.0014507720 -1 0
-0.0910761080 0.0055156010 -1 0
-0.0922555370 0.0099338120 -1 0
-0.0930776200 0.0142904980 -1 0
-0.0934700470 0.0181809520 -1 0
-0.0934014560 0.0212491100 -1 0
-0.0928802220 0.0232209620 -1 0
-0.0919509770 0.0239299190 -1 0
-0.0906904750 0.0233317980 -1 0
-0.0892024890 0.0215078140 -1 0
-0.0876112150 0.0186554570 -1 0
-0.0860530410 0.0150688190 -1 0
-0.0846665010 0.0111102980 -1 0
-0.0835798070 0.0071754980 -1 0
-0.0828965520 0.0036544390 -1 0
-0.0826824990 0.0008946460 -1 0
-0.0829561530 -0.0008268520 -1 0
-0.0836833370 -0.0013201830 -1 0
-0.0847759660 -0.0004947130 -1 0
-0.0860975170 0.0016257810 -1 0
-0.0874777480 0.0048890670 -1 0
-0.0887352930 0.0090157160 -1 0
-0.0897024690 0.0136243960 -1 0
-0.0902462120 0.0182764190 -1 0
-0.0902818680 0.0225281850 -1 0
-0.0897792870 0.0259815940 -1 0
-0.0887625050 0.0283254320 -1 0
-0.0873053930 0.0293635370 -1 0
-0.0855243300 0.0290285150 -1 0
-0.0835666950 0.0273822200 -1 0
-0.0815946070 0.0246057360 -1 0
-0.0797663940 0.0209811180 -1 0
-0.0782196860 0.0168651720 -1 0
-0.0770588460 0.0126556440 -1 0
-0.0763473660 0.0087528050 -1 0
-0.0761048900 0.0055206110 -1 0
-0.0763083110 0.0032514840 -1 0
-0.0768959530 0.0021389900 -1 0
-0.0777735870 0.0022611930 -1 0
-0.0788221140 0.0035746770 -1 0
-0.0799078510 0.0059185640 -1 0
-0.0808952900 0.0090289090 -1 0
-0.0816602280 0.0125636710 -1 0
-0.0821010180 0.0161364120 -1 0
-0.0821472400 0.0193548960 -1 0
-0.0817660080 0.0218603830 -1 0
-0.0809655480 0.0233644420 -1 0
-0.0797953690 0.0236803930 -1 0
-0.0783430980 0.0227454010 -1 0
-0.0767281000 0.0206293550 -1 0
-0.0750910080 0.0175290050 -1 0
-0.0735788130 0.0137482690 -1 0
-0.0723272900 0.0096668810 -1 0
-0.0714446350 0.0057005360 -1 0
-0.0710001720 0.0022574040 -1 0
-0.0710196930 -0.0003036050 -1 0
-0.0714863280 -0.0017092330 -1 0
-0.0723449660 -0.0018010520 -1 0
-0.0735090590 -0.0005546630 -1 0
-0.0748695450 0.0019158470 -1 0
-0.0763051510 0.0053713610 -1 0
-0.0776925790 0.0094763280 -1 0
-0.0789158510 0.0138356950 -1 0
-0.0798753890 0.0180345240 -1 0
-0.0804972730 0.0216767020 -1 0
-0.0807419760 0.0244202290 -1 0
-0.0806109540 0.0260074590 -1 0
-0.0801484450 0.0262887110 -1 0
-0.0794363270 0.0252369900 -1 0
-0.0785827350 0.0229519130 -1 0
-0.0777078290 0.0196518870 -1 0
-0.0769305920 0.0156539700 -1 0
-0.0763589050 0.0113417460 -1 0
-0.0760820930 0.0071247160 -1 0
-0.0761635480 0.0033957610 -1 0
-0.0766329820 0.0004930240 -1 0
-0.0774803270 -0.0013304350 -1 0
-0.0786538810 -0.0019279750 -1 0
-0.0800646800 -0.0012705370 -1 0
-0.0815970380 0.0005536520 -1 0
-0.0831225180 0.0033501400 -1 0
-0.0845139760 0.0068372570 -1 0
-0.0856582570 0.0106707430 -1 0
-0.0864672320 0.0144733990 -1 0
-0.0868860000 0.0178688420 -1 0
-0.0868969530 0.0205170690 -1 0
-0.0865198170 0.0221488350 -1 0
-0.0858087670 0.0225946180 -1 0
-0.0848474730 0.0218031690 -1 0
-0.0837427060 0.0198466040 -1 0
-0.0826167820 0.0169126600 -1 0
-0.0815983510 0.0132865710 -1 0
-0.0808109630 0.0093242940 -1 0
-0.0803599380 0.0054184980 -1 0
-0.0803196240 0.0019601610 -1 0
-0.0807239150 -0.0007002640 -1 0
-0.0815617950 -0.0022882630 -1 0
-0.0827777750 -0.0026336340 -1 0
-0.0842767080 -0.0016885610 -1 0
-0.0859332790 0.0004667480 -1 0
-0.0876061540 0.0036316500 -1 0
-0.0891546950 0.0075053120 -1 0
-0.0904543200 0.0117175720 -1 0
-0.0914075330 0.0158669270 -1 0
-0.0919502810 0.0195611950 -1 0
-0.0920545900 0.0224557200 -1 0
-0.0917284580 0.0242848950 -1 0
-0.0910139080 0.0248854270 -1 0
-0.0899836350 0.0242110630 -1 0
-0.0887355800 0.0223379570 -1 0
-0.0873847950 0.0194594110 -1 0
-0.0860532200 0.0158688540 -1 0
-0.0848587050 0.0119313590 -1 0
-0.0839041620 0.0080464590 -1 0
-0.0832674870 0.0046073470 -1 0
-0.0829931930 0.0019618610 -1 0
-0.0830866080 0.0003788420 -1 0
-0.0835114990 0.0000224916 -1 0
-0.0841922770 0.0009377200 -1 0
-0.0850214700 0.0030473990 -1 0
-0.0858721520 0.0061598920 -1 0
-0.0866136460 0.0099871860 -1 0
-0.0871275790 0.0141744860 -1 0
-0.0873217480 0.0183364320 -1 0
-0.0871404590 0.0220929780 -1 0
-0.0865701710 0.0251041060 -1 0
-0.0856396350 0.0271044120 -1 0
-0.0844149760 0.0279321930 -1 0
-0.0829907090 0.0275469350 -1 0
-0.0814777610 0.0260349100 -1 0
-0.0799908370 0.0236014600 -1 0
-0.0786384900 0.0205477310 -1 0
-0.0775167020 0.0172382340 -1 0
-0.0767035690 0.0140662520 -1 0
-0.0762534120 0.0114145250 -1 0
-0.0761908860 0.0096109030 -1 0
-0.0765058190 0.0088903250 -1 0
-0.0771499760 0.0093739790 -1 0
-0.0780383120 0.0110641300 -1 0
-0.0790562980 0.0138467750 -1 0
-0.0800722150 0.0174994620 -1 0
-0.0809520360 0.0217089490 -1 0
-0.0815750470 0.0261023940 -1 0
-0.0818483220 0.0302872040 -1 1
-0.0817171490 0.0338900970 -1 1
-0.0811688190 0.0365903700 -1 1
-0.0802301380 0.0381478590 -1 1
-0.0789615190 0.0384251810 -1 1
-0.0774503880 0.0374009210 -1 1
-0.0758048960 0.0351723630 -1 1
-0.0741468540 0.0319484130 -1 1
-0.0726022250 0.0280312820 -1 0
-0.0712897890 0.0237865710 -1 0
-0.0703104390 0.0196065300 -1 0
-0.0697384370 0.0158716910 -1 0
-0.0696143990 0.0129131960 -1 0
-0.0699402160 0.0109789150 -1 0
-0.0706775320 0.0102088400 -1 0
-0.0717512920 0.0106240240 -1 0
-0.0730577620 0.0121294450 -1 0
-0.0744750540 0.0145284940 -1 0
-0.0758745480 0.0175457220 -1 0
-0.0771317330 0.0208544920 -1 0
-0.0781355600 0.0241070290 -1 0
-0.0787971580 0.0269645820 -1 0
-0.0790586660 0.0291251420 -1 0
-0.0789009100 0.0303475400 -1 1
-0.0783474590 0.0304726210 -1 1
-0.0774632370 0.0294409620 -1 0
-0.0763474330 0.0273036930 -1 0
-0.0751220000 0.0242225920 -1 0
-0.0739179020 0.0204575450 -1 0
-0.0728616810 0.0163421040 -1 0
-0.0720642580 0.0122506490 -1 0
-0.0716118720 0.0085621050 -1 0
-0.0715577850 0.0056235930 -1 0
-0.0719149650 0.0037160930 -1 0
-0.0726526960 0.0030259720 -1 0
-0.0736995760 0.0036266580 -1 0
-0.0749514990 0.0054710480 -1 0
-0.0762816180 0.0083936400 -1 0
-0.0775517730 0.0121237230 -1 0
-0.0786266090 0.0163109100 -1 0
-0.0793895400 0.0205606440 -1 0
-0.0797570040 0.0244741810 -1 0
-0.0796878440 0.0276870710 -1 0
-0.0791870200 0.0299025950 -1 0
-0.0783043720 0.0309199760 -1 1
-0.0771293730 0.0306568890 -1 1
-0.0757825620 0.0291622310 -1 0
-0.0744041650 0.0266137350 -1 0
-0.0731406920 0.0232982220 -1 0
-0.0721307630 0.0195774950 -1 0
-0.0714914400 0.0158463030 -1 0
-0.0713060930 0.0124888630 -1 0
-0.0716150620 0.0098392250 -1 0
-0.0724105300 0.0081502130 -1 0
-0.0736365140 0.0075734730 -1 0
-0.0751944340 0.0081500100 -1 0
-0.0769539160 0.0098096240 -1 0
-0.0787666050 0.0123788270 -1 0
-0.0804799720 0.0155971080 -1 0
-0.0819500390 0.0191404790 -1 0
-0.0830541320 0.0226509080 -1 0
-0.0837036870 0.0257700120 -1 0
-0.0838546400 0.0281741910 -1 0
-0.0835128580 0.0296075230 -1 0
-0.0827341070 0.0299089730 -1 0
-0.0816185610 0.0290307230 -1 0
-0.0802997810 0.0270447630 -1 0
-0.0789296700 0.0241366320 -1 0
-0.0776618730 0.0205870800 -1 0
-0.0766355510 0.0167430950 -1 0
-0.0759615730 0.0129812330 -1 0
-0.0757130360 0.0096688990 -1 0
-0.0759201020 0.0071291740 -1 0
-0.0765681310 0.0056118170 -1 0
-0.0775989580 0.0052712470 -1 0
-0.0789163410 0.0061521250 -1 0
-0.0803962770 0.0081832290 -1 0
-0.0819011200 0.0111812340 -1 0
-0.0832948630 0.0148663120 -1 0
-0.0844569110 0.0188891610 -1 0
-0.0852925020 0.0228661550 -1 0
-0.0857387480 0.0264180890 -1 0
-0.0857664660 0.0292079640 -1 0
-0.0853794680 0.0309737570 -1 1
-0.0846136780 0.0315530760 -1 1
-0.0835370880 0.0308981260 -1 1
-0.0822483950 0.0290804190 -1 0
-0.0808707820 0.0262844570 -1 0
-0.0795400300 0.0227899110 -1 0
-0.0783897270 0.0189435370 -1 0
-0.0775369590 0.0151246370 -1 0
-0.0770705120 0.0117090880 -1 0
-0.0770423500 0.0090349780 -1 0
-0.0774623630 0.0073700170 -1 0
-0.0782965310 0.0068824220 -1 0
-0.0794690460 0.0076207360 -1 0
-0.0808686260 0.0095081290 -1 0
-0.0823584190 0.0123523890 -1 0
-0.0837886840 0.0158679060 -1 0
-0.0850119350 0.0197047280 -1 0
-0.0858994680 0.0234823010 -1 0
-0.0863563830 0.0268266630 -1 0
-0.0863317730 0.0294076180 -1 0
-0.0858221000 0.0309707640 -1 1
-0.0848681080 0.0313604230 -1 1
-0.0835475760 0.0305320620 -1 1
-0.0819663710 0.0285549570 -1 0
-0.0802487880 0.0256065320 -1 0
-0.0785272790 0.0219585130 -1 0
-0.0769320970 0.0179540310 -1 0
-0.0755814800 0.0139757600 -1 0
-0.0745724170 0.0104084030 -1 0
-0.0739719840 0.0076016990 -1 0
-0.0738099550 0.0058377720 -1 0
-0.0740740610 0.0053023650 -1 0
-0.0747089070 0.0060631220 -1 0
-0.0756187060 0.0080627030 -1 0
-0.0766748180 0.0111257290 -1 0
-0.0777297980 0.0149715700 -1 0
-0.0786363000 0.0192348850 -1 0
-0.0792654450 0.0235003670 -1 0
-0.0795205470 0.0273471880 -1 0
-0.0793459240 0.0303938530 -1 1
-0.0787319700 0.0323384550 -1 1
-0.0777166470 0.0329913190 -1 1
-0.0763819810 0.0322980080 -1 1
-0.0748447540 0.0303487610 -1 1
-0.0732433890 0.0273666070 -1 0
-0.0717242930 0.0236736080 -1 0
-0.0704290210 0.0196473410 -1 0
-0.0694816760 0.0156798310 -1 0
-0.0689759420 0.0121425190 -1 0
-0.0689631970 0.0093566300 -1 0
-0.0694455610 0.0075683710 -1 0
-0.0703765900 0.0069291310 -1 0
-0.0716681840 0.0074822280 -1 0
-0.0732007570 0.0091582130 -1 0
-0.0748352160 0.0117795110 -1 0
-0.0764260530 0.0150742920 -1 0
-0.0778344950 0.0186994130 -1 0
-0.0789404960 0.0222714870 -1 0
-0.0796524660 0.0254040740 -1 0
-0.0799146990 0.0277481450 -1 0
-0.0797128790 0.0290306400 -1 0
-0.0790766750 0.0290839550 -1 0
-0.0780775930 0.0278613540 -1 0
-0.0768217000 0.0254388270 -1 0
-0.0754386080 0.0220069930 -1 0
-0.0740682570 0.0178550130 -1 0
-0.0728466280 0.0133458950 -1 0
-0.0718920620 0.0088831370 -1 0
-0.0712943890 0.0048712620 -1 0
-0.0711078390 0.0016745310 -1 0
-0.0713472870 -0.0004213290 -1 0
-0.0719867700 -0.0012390650 -1 0
-0.0729599030 -0.0007267330 -1 0
-0.0741639940 0.0010400490 -1 0
-0.0754702870 0.0038683220 -1 0
-0.0767397410 0.0074679360 -1 0
-0.0778402810 0.0114801780 -1 0
-0.0786613560 0.0155130830 -1 0
-0.0791239310 0.0191792930 -1 0
-0.0791857520 0.0221315150 -1 0
-0.0788423810 0.0240927160 -1 0
-0.0781256120 0.0248800960 -1 0
-0.0771013150 0.0244218790 -1 0
-0.0758669080 0.0227657230 -1 0
-0.0745463490 0.0200770720 -1 0
-0.0732804200 0.0166256240 -1 0
-0.0722119400 0.0127596770 -1 0
-0.0714680440 0.0088710620 -1 0
-0.0711433600 0.0053555830 -1 0
-0.0712878320 0.0025738110 -1 0
-0.0719015290 0.0008153730 -1 0
-0.0729362600 0.0002691560 -1 0
-0.0743019190 0.0010032720 -1 0
-0.0758763020 0.0029589770 -1 0
-0.0775183450 0.0059591710 -1 0
-0.0790834750 0.0097277290 -1 0
-0.0804383170 0.0139152490 -1 0
-0.0814727990 0.0181296430 -1 0
-0.0821087260 0.0219715120 -1 0
-0.0823042740 0.0250727610 -1 0
-0.0820550370 0.0271347810 -1 0
-0.0813931000 0.0279607760 -1 0
-0.0803847570 0.0274767010 -1 0
-0.0791266340 0.0257383730 -1 0
-0.0777394610 0.0229259720 -1 0
-0.0763582510 0.0193273590 -1 0
-0.0751186990 0.0153106030 -1 0
-0.0741417550 0.0112876010 -1 0
-0.0735197790 0.0076725310 -1 0
-0.0733070310 0.0048388800 -1 0
-0.0735151400 0.0030794980 -1 0
-0.0741127060 0.0025763710 -1 0
-0.0750279720 0.0033860490 -1 0
-0.0761543320 0.0054398600 -1 0
-0.0773590180 0.0085535660 -1 0
-0.0784952850 0.0124450250 -1 0
-0.0794177580 0.0167608510 -1 0
-0.0799997220 0.0211105350 -1 0
-0.0801494100 0.0251043510 -1 0
-0.0798214910 0.0283892750 -1 0
-0.0790213260 0.0306781310 -1 1
-0.0778020440 0.0317731230 -1 1
-0.0762566030 0.0315857450 -1 1
-0.0745079470 0.0301493060 -1 1
-0.0726986020 0.0276188600 -1 0
-0.0709788370 0.0242573000 -1 0
-0.0694931450 0.0204099630 -1 0
-0.0683664730 0.0164715410 -1 0
-0.0676915480 0.0128476760 -1 0
-0.0675184220 0.0099132730 -1 0
-0.0678479850 0.0079737720 -1 0
-0.0686313690 0.0072344830 -1 0
-0.0697761150 0.0077766400 -1 0
-0.0711579010 0.0095428870 -1 0
-0.0726346790 0.0123409440 -1 0
-0.0740602500 0.0158667570 -1 0
-0.0752965430 0.0197400930 -1 0
-0.0762255080 0.0235460500 -1 0
-0.0767604930 0.0268779580 -1 0
-0.0768550930 0.0293774540 -1 0
-0.0765075430 0.0307684520 -1 1
-0.0757603710 0.0308831000 -1 1
-0.0746956790 0.0296781550 -1 0
-0.0734260560 0.0272399500 -1 0
-0.0720820740 0.0237768460 -1 0
-0.0707985580 0.0195993740 -1 0
-0.0697009960 0.0150898650 -1 0
-0.0688927060 0.0106647790 -1 0
-0.0684442980 0.0067334630 -1 0
-0.0683872710 0.0036573520 -1 0
-0.0687121370 0.0017141430 -1 0
-0.0693703620 0.0010711200 -1 0
-0.0702798100 0.0017701730 -1 0
-0.0713334130 0.0037249790 -1 0
-0.0724099580 0.0067294410 -1 0
-0.0733853090 0.0104764360 -1 0
-0.0741427600 0.0145862260 -1 0
-0.0745823010 0.0186431450 -1 0
-0.0746292360 0.0222375140 -1 0
-0.0742422460 0.0250080810 -1 0
-0.0734199560 0.0266798570 -1 0
-0.0722038010 0.0270924200 -1 0
-0.0706751700 0.0262145200 -1 0
-0.0689470310 0.0241437030 -1 0
-0.0671520060 0.0210930940 -1 0
-0.0654290290 0.0173684230 -1 0
-0.0639104960 0.0133376580 -1 0
-0.0627109740 0.0093956270 -1 0
-0.0619173260 0.0059264700 -1 0
-0.0615804170 0.0032670830 -1 0
-0.0617099050 0.0016749240 -1 0
-0.0622735860 0.0013035970 -1 0
-0.0632011540 0.0021887330 -1 0
-0.0643910570 0.0042449450 -1 0
-0.0657194110 0.0072736860 -1 0
-0.0670504800 0.0109816880 -1 0
-0.0682482550 0.0150089320 -1 0
-0.0691887450 0.0189638650 -1 0
-0.0697723480 0.0224623440 -1 0
-0.0699349680 0.0251655420 -1 0
-0.0696558830 0.0268121200 -1 0
-0.0689606180 0.0272424380 -1 0
-0.0679179810 0.0264137920 -1 0
-0.0666317970 0.0244044870 -1 0
-0.0652290170 0.0214053730 -1 0
-0.0638465440 0.0177012260 -1 0
-0.0626185620 0.0136452500 -1 0
-0.0616645190 0.0096270890 -1 0
-0.0610774480 0.0060346160 -1 0
-0.0609138470 0.0032140490 -1 0
-0.0611874700 0.0014360030 -1 0
-0.0618686620 0.0008727390 -1 0
-0.0628892850 0.0015858810 -1 0
-0.0641514990 0.0035207850 -1 0
-0.0655379960 0.0065074310 -1 0
-0.0669228380 0.0102718350 -1 0
-0.0681838410 0.0144609170 -1 0
-0.0692159940 0.0186798190 -1 0
-0.0699426550 0.0225346710 -1 0
-0.0703221630 0.0256702470 -1 0
-0.0703505420 0.0277986060 -1 0
-0.0700612070 0.0287236310 -1 0
-0.0695211670 0.0283639280 -1 0
-0.0688235410 0.0267671420 -1 0
-0.0680772810 0.0241076600 -1 0
-0.0673951650 0.0206690900 -1 0
-0.0668813330 0.0168182020 -1 0
-0.0666206070 0.0129708610 -1 0
-0.0666714270 0.0095478720 -1 0
-0.0670623260 0.0069268090 -1 0
-0.0677909790 0.0054001510 -1 0
-0.0688254940 0.0051451400 -1 0
-0.0701075860 0.0062065020 -1 0
-0.0715566410 0.0084928260 -1 0
-0.0730741200 0.0117879270 -1 0
-0.0745491730 0.0157765690 -1 0
-0.0758667940 0.0200797360 -1 0
-0.0769187490 0.0242926280 -1 0
-0.0776162310 0.0280209310 -1 0
-0.0779019480 0.0309141880 -1 1
-0.0777585030 0.0326957470 -1 1
-0.0772110020 0.0331877070 -1 1
-0.0763246200 0.0323284850 -1 1
-0.0751988460 0.0301806260 -1 1
-0.0739587120 0.0269272020 -1 0
-0.0727425290 0.0228568030 -1 0
-0.0716875240 0.0183382820 -1 0
-0.0709164190 0.0137865730 -1 0
-0.0705267050 0.0096224770 -1 0
-0.0705820570 0.0062316380 -1 0
-0.0711052060 0.0039270260 -1 0
-0.0720731740 0.0029169370 -1 0
-0.0734167590 0.0032814370 -1 0
-0.0750257230 0.0049620990 -1 0
-0.0767597860 0.0077680140 -1 0
-0.0784633770 0.0113964960 -1 0
-0.0799811130 0.0154648800 -1 0
-0.0811725170 0.0195500180 -1 0
-0.0819263860 0.0232310450 -1 0
-0.0821740780 0.0261303370 -1 0
-0.0818987180 0.0279493170 -1 0
-0.0811376940 0.0284968930 -1 0
-0.0799782950 0.0277074860 -1 0
-0.0785478120 0.0256459170 -1 0
-0.0769997840 0.0224987830 -1 0
-0.0754982210 0.0185545630 -1 0
-0.0742009190 0.0141756100 -1 0
-0.0732424200 0.0097646700 -1 0
-0.0727185850 0.0057283230 -1 0
-0.0726763330 0.0024396460 -1 0
-0.0731108690 0.0002017180 -1 0
-0.0739697880 -0.0007851180 -1 0
-0.0751616290 -0.0004464430 -1 0
-0.0765662610 0.0011575840 -1 0
-0.0780453300 0.0038386090 -1 0
-0.0794530740 0.0072998490 -1 0
-0.0806493680 0.0111679570 -1 0
-0.0815149060 0.0150334760 -1 0
-0.0819651560 0.0184930680 -1 0
-0.0819595480 0.0211879450 -1 0
-0.0815049080 0.0228369390 -1 0
-0.0806540540 0.0232628750 -1 0
-0.0795001190 0.0224086830 -1 0
-0.0781664480 0.0203407950 -1 0
-0.0767931110 0.0172411230 -1 0
-0.0755225750 0.0133904960 -1 0
-0.0744865770 0.0091448260 -1 0
-0.0737946140 0.0049033850 -1 0
-0.0735238140 0.0010700800 -1 0
-0.0737104150 -0.0019882110 -1 0
-0.0743440820 -0.0039810050 -1 0
-0.0753668620 -0.0047257060 -1 0
-0.0766779320 -0.0041656510 -1 0
-0.0781436670 -0.0023725100 -1 0
-0.0796113210 0.0004637960 -1 0
-0.0809247650 0.0040529930 -1 0
-0.0819413690 0.0080296930 -1 0
-0.0825484160 0.0119877580 -1 0
-0.0826761400 0.0155213380 -1 0
-0.0823048470 0.0182660130 -1 0
-0.0814655070 0.0199350080 -1 0
-0.0802348310 0.0203482460 -1 0
-0.0787262110 0.0194513770 -1 0
-0.0770778130 0.0173210810 -1 0
-0.0754389710 0.0141560300 -1 0
-0.0739558960 0.0102568090 -1 0
-0.0727582730 0.0059971500 -1 0
-0.0719487550 0.0017865870 -1 0
-0.0715959790 -0.0019727010 -1 0
-0.0717302010 -0.0049281600 -1 0
-0.0723406140 -0.0068119630 -1 0
-0.0733741940 -0.0074653940 -1 0
-0.0747369890 -0.0068512530 -1 0
-0.0762996860 -0.0050539630 -1 0
-0.0779088640 -0.0022676590 -1 0
-0.0794034740 0.0012254790 -1 0
-0.0806335380 0.0050823620 -1 0
-0.0814769100 0.0089283840 -1 0
-0.0818515550 0.0123884470 -1 0
-0.0817231550 0.0151197620 -1 0
-0.0811082480 0.0168451190 -1 0
-0.0800722840 0.0173828560 -1 0
-0.0787224370 0.0166682380 -1 0
-0.0771964190 0.0147625980 -1 0
-0.0756491610 0.0118494120 -1 0
-0.0742383020 0.0082168230 -1 0
-0.0731092820 0.0042267830 -1 0
-0.0723818840 0.0002754170 -1 0
-0.0721398660 -0.0032471680 -1 0
-0.0724237720 -0.0059919650 -1 0
-0.0732266180 -0.0076810440 -1 0
-0.0744931000 -0.0081338420 -1 0
-0.0761234860 -0.0072875840 -1 0
-0.0779829430 -0.0052071160 -1 0
-0.0799157760 -0.0020797710 -1 0
-0.0817620180 0.0018049990 -1 0
-0.0833729670 0.0060850290 -1 0
-0.0846239200 0.0103584850 -1 0
-0.0854241190 0.0142223750 -1 0
-0.0857239520 0.0173164210 -1 0
-0.0855190270 0.0193622970 -1 0
-0.0848502680 0.0201890800 -1 0
-0.0837990580 0.0197467050 -1 0
-0.0824779290 0.0181112680 -1 0
-0.0810187900 0.0154791780 -1 0
-0.0795605980 0.0121465980 -1 0
-0.0782375290 0.0084763160 -1 0
-0.0771680770 0.0048579790 -1 0
-0.0764452770 0.0016690370 -1 0
-0.0761285400 -0.0007592310 -1 0
-0.0762381240 -0.0021713870 -1 0
-0.0767530290 -0.0024126690 -1 0
-0.0776126080 -0.0014448100 -1 0
-0.0787222010 0.0006494820 -1 0
-0.0799627510 0.0036732970 -1 0
-0.0812030280 0.0073336960 -1 0
-0.0823125510 0.0112704540 -1 0
-0.0831740780 0.0150921690 -1 0
-0.0836954210 0.0184151000 -1 0
-0.0838203550 0.0209004660 -1 0
-0.0835374610 0.0222866140 -1 0
-0.0828844380 0.0224135940 -1 0
-0.0819452840 0.0212390020 -1 0
-0.0808400550 0.0188435260 -1 0
-0.0797099940 0.0154241240 -1 0
-0.0787016980 0.0112751670 -1 0
-0.0779521600 0.0067599350 -1 0
-0.0775748160 0.0022750660 -1 0
-0.0776471760 -0.0017882580 -1 0
-0.0782019360 -0.0050814270 -1 0
-0.0792226940 -0.0073306860 -1 0
-0.0806441030 -0.0083629360 -1 0
-0.0823569860 -0.0081221000 -1 0
-0.0842194540 -0.0066730820 -1 0
-0.0860728060 -0.0041933980 -1 0
-0.0877587190 -0.0009552620 -1 0
-0.0891348620 0.0026995000 -1 0
-0.0900878400 0.0063907540 -1 0
-0.0905431000 0.0097358050 -1 0
-0.0904712330 0.0123860340 -1 0
-0.0898899800 0.0140606220 -1 0
-0.0888621410 0.0145745380 -1 0
-0.0874904520 0.0138580120 -1 0
-0.0859097440 0.0119646790 -1 0
-0.0842756310 0.0090670010 -1 0
-0.0827494760 0.0054395210 -1 0
-0.0814812880 0.0014316790 -1 0
-0.0805935510 -0.0025676130 -1 0
-0.0801684540 -0.0061699690 -1 0
-0.0802396320 -0.0090263190 -1 0
-0.0807891390 -0.0108596020 -1 0
-0.0817503790 -0.0114896870 -1 0
-0.0830163450 -0.0108499610 -1 0
-0.0844514510 -0.0089945570 -1 0
-0.0859055770 -0.0060952330 -1 0
-0.0872294170 -0.0024271150 -1 0
-0.0882893890 0.0016568200 -1 0
-0.0889801100 0.0057605070 -1 0
-0.0892335160 0.0094844600 -1 0
-0.0890246260 0.0124654950 -1 0
-0.0883739050 0.0144125120 -1 0
-0.0873454440 0.0151350490 -1 0
-0.0860401110 0.0145622060 -1 0
-0.0845840290 0.0127500610 -1 0
-0.0831141850 0.0098757060 -1 0
-0.0817633970 0.0062180270 -1 0
-0.0806466630 0.0021287430 -1 0
-0.0798508040 -0.0020015200 -1 0
-0.0794288220 -0.0057785460 -1 0
-0.0793986860 -0.0088391820 -1 0
-0.0797446230 -0.0108846750 -1 0
-0.0804188660 -0.0117109250 -1 0
-0.0813438700 -0.0112301790 -1 0
-0.0824167070 -0.0094780300 -1 0
-0.0835158400 -0.0066025120 -1 0
-0.0845092130 -0.0028398670 -1 0
-0.0852650200 0.0015092060 -1 0
-0.0856671630 0.0060965930 -1 0
-0.0856326090 0.0105473520 -1 0
-0.0851248300 0.0144909570 -1 0
-0.0841600900 0.0175978180 -1 0
-0.0828060450 0.0196148000 -1 0
-0.0811730660 0.0203949470 -1 0
-0.0794005330 0.0199150400 -1 0
-0.0776413800 0.0182781350 -1 0
-0.0760467850 0.0157035960 -1 0
-0.0747515440 0.0125061140 -1 0
-0.0738613090 0.0090629390 -1 0
-0.0734434260 0.0057721170 -1 0
-0.0735219440 0.0030088460 -1 0
-0.0740766050 0.0010859240 -1 0
-0.0750458150 0.0002212840 -1 0
-0.0763330880 0.0005149950 -1 0
-0.0778156670 0.0019389540 -1 0
-0.0793546550 0.0043416600 -1 0
-0.0808073060 0.0074667720 -1 0
-0.0820412220 0.0109813980 -1 0
-0.0829477160 0.0145110760 -1 0
-0.0834515620 0.0176788430 -1 0
-0.0835169130 0.0201438280 -1 0
-0.0831505710 0.0216347810 -1 0
-0.0824022200 0.0219763010 -1 0
-0.0813597310 0.0211062470 -1 0
-0.0801392360 0.0190825100 -1 0
-0.0788721730 0.0160784770 -1 0
-0.0776917240 0.0123676660 -1 0
-0.0767201160 0.0082979680 -1 0
-0.0760578200 0.0042572130 -1 0
-0.0757750010 0.0006344800 -1 0
-0.0759053440 -0.0022182100 -1 0
-0.0764428990 -0.0040213620 -1 0
-0.0773421010 -0.0045985010 -1 0
-0.0785203290 -0.0038974340 -1 0
-0.0798632280 -0.0019970890 -1 0
-0.0812342230 0.0009020200 -1 0
-0.0824885660 0.0045011480 -1 0
-0.0834896840 0.0084360610 -1 0
-0.0841242150 0.0123148460 -1 0
-0.0843133740 0.0157561790 -1 0
-0.0840208860 0.0184236740 -1 0
-0.0832583680 0.0200539430 -1 0
-0.0820869990 0.0204784450 -1 0
-0.0806130320 0.0196394670 -1 0
-0.0789762960 0.0175988130 -1 0
-0.0773333610 0.0145364400 -1 0
-0.0758383500 0.0107375430 -1 0
-0.0746248800 0.0065686630 -1 0
-0.0737924820 0.0024438280 -1 0
-0.0733992560 -0.0012177530 -1 0
-0.0734603630 -0.0040379640 -1 0
-0.0739509340 -0.0057223170 -1 0
-0.0748117310 -0.0060913540 -1 0
-0.0759560950 -0.0050971050 -1 0
-0.0772778030 -0.0028246800 -1 0
-0.0786601480 0.0005189330 -1 0
-0.0799859310 0.0046265040 -1 0
-0.0811471380 0.0091205720 -1 0
-0.0820535470 0.0135895720 -1 0
-0.0826401490 0.0176270250 -1 0
-0.0828730070 0.0208701450 -1 0
-0.0827527500 0.0230345590 -1 0
-0.0823149460 0.0239420050 -1 0
-0.0816272880 0.0235372640 -1 0
-0.0807840530 0.0218916550 -1 0
-0.0798977230 0.0191935790 -1 0
-0.0790878480 0.0157285070 -1 0
-0.0784688520 0.0118504870 -1 0
-0.0781387790 0.0079478690 -1 0
-0.0781693610 0.0044070790 -1 0
-0.0785974990 0.0015775950 -1 0
-0.0794196400 -0.0002598640 -1 0
-0.0805911790 -0.0009195980 -1 0
-0.0820313740 -0.0003290580 -1 0
-0.0836323630 0.0014631030 -1 0
-0.0852705320 0.0042901810 -1 0
-0.0868192860 0.0078824040 -1 0
-0.0881617770 0.0118930080 -1 0
-0.0892012440 0.0159322260 -1 0
-0.0898677810 0.0196047060 -1 0
-0.0901224740 0.0225467150 -1 0
-0.0899598950 0.0244608940 -1 0
-0.0894086180 0.0251463370 -1 0
-0.0885293270 0.0245207040 -1 0
-0.0874108220 0.0226310590 -1 0
-0.0861638680 0.0196513290 -1 0
-0.0849120750 0.0158660800 -1 0
-0.0837797460 0.0116423210 -1 0
-0.0828781560 0.0073923480 -1 0
-0.0822926220 0.0035314110 -1 0
-0.0820727560 0.0004346840 -1 0
-0.0822274530 -0.0016012060 -1 0
-0.0827248770 -0.0023871160 -1 0
-0.0834965210 -0.0018575480 -1 0
-0.0844441470 -0.0000736432 -1 0
-0.0854486100 0.0027849400 -1 0
-0.0863801870 0.0064368250 -1 0
-0.0871109450 0.0105238050 -1 0
-0.0875293470 0.0146437880 -1 0
-0.0875545780 0.0183898290 -1 0
-0.0871466290 0.0213916770 -1 0
-0.0863106180 0.0233555510 -1 0
-0.0850966300 0.0240963480 -1 0
-0.0835962490 0.0235562470 -1 0
-0.0819349130 0.0218075610 -1 0
-0.0802592800 0.0190422250 -1 0
-0.0787210880 0.0155503540 -1 0
-0.0774604890 0.0116893640 -1 0
-0.0765916010 0.0078476200 -1 0
-0.0761922770 0.0044078840 -1 0
-0.0762985640 0.0017148090 -1 0
-0.0769023010 0.0000506788 -1 0
-0.0779502490 -0.0003816470 -1 0
-0.0793456860 0.0005213610 -1 0
-0.0809549630 0.0027386770 -1 0
-0.0826195380 0.0061096330 -1 0
-0.0841717420 0.0103435800 -1 0
-0.0854524790 0.0150536010 -1 0
-0.0863288050 0.0198038250 -1 0
-0.0867084100 0.0241584460 -1 0
-0.0865485020 0.0277254780 -1 0
-0.0858586780 0.0301946130 -1 1
-0.0846990730 0.0313679140 -1 1
-0.0831748420 0.0311781860 -1 1
-0.0814267690 0.0296911260 -1 0
-0.0796178240 0.0270924540 -1 0
-0.0779164220 0.0236654200 -1 0
-0.0764777450 0.0197636350 -1 0
-0.0754257150 0.0157792590 -1 0
-0.0748399320 0.0121054170 -1 0
-0.0747505410 0.0090971030 -1 0
-0.0751394690 0.0070363910 -1 0
-0.0759443600 0.0061043370 -1 0
-0.0770640880 0.0063628880 -1 0
-0.0783674090 0.0077511300 -1 0
-0.0797058530 0.0100951500 -1 0
-0.0809297840 0.0131271010 -1 0
-0.0819049690 0.0165110580 -1 0
-0.0825268180 0.0198751400 -1 0
-0.0827300430 0.0228478900 -1 0
-0.0824929310 0.0250949520 -1 0
-0.0818368040 0.0263520100 -1 0
-0.0808215170 0.0264510540 -1 0
-0.0795379470 0.0253372560 -1 0
-0.0780991580 0.0230740720 -1 0
-0.0766319380 0.0198369030 -1 0
-0.0752688080 0.0158980150 -1 0
-0.0741389430 0.0116038500 -1 0
-0.0733564680 0.0073438440 -1 0
-0.0730069950 0.0035120110 -1 0
-0.0731358280 0.0004658210 -1 0
-0.0737414100 -0.0015121320 -1 0
-0.0747751250 -0.0022443420 -1 0
-0.0761461240 -0.0016760440 -1 0
-0.0777302160 0.0001213460 -1 0
-0.0793831570 0.0029597550 -1 0
-0.0809573710 0.0065546670 -1 0
-0.0823186160 0.0105533710 -1 0
-0.0833592540 0.0145689520 -1 0
-0.0840073970 0.0182181390 -1 0
-0.0842323420 0.0211590650 -1 0
-0.0840460890 0.0231234090 -1 0
-0.0835006660 0.0239394870 -1 0
-0.0826819360 0.0235458900 -1 0
-0.0817014600 0.0219960090 -1 0
-0.0806877410 0.0194532110 -1 0
-0.0797763210 0.0161765470 -1 0
-0.0790970680 0.0124970100 -1 0
-0.0787589070 0.0087851170 -1 0
-0.0788353750 0.0054133420 -1 0
-0.0793549930 0.0027191320 -1 0
-0.0802983340 0.0009726630 -1 0
-0.0816012610 0.0003510870 -1 0
-0.0831623250 0.0009213230 -1 0
-0.0848524540 0.0026340940 -1 0
-0.0865264850 0.0053299340 -1 0
-0.0880368320 0.0087554370 -1 0
-0.0892483620 0.0125870760 -1 0
-0.0900524960 0.0164602980 -1 0
-0.0903783920 0.0200032510 -1 0
-0.0901993670 0.0228741970 -1 0
-0.0895336190 0.0247978720 -1 0
-0.0884402530 0.0255944000 -1 0
-0.0870127090 0.0251971780 -1 0
-0.0853705640 0.0236588280 -1 0
-0.0836493880 0.0211456460 -1 0
-0.0819887110 0.0179213830 -1 0
-0.0805194920 0.0143206460 -1 0
-0.0793526180 0.0107137180 -1 0
-0.0785694000 0.0074677680 -1 0
-0.0782148040 0.0049107190 -1 0
-0.0782941670 0.0033029920 -1 0
-0.0787736500 0.0028172950 -1 0
-0.0795838380 0.0035229230 -1 0
-0.0806258060 0.0053759590 -1 0
-0.0817794650 0.0082208950 -1 0
-0.0829138720 0.0118048180 -1 0
-0.0838985260 0.0158019730 -1 0
-0.0846147230 0.0198469110 -1 0
-0.0849667740 0.0235712610 -1 0
-0.0848927530 0.0266369720 -1 0
-0.0843727960 0.0287649690 -1 0
-0.0834320200 0.0297625530 -1 0
-0.0821372200 0.0295469050 -1 0
-0.0805894960 0.0281572100 -1 0
-0.0789146330 0.0257536640 -1 0
-0.0772514100 0.0226059470 -1 0
-0.0757383590 0.0190690000 -1 0
-0.0745006900 0.0155436070 -1 0
-0.0736385540 0.0124290320 -1 0
-0.0732168290 0.0100785420 -1 0
-0.0732571210 0.0087627440 -1 0
-0.0737338490 0.0086435850 -1 0
-0.0745762010 0.0097624530 -1 0
-0.0756765870 0.0120417830 -1 0
-0.0769042350 0.0152962980 -1 0
-0.0781204840 0.0192521220 -1 0
-0.0791922740 0.0235745210 -1 0
-0.0800026850 0.0279024560 -1 0
-0.0804594320 0.0318828450 -1 1
-0.0805018790 0.0351982470 -1 1
-0.0801059790 0.0375884110 -1 1
-0.0792866440 0.0388693030 -1 1
-0.0780974180 0.0389506000 -1 1
-0.0766266910 0.0378497390 -1 1
-0.0749898990 0.0356993380 -1 1
-0.0733187300 0.0327435070 -1 1
-0.0717490870 0.0293191120 -1 0
-0.0704095140 0.0258228090 -1 0
-0.0694113940 0.0226688660 -1 0
-0.0688402880 0.0202427090 -1 0
-0.0687465260 0.0188561460 -1 0
-0.0691354080 0.0187128030 -1 0
-0.0699605650 0.0198900730 -1 0
-0.0711245790 0.0223372480 -1 0
-0.0724884980 0.0258845500 -1 0
-0.0738885190 0.0302577140 -1 1
-0.0751566620 0.0350980510 -1 1
-0.0761422870 0.0399932140 -1 1
-0.0767307750 0.0445211150 -1 1
-0.0768551390 0.0483014870 -1 1
-0.0764980210 0.0510465310 -1 1
-0.0756853470 0.0526023600 -1 1
-0.0744769370 0.0529697050 -1 1
-0.0729601960 0.0522936600 -1 1
-0.0712488600 0.0508265520 -1 1
-0.0694829490 0.0488822760 -1 1
-0.0678239040 0.0467996920 -1 1
-0.0664417470 0.0449210280 -1 1
-0.0654953210 0.0435795270 -1 1
-0.0651092210 0.0430846780 -1 1
-0.0653524320 0.0436977640 -1 1
-0.0662242850 0.0456045680 -1 1
-0.0676517020 0.0488998280 -1 1
-0.0694978560 0.0535870490 -1 1
-0.0715794840 0.0595824350 -1 1
-0.0736902600 0.0667139130 -1 1
-0.0756271690 0.0747203210 -1 1
-0.0772142710 0.0832623310 -1 1
-0.0783186200 0.0919509910 -1 1
-0.0788575060 0.1003909790 -1 1
-0.0787998470 0.1082302370 -1 1
-0.0781650150 0.1152062270 -1 1
-0.0770206730 0.1211805690 -1 1
-0.0754788160 0.1261572190 -1 1
-0.0736879700 0.1302830330 -1 1
-0.0718210210 0.1338319180 -1 1
-0.0700602290 0.1371747080 -1 1
-0.0685808290 0.1407375720 -1 1
-0.0675331320 0.1449544220 -1 1
-0.0670241290 0.1502209770 -1 1
-0.0671022780 0.1568552500 -1 1
-0.0677498740 0.1650654170 -1 1
-0.0688857700 0.1749268140 -1 1
-0.0703782260 0.1863710410 -1 1
-0.0720645320 0.1991881990 -1 1
-0.0737726380 0.2130415110 -1 1
-0.0753405800 0.2274934010 -1 1
-0.0766309730 0.2420413850 -1 1
-0.0775399270 0.2561612970 -1 1
-0.0780017400 0.2693546070 -1 1
-0.0779912390 0.2811953720 -1 1
-0.0775249560 0.2913712680 -1 1
-0.0766608880 0.2997127350 -1 1
-0.0754954140 0.3062052370 -1 1
-0.0741558320 0.3109829770 -1 1
-0.0727883940 0.3143064450 -1 1
-0.0715432340 0.3165286900 -1 1
-0.0705580890 0.3180553760 -1 1
-0.0699427420 0.3193023830 -1 1
-0.0697666220 0.3206537720 -1 1
-0.0700515480 0.3224230640 -1 1
-0.0707699300 0.3248220180 -1 1
-0.0718478250 0.3279418120 -1 1
-0.0731729390 0.3317485260 -1 1
-0.0746073920 0.3360907590 -1 1
-0.0760030570 0.3407173120 -1 1
-0.0772164820 0.3453041960 -1 1
-0.0781220670 0.3494882380 -1 1
-0.0786236510 0.3529030300 -1 1
-0.0786639950 0.3552150110 -1 1
-0.0782312500 0.3561588220 -1 1
-0.0773617660 0.3555686380 -1 1
-0.0761378490 0.3533999690 -1 1
-0.0746785110 0.3497373310 -1 1
-0.0731237360 0.3447863380 -1 1
-0.0716162950 0.3388526430 -1 1
-0.0702857660 0.3323119650 -1 1
-0.0692371740 0.3255744650 -1 1
-0.0685439680 0.3190463960 -1 1
-0.0682442490 0.3130931860 -1 1
-0.0683399050 0.3080074340 -1 1
-0.0687984820 0.3039830170 -1 1
-0.0695569820 0.3010964660 -1 1
-0.0705268550 0.2992988580 -1 1
-0.0716001280 0.2984215530 -1 1
-0.0726568880 0.2981954820 -1 1
-0.0735739860 0.2982806930 -1 1
-0.0742347720 0.2983023860 -1 1
-0.0745404660 0.2978888610 -1 1
-0.0744229780 0.2967075140 -1 1
-0.0738561230 0.2944967030 -1 1
-0.0728617300 0.2910895610 -1 1
-0.0715094290 0.2864265290 -1 1
-0.0699098210 0.2805598530 -1 1
-0.0682013740 0.2736530930 -1 1
-0.0665335330 0.2659711020 -1 1
-0.0650499380 0.2578552250 -1 1
-0.0638748050 0.2496860710 -1 1
-0.0631035040 0.2418422900 -1 1
-0.0627964030 0.2346642940 -1 1
-0.0629741240 0.2284269330 -1 1
-0.0636136400 0.2233183160 -1 1
-0.0646472230 0.2194215890 -1 1
-0.0659665830 0.2167029610 -1 1
-0.0674323760 0.2150116710 -1 1
-0.0688883770 0.2140921740 -1 1
-0.0701796920 0.2136056200 -1 1
-0.0711726590 0.2131606010 -1 1
-0.0717715980 0.2123532360 -1 1
-0.0719282390 0.2108120320 -1 1
-0.0716432990 0.2082400710 -1 1
-0.0709625810 0.2044475600 -1 1
-0.0699700330 0.1993706830 -1 1
-0.0687788710 0.1930765220 -1 1
-0.0675207870 0.1857557940 -1 1
-0.0663331060 0.1777046140 -1 1
-0.0653449950 0.1692961120 -1 1
-0.0646650350 0.1609434990 -1 1
-0.0643717600 0.1530576520 -1 1
-0.0645070750 0.1460044350 -1 1
-0.0650722800 0.1400680770 -1 1
-0.0660275120 0.1354249850 -1 1
-0.0672956430 0.1321294210 -1 1
-0.0687702490 0.1301114100 -1 1
-0.0703258580 0.1291869410 -1 1
-0.0718288170 0.1290791220 -1 1
-0.0731482560 0.1294470670 -1 1
-0.0741672460 0.1299184470 -1 1
-0.0747937820 0.1301230300 -1 1
-0.0749708460 0.1297258130 -1 1
-0.0746847340 0.1284577980 -1 1
-0.0739703270 0.1261420550 -1 1
-0.0729112180 0.1227125920 -1 1
-0.0716329250 0.1182227070 -1 1
-0.0702895740 0.1128400770 -1 1
-0.0690466180 0.1068286950 -1 1
-0.0680625610 0.1005203550 -1 1
-0.0674717840 0.0942796120 -1 1
-0.0673699930 0.0884671220 -1 1
-0.0678036940 0.0834057910 -1 1
-0.0687652470 0.0793519380 -1 1
-0.0701949820 0.0764722750 -1 1
-0.0719905930 0.0748280670 -1 1
-0.0740214440 0.0743681880 -1 1
-0.0761435260 0.0749320820 -1 1
-0.0782119020 0.0762629270 -1 1
-0.0800903330 0.0780308070 -1 1
-0.0816595540 0.0798642750 -1 1
-0.0828250930 0.0813864390 -1 1
-0.0835247280 0.0822515870 -1 1
-0.0837357700 0.0821794670 -1 1
-0.0834811210 0.0809840400 -1 1
-0.0828311470 0.0785925800 -1 1
-0.0818987680 0.0750523360 -1 1
-0.0808273370 0.0705248590 -1 1
-0.0797727200 0.0652701960 -1 1
-0.0788829330 0.0596231000 -1 1
-0.0782799050 0.0539621580 -1 1
-0.0780466150 0.0486727820 -1 1
-0.0782207640 0.0441076640 -1 1
-0.0787948260 0.0405504670 -1 1
-0.0797206790 0.0381873810 -1 1
-0.0809163130 0.0370884730 -1 1
-0.0822738050 0.0372000470 -1 1
-0.0836692670 0.0383497010 -1 1
-0.0849745010 0.0402646320 -1 1
-0.0860686990 0.0426014300 -1 1
-0.0868492220 0.0449832670 -1 1
-0.0872414840 0.0470384030 -1 1
-0.0872076340 0.0484346160 -1 1
-0.0867527420 0.0489077480 -1 1
-0.0859267930 0.0482848600 -1 1
-0.0848214960 0.0465019960 -1 1
-0.0835621240 0.0436147850 -1 1
-0.0822955090 0.0397980010 -1 1
-0.0811750380 0.0353305010 -1 1
-0.0803432540 0.0305664370 -1 1
-0.0799139530 0.0258981020 -1 0
-0.0799573770 0.0217154640 -1 0
-0.0804918930 0.0183659700 -1 0
-0.0814829820 0.0161197350 -1 0
-0.0828481940 0.0151450730 -1 0
-0.0844669910 0.0154942460 -1 0
-0.0861950700 0.0170969400 -1 0
-0.0878812780 0.0197635530 -1 0
-0.0893829190 0.0232024040 -1 0
-0.0905766820 0.0270484620 -1 0
-0.0913664700 0.0308971440 -1 1
-0.0916900310 0.0343407430 -1 1
-0.0915236590 0.0370067770 -1 1
-0.0908832180 0.0385945640 -1 1
-0.0898213120 0.0389051970 -1 1
-0.0884218230 0.0378607360 -1 1
-0.0867927210 0.0355103890 -1 1
-0.0850571090 0.0320245520 -1 1
-0.0833426100 0.0276789820 -1 0
-0.0817702860 0.0228303040 -1 0
-0.0804445630 0.0178828200 -1 0
-0.0794446000 0.0132486910 -1 0
-0.0788168860 0.0093074870 -1 0
-0.0785698060 0.0063709600 -1 0
-0.0786719830 0.0046550170 -1 0
-0.0790552490 0.0042589070 -1 0
-0.0796213770 0.0051533190 -1 0
-0.0802514380 0.0071806360 -1 0
-0.0808177110 0.0100696530 -1 0
-0.0811980290 0.0134643920 -1 0
-0.0812906500 0.0169628710 -1 0
-0.0810264110 0.0201588830 -1 0
-0.0803758170 0.0226806610 -1 0
-0.0793507250 0.0242242050 -1 0
-0.0780018580 0.0245814140 -1 0
-0.0764134800 0.0236613700 -1 0
-0.0746956460 0.0215004010 -1 0
-0.0729743410 0.0182579740 -1 0
-0.0713803580 0.0141997220 -1 0
-0.0700376180 0.0096704820 -1 0
-0.0690518550 0.0050600420 -1 0
-0.0685010240 0.0007655010 -1 0
-0.0684281330 -0.0028456590 -1 0
-0.0688363980 -0.0054697850 -1 0
-0.0696872250 -0.0068970220 -1 0
-0.0709022420 -0.0070339730 -1 0
-0.0723704180 -0.0059157170 -1 0
-0.0739596990 -0.0037050040 -1 0
-0.0755307790 -0.0006766710 -1 0
-0.0769503680 0.0028131750 -1 0
-0.0781026060 0.0063681240 -1 0
-0.0788985580 0.0095936960 -1 0
-0.0792842040 0.0121347330 -1 0
-0.0792465230 0.0137066150 -1 0
-0.0788161720 0.0141204290 -1 0
-0.0780652220 0.0133012070 -1 0
-0.0770994630 0.0112975820 -1 0
-0.0760468010 0.0082811230 -1 0
-0.0750443330 0.0045328330 -1 0
-0.0742254610 0.0004150910 -1 0
-0.0737066510 -0.0036678460 -1 0
-0.0735741890 -0.0073129190 -1 0
-0.0738730720 -0.0101580760 -1 0
-0.0746006640 -0.0119168380 -1 0
-0.0757068220 -0.0124073170 -1 0
-0.0771005390 -0.0115722930 -1 0
-0.0786613780 -0.0094854360 -1 0
-0.0802530440 -0.0063422260 -1 0
-0.0817369620 -0.0024381220 -1 0
-0.0829852110 0.0018618790 -1 0
-0.0838925670 0.0061579570 -1 0
-0.0843861850 0.0100511390 -1 0
-0.0844317570 0.0131782650 -1 0
-0.0840369500 0.0152450340 -1 0
-0.0832520830 0.0160547440 -1 0
-0.0821661900 0.0155291220 -1 0
-0.0808981540 0.0137179200 -1 0
-0.0795848710 0.0107956940 -1 0
-0.0783677710 0.0070457680 -1 0
-0.0773779830 0.0028325660 -1 0
-0.0767215780 -0.0014350060 -1 0
-0.0764676300 -0.0053450110 -1 0
-0.0766412890 -0.0085238750 -1 0
-0.0772226550 -0.0106728700 -1 0
-0.0781516410 -0.0115954200 -1 0
-0.0793380180 -0.0112127250 -1 0
-0.0806735280 -0.0095680820 -1 0
-0.0820421310 -0.0068219910 -1 0
-0.0833274400 -0.0032388920 -1 0
-0.0844197820 0.0008355410 -1 0
-0.0852250070 0.0050068160 -1 0
-0.0856742740 0.0088712390 -1 0
-0.0857321600 0.0120581630 -1 0
-0.0854008280 0.0142690120 -1 0
-0.0847195860 0.0153069660 -1 0
-0.0837604030 0.0150936240 -1 0
-0.0826202490 0.0136726850 -1 0
-0.0814114820 0.0112027110 -1 0
-0.0802516860 0.0079403560 -1 0
-0.0792537610 0.0042144040 -1 0
-0.0785167070 0.0003925860 -1 0
-0.0781176480 -0.0031540840 -1 0
-0.0781051940 -0.0060849030 -1 0
-0.0784943130 -0.0081193260 -1 0
-0.0792635070 -0.0090630050 -1 0
-0.0803550810 -0.0088281520 -1 0
-0.0816788200 -0.0074442490 -1 0
-0.0831189300 -0.0050560660 -1 0
-0.0845438240 -0.0019087220 -1 0
-0.0858183280 0.0016783740 -1 0
-0.0868175520 0.0053451850 -1 0
-0.0874405000 0.0087273440 -1 0
-0.0876205950 0.0114905770 -1 0
-0.0873316610 0.0133623570 -1 0
-0.0865905490 0.0141604900 -1 0
-0.0854581260 0.0138130060 -1 0
-0.0840381440 0.0123636860 -1 0
-0.0824713100 0.0099658840 -1 0
-0.0809220420 0.0068720130 -1 0
-0.0795580770 0.0034207260 -1 0
-0.0785274500 0.0000126491 -1 0
-0.0779398720 -0.0029351520 -1 0
-0.0778568470 -0.0050469830 -1 0
-0.0782894490 -0.0060362190 -1 0
-0.0792006180 -0.0057333540 -1 0
-0.0805106860 -0.0041006780 -1 0
-0.0821067140 -0.0012373620 -1 0
-0.0838554160 0.0026280100 -1 0
-0.0856169020 0.0071601560 -1 0
-0.0872558350 0.0119543220 -1 0
-0.0886498840 0.0165807730 -1 0
-0.0896983490 0.0206263890 -1 0
-0.0903319370 0.0237300470 -1 0
-0.0905213430 0.0256132850 -1 0
-0.0902817700 0.0261049860 -1 0
-0.0896717120 0.0251577490 -1 0
-0.0887858670 0.0228545740 -1 0
-0.0877437110 0.0194036410 -1 0
-0.0866753710 0.0151192070 -1 0
-0.0857059670 0.0103897800 -1 0
-0.0849407080 0.0056384640 -1 0
-0.0844538750 0.0012818200 -1 0
-0.0842830760 -0.0023083550 -1 0
-0.0844279220 -0.0048384180 -1 0
-0.0848520370 -0.0061201020 -1 0
-0.0854874940 -0.0060886810 -1 0
-0.0862404950 -0.0048085960 -1 0
-0.0869979390 -0.0024654470 -1 0
-0.0876364640 0.0006537380 -1 0
-0.0880354640 0.0041887480 -1 0
-0.0880927570 0.0077399180 -1 0
-0.0877388110 0.0109055430 -1 0
-0.0869461850 0.0133211130 -1 0
-0.0857335490 0.0146965310 -1 0
-0.0841645140 0.0148461200 -1 0
-0.0823408440 0.0137074670 -1 0
-0.0803906070 0.0113472320 -1 0
-0.0784540720 0.0079537960 -1 0
-0.0766706350 0.0038177790 -1 0
-0.0751680920 -0.0006976430 -1 0
-0.0740532040 -0.0051938650 -1 0
-0.0734019170 -0.0092774310 -1 0
-0.0732498290 -0.0125986990 -1 0
-0.0735861980 -0.0148840810 -1 0
-0.0743544450 -0.0159596900 -1 0
-0.0754589330 -0.0157650290 -1 0
-0.0767753950 -0.0143559270 -1 0
-0.0781626600 -0.0118980420 -1 0
-0.0794747890 -0.0086529630 -1 0
-0.0805734440 -0.0049567970 -1 0
-0.0813398680 -0.0011899220 -1 0
-0.0816854680 0.0022609410 -1 0
-0.0815598340 0.0050428900 -1 0
-0.0809548880 0.0068724970 -1 0
-0.0799045730 0.0075631820 -1 0
-0.0784810940 0.0070435730 -1 0
-0.0767893010 0.0053658950 -1 0
-0.0749592200 0.0027021140 -1 0
-0.0731354190 -0.0006735400 -1 0
-0.0714628230 -0.0044138960 -1 0
-0.0700708060 -0.0081347850 -1 0
-0.0690590540 -0.0114518170 -1 0
-0.0684879260 -0.0140153870 -1 0
-0.0683735040 -0.0155431260 -1 0
-0.0686864810 -0.0158474320 -1 0
-0.0693554760 -0.0148551210 -1 0
-0.0702756850 -0.0126178680 -1 0
-0.0713213990 -0.0093123360 -1 0
-0.0723593360 -0.0052278740 -1 0
-0.0732608980 -0.0007404690 -1 0
-0.0739138640 0.0037252840 -1 0
-0.0742344170 0.0077415030 -1 0
-0.0741780690 0.0109230160 -1 0
-0.0737461260 0.0129675880 -1 0
-0.0729861050 0.0136859290 -1 0
-0.0719870800 0.0130196850 -1 0
-0.0708706730 0.0110475870 -1 0
-0.0697776960 0.0079788750 -1 0
-0.0688519180 0.0041311850 -1 0
-0.0682239610 -0.0001062160 -1 0
-0.0679975960 -0.0043163880 -1 0
-0.0682392180 -0.0080971440 -1 0
-0.0689707350 -0.0110949940 -1 0
-0.0701661460 -0.0130278990 -1 0
-0.0717527230 -0.0137026610 -1 0
-0.0736178650 -0.0130330040 -1 0
-0.0756209480 -0.0110528690 -1 0
-0.0776074250 -0.0079162180 -1 0
-0.0794228840 -0.0038850360 -1 0
-0.0809270260 0.0006887830 -1 0
-0.0820078490 0.0053889890 -1 0
-0.0825943670 0.0097718280 -1 0
-0.0826652200 0.0134122890 -1 0
-0.0822513490 0.0159525570 -1 0
-0.0814320110 0.0171436100 -1 0
-0.0803246790 0.0168723150 -1 0
-0.0790707760 0.0151705860 -1 0
-0.0778199730 0.0122080220 -1 0
-0.0767153070 0.0082719510 -1 0
-0.0758804860 0.0037380310 -1 0
-0.0754104030 -0.0009668230 -1 0
-0.0753656040 -0.0054066530 -1 0
-0.0757702870 -0.0091792610 -1 0
-0.0766121270 -0.0119548160 -1 0
-0.0778427170 -0.0135070390 -1 0
-0.0793792880 -0.0137344840 -1 0
-0.0811094640 -0.0126692750 -1 0
-0.0829002100 -0.0104715350 -1 0
-0.0846104410 -0.0074106180 -1 0
-0.0861050640 -0.0038363640 -1 0
-0.0872682500 -0.0001431200 -1 0
-0.0880148540 0.0032705390 -1 0
-0.0882994080 0.0060410870 -1 0
-0.0881218220 0.0078733090 -1 0
-0.0875287420 0.0085663850 -1 0
-0.0866097800 0.0080329790 -1 0
-0.0854889530 0.0063086890 -1 0
-0.0843120770 0.0035492610 -1 0
-0.0832307330 0.0000166995 -1 0
-0.0823842690 -0.0039437930 -1 0
-0.0818826670 -0.0079365830 -1 0
-0.0817933560 -0.0115577750 -1 0
-0.0821344020 -0.0144412260 -1 0
-0.0828752260 -0.0162993510 -1 0
-0.0839441050 -0.0169521030 -1 0
-0.0852396290 -0.0163423080 -1 0
-0.0866424130 -0.0145378370 -1 0
-0.0880248840 -0.0117217720 -1 0
-0.0892599930 -0.0081726440 -1 0
-0.0902307530 -0.0042373430 -1 0
-0.0908405940 -0.0002991010 -1 0
-0.0910226070 0.0032571300 -1 0
-0.0907459440 0.0060795240 -1 0
-0.0900189530 0.0078821070 -1 0
-0.0888891250 0.0084730240 -1 0
-0.0874395210 0.0077752200 -1 0
-0.0857817510 0.0058356170 -1 0
-0.0840461400 0.0028206680 -1 0
-0.0823695490 -0.0009995620 -1 0
-0.0808814360 -0.0052756490 -1 0
-0.0796898620 -0.0096108940 -1 0
-0.0788697510 -0.0136007240 -1 0
-0.0784554150 -0.0168746440 -1 0
-0.0784386500 -0.0191340330 -1 0
-0.0787720190 -0.0201815100 -1 0
-0.0793755840 -0.0199401050 -1 0
-0.0801450350 -0.0184610070 -1 0
-0.0809601410 -0.0159182900 -1 0
-0.0816936650 -0.0125900890 -1 0
-0.0822214730 -0.0088288960 -1 0
-0.0824343830 -0.0050257320 -1 0
-0.0822506220 -0.0015724260 -1 0
-0.0816257130 0.0011749350 -1 0
-0.0805574330 0.0029294820 -1 0
-0.0790864710 0.0035022610 -1 0
-0.0772943580 0.0028230050 -1 0
-0.0752981930 0.0009489730 -1 0
-0.0732402040 -0.0019406150 -1 0
-0.0712721550 -0.0055640910 -1 0
-0.0695375880 -0.0095677900 -1 0
-0.0681553670 -0.0135626490 -1 0
-0.0672070220 -0.0171616340 -1 0
-0.0667300140 -0.0200141760 -1 0
-0.0667177440 -0.0218362210 -1 0
-0.0671242600 -0.0224358880 -1 0
-0.0678709190 -0.0217339960 -1 0
-0.0688545440 -0.0197759740 -1 0
-0.0699579300 -0.0167315410 -1 0
-0.0710615270 -0.0128816220 -1 0
-0.0720536460 -0.0085933890 -1 0
-0.0728379140 -0.0042840720 -1 0
-0.0733389410 -0.0003764710 -1 0
-0.0735077590 0.0027471000 -1 0
-0.0733276340 0.0047852010 -1 0
-0.0728191240 0.0055471930 -1 0
-0.0720416610 0.0049702920 -1 0
-0.0710891480 0.0031228080 -1 0
-0.0700794020 0.0001943240 -1 0
-0.0691396360 -0.0035251810 -1 0
-0.0683905930 -0.0076755940 -1 0
-0.0679315220 -0.0118637100 -1 0
-0.0678287540 -0.0157020180 -1 0
-0.0681104070 -0.0188444130 -1 0
-0.0687672890 -0.0210165690 -1 0
-0.0697578860 -0.0220393070 -1 0
-0.0710149990 -0.0218429430 -1 0
-0.0724518940 -0.0204716940 -1 0
-0.0739672280 -0.0180778960 -1 0
-0.0754504720 -0.0149061200 -1 0
-0.0767904960 -0.0112686890 -1 0
-0.0778875730 -0.0075156050 -1 0
-0.0786659950 -0.0040029670 -1 0
-0.0790836000 -0.0010626350 -1 0
-0.0791358700 0.0010267980 -1 0
-0.0788547190 0.0020671330 -1 0
-0.0783037200 0.0019636690 -1 0
-0.0775714100 0.0007401530 -1 0
-0.0767633190 -0.0014618820 -1 0
-0.0759927600 -0.0044019780 -1 0
-0.0753701360 -0.0077689770 -1 0
-0.0749915090 -0.0112098940 -1 0
-0.0749288750 -0.0143596390 -1 0
-0.0752240370 -0.0168729510 -1 0
-0.0758853760 -0.0184573870 -1 0
-0.0768866000 -0.0189053960 -1 0
-0.0781675910 -0.0181186540 -1 0
-0.0796376770 -0.0161190220 -1 0
-0.0811826920 -0.0130496930 -1 0
-0.0826770910 -0.0091681110 -1 0
-0.0839994970 -0.0048256170 -1 0
-0.0850478120 -0.0004331740 -1 0
-0.0857505640 0.0035816080 -1 0
-0.0860729940 0.0068198640 -1 0
-0.0860183580 0.0089525310 -1 0
-0.0856259300 0.0097526470 -1 0
-0.0849666690 0.0091178430 -1 0
-0.0841367360 0.0070819290 -1 0
-0.0832489030 0.0038138620 -1 0
-0.0824222370 -0.0003965030 -1 0
-0.0817707150 -0.0051657300 -1 0
-0.0813917950 -0.0100552270 -1 0
-0.0813563060 -0.0146160500 -1 0
-0.0817008580 -0.0184346530 -1 0
-0.0824234790 -0.0211748630 -1 0
-0.0834832060 -0.0226111250 -1 0
-0.0848041360 -0.0226489760 -1 0
-0.0862834110 -0.0213317550 -1 0
-0.0878015740 -0.0188344990 -1 0
-0.0892340120 -0.0154456590 -1 0
-0.0904628550 -0.0115374200 -1 0
-0.0913884650 -0.0075273130 -1 0
-0.0919389400 -0.0038356570 -1 0
-0.0920762540 -0.0008436880 -1 0
-0.0917985830 0.0011444600 -1 0
-0.0911396170 0.0019334170 -1 0
-0.0901660910 0.0014571080 -1 0
-0.0889739290 -0.0002168570 -1 0
-0.0876822140 -0.0028991290 -1 0
-0.0864236950 -0.0063025900 -1 0
-0.0853316490 -0.0100734430 -1 0
-0.0845250180 -0.0138258100 -1 0
-0.0840947740 -0.0171773320 -1 0
-0.0840937030 -0.0197844520 -1 0
-0.0845301790 -0.0213756660 -1 0
-0.0853658130 -0.0217792300 -1 0
-0.0865178400 -0.0209412490 -1 0
-0.0878679350 -0.0189318380 -1 0
-0.0892771700 -0.0159384040 -1 0
-0.0906037370 -0.0122463800 -1 0
-0.0917190960 -0.0082103660 -1 0
-0.0925198960 -0.0042197630 -1 0
-0.0929354540 -0.0006616590 -1 0
-0.0929311010 0.0021165240 -1 0
-0.0925077670 0.0038406000 -1 0
-0.0916994830 0.0043354810 -1 0
-0.0905708490 0.0035414170 -1 0
-0.0892144130 0.0015199090 -1 0
-0.0877461980 -0.0015514880 -1 0
-0.0862979840 -0.0053954540 -1 0
-0.0850058910 -0.0096605400 -1 0
-0.0839961130 -0.0139533810 -1 0
-0.0833705500 -0.0178747380 -1 0
-0.0831959150 -0.0210570510 -1 0
-0.0834979270 -0.0232009110 -1 0
-0.0842594500 -0.0241064380 -1 0
-0.0854209860 -0.0236946910 -1 0
-0.0868832600 -0.0220154820 -1 0
-0.0885129170 -0.0192410040 -1 0
-0.0901526050 -0.0156476690 -1 0
-0.0916359680 -0.0115890400 -1 0
-0.0928062930 -0.0074617960 -1 0
-0.0935357060 -0.0036679430 -1 0
-0.0937411320 -0.0005777130 -1 0
-0.0933945080 0.0015045130 -1 0
-0.0925260680 0.0023707990 -1 0
-0.0912200850 0.0019341460 -1 0
-0.0896037790 0.0002409650 -1 0
-0.0878323050 -0.0025329100 -1 0
-0.0860730370 -0.0061010470 -1 0
-0.0844900640 -0.0100948440 -1 0
-0.0832281200 -0.0140983350 -1 0
-0.0823963860 -0.0176879990 -1 0
-0.0820551640 -0.0204760640 -1 0
-0.0822094050 -0.0221531810 -1 0
-0.0828104910 -0.0225218800 -1 0
-0.0837644210 -0.0215149990 -1 0
-0.0849440820 -0.0192012070 -1 0
-0.0862039020 -0.0157799880 -1 0
-0.0873947050 -0.0115640670 -1 0
-0.0883772130 -0.0069470840 -1 0
-0.0890338300 -0.0023576020 -1 0
-0.0892783570 0.0017920840 -1 0
-0.0890636350 0.0051471010 -1 0
-0.0883875290 0.0074328990 -1 0
-0.0872956510 0.0084668550 -1 0
-0.0858777290 0.0081686690 -1 0
-0.0842570920 0.0065703210 -1 0
-0.0825762870 0.0038195560 -1 0
-0.0809821730 0.0001713900 -1 0
-0.0796117570 -0.0040340540 -1 0
-0.0785789530 -0.0084048390 -1 0
-0.0779634720 -0.0125359270 -1 0
-0.0778038250 -0.0160476150 -1 0
-0.0780950670 -0.0186205410 -1 0
-0.0787902890 -0.0200252950 -1 0
-0.0798053110 -0.0201440660 -1 0
-0.0810270760 -0.0189819510 -1 0
-0.0823253550 -0.0166668730 -1 0
-0.0835660740 -0.0134383090 -1 0
-0.0846249270 -0.0096255860 -1 0
-0.0853998660 -0.0056163680 -1 0
-0.0858201460 -0.0018173680 -1 0
-0.0858506580 0.0013875810 -1 0
-0.0854927210 0.0036764600 -1 0
-0.0847830470 0.0048215240 -1 0
-0.0837909560 0.0047128030 -1 0
-0.0826126790 0.0033697410 -1 0
-0.0813624980 0.0009394310 -1 0
-0.0801620750 -0.0023177900 -1 0
-0.0791294780 -0.0060545710 -1 0
-0.0783686350 -0.0098738090 -1 0
-0.0779599600 -0.0133730810 -1 0
-0.0779528660 -0.0161892780 -1 0
-0.0783603230 -0.0180366260 -1 0
-0.0791555700 -0.0187333840 -1 0
-0.0802724830 -0.0182156050 -1 0
-0.0816113150 -0.0165396850 -1 0
-0.0830494130 -0.0138759170 -1 0
-0.0844543700 -0.0104925580 -1 0
-0.0856972650 -0.0067292360 -1 0
-0.0866650040 -0.0029617260 -1 0
-0.0872710160 0.0004366790 -1 0
-0.0874632140 0.0031313760 -1 0
-0.0872285320 0.0048562950 -1 0
-0.0865939280 0.0054363970 -1 0
-0.0856238280 0.0048034000 -1 0
-0.0844141330 0.0030041810 -1 0
-0.0830834030 0.0001998250 -1 0
-0.0817617340 -0.0033462470 -1 0
-0.0805779820 -0.0072912600 -1 0
-0.0796467690 -0.0112458180 -1 0
-0.0790566720 -0.0148127640 -1 0
-0.0788604800 -0.0176267550 -1 0
-0.0790687000 -0.0193902800 -1 0
-0.0796477070 -0.0199041000 -1 0
-0.0805236520 -0.0190901160 -1 0
-0.0815920970 -0.0170028230 -1 0
-0.0827310970 -0.0138254220 -1 0
-0.0838143690 -0.0098500800 -1 0
-0.0847228720 -0.0054459260 -1 0
-0.0853550860 -0.0010199540 -1 0
-0.0856362500 0.0030241340 -1 0
-0.0855255550 0.0063245230 -1 0
-0.0850197520 0.0085940530 -1 0
-0.0841522920 0.0096457050 -1 0
-0.0829886190 0.0094092890 -1 0
-0.0816195300 0.0079368580 -1 0
-0.0801545690 0.0053958840 -1 0
-0.0787160630 0.0020520460 -1 0
-0.0774326540 -0.0017560300 -1 0
-0.0764305770 -0.0056486450 -1 0
-0.0758220200 -0.0092410710 -1 0
-0.0756921820 -0.0121794470 -1 0
-0.0760881660 -0.0141730280 -1 0
-0.0770120300 -0.0150214760 -1 0
-0.0784182260 -0.0146354000 -1 0
-0.0802152370 -0.0130470050 -1 0
-0.0822721680 -0.0104090120 -1 0
-0.0844312900 -0.0069819380 -1 0
-0.0865258190 -0.0031099690 -1 0
-0.0883996820 0.0008133430 -1 0
-0.0899251250 0.0043853900 -1 0
-0.0910151480 0.0072352470 -1 0
-0.0916295730 0.0090611240 -1 0
-0.0917758700 0.0096619610 -1 0
-0.0915068110 0.0089594340 -1 0
-0.0909150500 0.0070065550 -1 0
-0.0901233790 0.0039819980 -1 0
-0.0892710470 0.0001717610 -1 0
-0.0884986430 -0.0040599100 -1 0
-0.0879341140 -0.0083076220 -1 0
-0.0876808510 -0.0121654530 -1 0
-0.0878078710 -0.0152665390 -1 0
-0.0883424840 -0.0173181840 -1 0
-0.0892666770 -0.0181295780 -1 0
-0.0905185170 -0.0176292240 -1 0
-0.0919985920 -0.0158702330 -1 0
-0.0935800460 -0.0130238280 -1 0
-0.0951208180 -0.0093628870 -1 0
-0.0964779690 -0.0052366480 -1 0
-0.0975237980 -0.0010372740 -1 0
-0.0981611350 0.0028386740 -1 0
-0.0983339830 0.0060281840 -1 0
-0.0980320990 0.0082348330 -1 0
-0.0972908170 0.0092557250 -1 0
-0.0961873620 0.0090015530 -1 0
-0.0948335870 0.0075071500 -1 0
-0.0933652090 0.0049300440 -1 0
-0.0919284030 0.0015366710 -1 0
-0.0906641920 -0.0023222550 -1 0
-0.0896914900 -0.0062456100 -1 0
-0.0890922230 -0.0098229570 -1 0
-0.0889027530 -0.0126781470 -1 0
-0.0891128280 -0.0145086430 -1 0
-0.0896704770 -0.0151157160 -1 0
-0.0904909320 -0.0144237290 -1 0
-0.0914675180 -0.0124876830 -1 0
-0.0924822380 -0.0094876560 -1 0
-0.0934147150 -0.0057095060 -1 0
-0.0941499410 -0.0015144640 -1 0
-0.0945861770 0.0026973420 -1 0
-0.0946434850 0.0065251930 -1 0
-0.0942720070 0.0096050370 -1 0
-0.0934585200 0.0116430820 -1 0
-0.0922301310 0.0124440140 -1 0
-0.0906538450 0.0119328340 -1 0
-0.0888306260 0.0101676370 -1 0
-0.0868844150 0.0073382570 -1 0
-0.0849490700 0.0037472030 -1 0
-0.0831559100 -0.0002234280 -1 0
-0.0816218960 -0.0041499920 -1 0
-0.0804377710 -0.0076058570 -1 0
-0.0796579800 -0.0102039090 -1 0
-0.0792955500 -0.0116430740 -1 0
-0.0793226770 -0.0117480490 -1 0
-0.0796750670 -0.0104896790 -1 0
-0.0802585450 -0.0079819660 -1 0
-0.0809579130 -0.0044609960 -1 0
-0.0816483640 -0.0002557750 -1 0
-0.0822085630 0.0042422690 -1 0
-0.0825329960 0.0086115450 -1 0
-0.0825417350 0.0124367520 -1 0
-0.0821875710 0.0153493970 -1 0
-0.0814608520 0.0170679380 -1 0
-0.0803918110 0.0174279940 -1 0
-0.0790494960 0.0163946820 -1 0
-0.0775357630 0.0140579700 -1 0
-0.0759744430 0.0106176490 -1 0
-0.0744983700 0.0063638750 -1 0
-0.0732368060 0.0016546180 -1 0
-0.0723041560 -0.0031126590 -1 0
-0.0717906510 -0.0075360700 -1 0
-0.0717552810 -0.0112467530 -1 0
-0.0722203650 -0.0139424720 -1 0
-0.0731675580 -0.0154138260 -1 0
-0.0745363810 -0.0155622490 -1 0
-0.0762267500 -0.0144095010 -1 0
-0.0781067340 -0.0120973920 -1 0
-0.0800261090 -0.0088761720 -1 0
-0.0818338090 -0.0050816850 -1 0
-0.0833951490 -0.0011039760 -1 0
-0.0846054790 0.0026489740 -1 0
-0.0853991930 0.0057896610 -1 0
-0.0857541410 0.0079896010 -1 0
-0.0856918500 0.0090146570 -1 0
-0.0852744200 0.0087520030 -1 0
-0.0845984540 0.0072234540 -1 0
-0.0837853290 0.0045821230 -1 0
-0.0829680330 0.0010937500 -1 0
-0.0822770320 -0.0028924170 -1 0
-0.0818276230 -0.0069786260 -1 0
-0.0817093710 -0.0107573680 -1 0
-0.0819773060 -0.0138525820 -1 0
-0.0826453890 -0.0159598220 -1 0
-0.0836836470 -0.0168788810 -1 0
-0.0850202320 -0.0165329590 -1 0
-0.0865483330 -0.0149729830 -1 0
-0.0881368220 -0.0123696150 -1 0
-0.0896436640 -0.0089957220 -1 0
-0.0909315320 -0.0052001190 -1 0
-0.0918840380 -0.0013735890 -1 0
-0.0924193630 0.0020894850 -1 0
-0.0924987120 0.0048298290 -1 0
-0.0921294100 0.0065591210 -1 0
-0.0913636230 0.0070899600 -1 0
-0.0902929150 0.0063561660 -1 0
-0.0890382870 0.0044195190 -1 0
-0.0877369560 0.0014619870 -1 0
-0.0865286770 -0.0022337880 -1 0
-0.0855432670 -0.0063124580 -1 0
-0.0848894100 -0.0103801880 -1 0
-0.0846453490 -0.0140425300 -1 0
-0.0848527860 -0.0169426870 -1 0
-0.0855143840 -0.0187964090 -1 0
-0.0865938080 -0.0194183590 -1 0
-0.0880171220 -0.0187355600 -1 0
-0.0896762100 -0.0167901190 -1 0
-0.0914365470 -0.0137369760 -1 0
-0.0931499460 -0.0098350140 -1 0
-0.0946694620 -0.0054251390 -1 0
-0.0958632060 -0.0008968180 -1 0
-0.0966266710 0.0033496910 -1 0
-0.0968940530 0.0069414170 -1 0
-0.0966470660 0.0095678790 -1 0
-0.0959184560 0.0110098140 -1 0
-0.0947880430 0.0111607730 -1 0
-0.0933715370 0.0100393930 -1 0
-0.0918054920 0.0077875060 -1 0
-0.0902330660 0.0046535240 -1 0
-0.0887925980 0.0009654040 -1 0
-0.0876075010 -0.0029017560 -1 0
-0.0867761470 -0.0065596780 -1 0
-0.0863626800 -0.0096411040 -1 0
-0.0863901460 -0.0118337270 -1 0
-0.0868367950 -0.0129117680 -1 0
-0.0876367110 -0.0127614320 -1 0
-0.0886856140 -0.0113955970 -1 0
-0.0898511510 -0.0089540150 -1 0
-0.0909862570 -0.0056883900 -1 0
-0.0919445660 -0.0019344810 -1 0
-0.0925963770 0.0019249590 -1 0
-0.0928427440 0.0055007850 -1 0
-0.0926255890 0.0084358630 -1 0
-0.0919329100 0.0104382620 -1 0
-0.0907990280 0.0113082660 -1 0
-0.0893008310 0.0109575940 -1 0
-0.0875512070 0.0094185210 -1 0
-0.0856895280 0.0068416410 -1 0
-0.0838682690 0.0034820860 -1 0
-0.0822365470 -0.0003255480 -1 0
-0.0809240500 -0.0042016050 -1 0
-0.0800287680 -0.0077608750 -1 0
-0.0796090880 -0.0106520880 -1 0
-0.0796791550 -0.0125931240 -1 0
-0.0802074080 -0.0133990420 -1 0
-0.0811187310 -0.0130003410 -1 0
-0.0823005850 -0.0114489180 -1 0
-0.0836135980 -0.0089105380 -1 0
-0.0849059280 -0.0056453170 -1 0
-0.0860290270 -0.0019802280 -1 0
-0.0868527230 0.0017219130 -1 0
-0.0872787970 0.0050950170 -1 0
-0.0872517900 0.0078040580 -1 0
-0.0867648790 0.0095795380 -1 0
-0.0858594740 0.0102464940 -1 0
-0.0846192410 0.0097423630 -1 0
-0.0831604140 0.0081221170 -1 0
-0.0816201340 0.0055522350 -1 0
-0.0801441690 0.0022947820 -1 0
-0.0788750440 -0.0013181350 -1 0
-0.0779404650 -0.0049179800 -1 0
-0.0774413910 -0.0081371340 -1 0
-0.0774403540 -0.0106447600 -1 0
-0.0779522440 -0.0121778760 -1 0
-0.0789401220 -0.0125660170 -1 0
-0.0803177250 -0.0117477970 -1 0
-0.0819588440 -0.0097778610 -1 0
-0.0837119550 -0.0068236740 -1 0
-0.0854171240 -0.0031519780 -1 0
-0.0869220260 0.0008956720 -1 0
-0.0880954590 0.0049374650 -1 0
-0.0888384540 0.0085912460 -1 0
-0.0890930720 0.0115131740 -1 0
-0.0888481330 0.0134306120 -1 0
-0.0881412160 0.0141671520 -1 0
-0.0870566260 0.0136584720 -1 0
-0.0857186730 0.0119583200 -1 0
-0.0842797660 0.0092343070 -1 0
-0.0829037810 0.0057532540 -1 0
-0.0817460890 0.0018563760 -1 0
-0.0809330380 -0.0020736690 -1 0
-0.0805454490 -0.0056498360 -1 0
-0.0806105270 -0.0085179880 -1 0
-0.0811037050 -0.0103913910 -1 0
-0.0819583220 -0.0110792480 -1 0
-0.0830789660 -0.0105066010 -1 0
-0.0843546990 -0.0087239840 -1 0
-0.0856699840 -0.0059047340 -1 0
-0.0869122610 -0.0023276640 -1 0
-0.0879766060 0.0016539240 -1 0
-0.0887702180 0.0056515320 -1 0
-0.0892190490 0.0092822950 -1 0
-0.0892758340 0.0122063380 -1 0
-0.0889274260 0.0141581420 -1 0
-0.0881998640 0.0149701540 -1 0
-0.0871594860 0.0145861260 -1 0
-0.0859083930 0.0130626780 -1 0
-0.0845742210 0.0105609590 -1 0
-0.0832963090 0.0073314130 -1 0
-0.0822105420 0.0036924630 -1 0
-0.0814337890 0.0000027946 -1 0
-0.0810491690 -0.0033706780 -1 0
-0.0810950910 -0.0060857370 -1 0
-0.0815612090 -0.0078571310 -1 0
-0.0823923070 -0.0084870920 -1 0
-0.0834981420 -0.0078903250 -1 0
-0.0847654490 -0.0061072860 -1 0
-0.0860697680 -0.0033009210 -1 0
-0.0872873940 0.0002625750 -1 0
-0.0883073330 0.0042431810 -1 0
-0.0890412770 0.0082601570 -1 0
-0.0894300420 0.0119257240 -1 0
-0.0894465980 0.0148798900 -1 0
-0.0890964030 0.0168268820 -1 0
-0.0884159090 0.0175687910 -1 0
-0.0874700670 0.0170287570 -1 0
-0.0863484420 0.0152593840 -1 0
-0.0851584340 0.0124377000 -1 0
-0.0840153540 0.0088487460 -1 0
-0.0830310700 0.0048581860 -1 0
-0.0823031210 0.0008754790 -1 0
-0.0819052330 -0.0026886730 -1 0
-0.0818799940 -0.0054649160 -1 0
-0.0822340480 -0.0071610490 -1 0
-0.0829359830 -0.0075874290 -1 0
-0.0839178200 -0.0066718130 -1 0
-0.0850816840 -0.0044641720 -1 0
-0.0863112770 -0.0011336350 -1 0
-0.0874849600 0.0030426700 -1 0
-0.0884871770 0.0077044170 -1 0
-0.0892177470 0.0124457340 -1 0
-0.0896003630 0.0168541340 -1 0
-0.0895906050 0.0205434000 -1 0
-0.0891823270 0.0231847100 -1 0
-0.0884107910 0.0245400660 -1 0
-0.0873505120 0.0244931740 -1 0
-0.0861067690 0.0230674400 -1 0
-0.0848030460 0.0204241120 -1 0
-0.0835684940 0.0168423740 -1 0
-0.0825272120 0.0126871670 -1 0
-0.0817883110 0.0083690750 -1 0
-0.0814356510 0.0043018290 -1 0
-0.0815177180 0.0008642510 -1 0
-0.0820395940 -0.0016304850 -1 0
-0.0829596590 -0.0029594210 -1 0
-0.0841931200 -0.0030095450 -1 0
-0.0856225610 -0.0017910500 -1 0
-0.0871133180 0.0005604000 -1 0
-0.0885299930 0.0037954310 -1 0
-0.0897506630 0.0075755840 -1 0
-0.0906770940 0.0115073510 -1 0
-0.0912405780 0.0151818760 -1 0
-0.0914038110 0.0182165360 -1 0
-0.0911607710 0.0202942140 -1 0
-0.0905372740 0.0211957220 -1 0
-0.0895923490 0.0208219180 -1 0
-0.0884176780 0.0192039610 -1 0
-0.0871322820 0.0165005250 -1 0
-0.0858715830 0.0129811380 -1 0
-0.0847725950 0.0089967230 -1 0
-0.0839586640 0.0049406700 -1 0
-0.0835261730 0.0012059920 -1 0
-0.0835336560 -0.0018545250 -1 0
-0.0839939050 -0.0039602130 -1 0
-0.0848711420 -0.0049255430 -1 0
-0.0860848310 -0.0046753940 -1 0
-0.0875193090 -0.0032524310 -1 0
-0.0890367560 -0.0008143380 -1 0
-0.0904909310 0.0023812170 -1 0
-0.0917403630 0.0060032360 -1 0
-0.0926611470 0.0096816050 -1 0
-0.0931596410 0.0130438390 -1 0
-0.0931840540 0.0157509770 -1 0
-0.0927324520 0.0175303190 -1 0
-0.0918545220 0.0182017460 -1 0
-0.0906462140 0.0176942430 -1 0
-0.0892387750 0.0160515680 -1 0
-0.0877844470 0.0134285730 -1 0
-0.0864405980 0.0100790570 -1 0
-0.0853536360 0.0063338390 -1 0
-0.0846442650 0.0025688310 -1 0
-0.0843959450 -0.0008329810 -1 0
-0.0846475120 -0.0035197790 -1 0
-0.0853894380 -0.0052050850 -1 0
-0.0865635480 -0.0056956820 -1 0
-0.0880669700 -0.0049116490 -1 0
-0.0897605950 -0.0028959050 -1 0
-0.0914815450 0.0001890300 -1 0
-0.0930586920 0.0040767190 -1 0
-0.0943293140 0.0084216730 -1 0
-0.0951551000 0.0128299310 -1 0
-0.0954368810 0.0168938840 -1 0
-0.0951270750 0.0202308580 -1 0
-0.0942371890 0.0225229290 -1 0
-0.0928376620 0.0235522800 -1 0
-0.0910493130 0.0232253570 -1 0
-0.0890280160 0.0215819680 -1 0
-0.0869457660 0.0187901130 -1 0
-0.0849720230 0.0151292690 -1 0
-0.0832586540 0.0109637920 -1 0
-0.0819293120 0.0067077330 -1 0
-0.0810716860 0.0027840670 -1 0
-0.0807314640 -0.0004176720 -1 0
-0.0809089080 -0.0025813160 -1 0
-0.0815593330 -0.0034963590 -1 0
-0.0825975270 -0.0030779450 -1 0
-0.0839058320 -0.0013732450 -1 0
-0.0853455970 0.0014460180 -1 0
-0.0867709390 0.0051045360 -1 0
-0.0880427960 0.0092533370 -1 0
-0.0890411230 0.0135026060 -1 0
-0.0896740370 0.0174543530 -1 0
-0.0898846100 0.0207340430 -1 0
-0.0896565850 0.0230224010 -1 0
-0.0890176800 0.0240885450 -1 0
-0.0880375790 0.0238196090 -1 0
-0.0868202440 0.0222379710 -1 0
-0.0854931100 0.0195024030 -1 0
-0.0841951920 0.0158940470 -1 0
-0.0830645500 0.0117872170 -1 0
-0.0822254020 0.0076073600 -1 0
-0.0817761530 0.0037830120 -1 0
-0.0817798240 0.0006990200 -1 0
-0.0822576050 -0.0013427840 -1 0
-0.0831860510 -0.0021513420 -1 0
-0.0844986700 -0.0016612660 -1 0
-0.0860918530 0.0000649072 -1 0
-0.0878344340 0.0028458160 -1 0
-0.0895803550 0.0063998740 -1 0
-0.0911832080 0.0103719410 -1 0
-0.0925106290 0.0143669990 -1 0
-0.0934569780 0.0179890880 -1 0
-0.0939532790 0.0208818630 -1 0
-0.0939733650 0.0227649070 -1 0
-0.0935358830 0.0234598770 -1 0
-0.0927026810 0.0229041610 -1 0
-0.0915738450 0.0211536130 -1 0
-0.0902789210 0.0183763470 -1 0
-0.0889640530 0.0148376470 -1 0
-0.0877761520 0.0108758160 -1 0
-0.0868465920 0.0068706080 -1 0
-0.0862768090 0.0032072200 -1 0
-0.0861273110 0.0002388800 -1 0
-0.0864116450 -0.0017483300 -1 0
-0.0870963160 -0.0025637430 -1 0
-0.0881055760 -0.0021293880 -1 0
-0.0893291610 -0.0004846380 -1 0
-0.0906328800 0.0022206480 -1 0
-0.0918729620 0.0057416970 -1 0
-0.0929134850 0.0097607410 -1 0
-0.0936443990 0.0139142720 -1 0
-0.0939970910 0.0178246320 -1 0
-0.0939548780 0.0211338630 -1 0
-0.0935565440 0.0235367500 -1 0
-0.0928917620 0.0248094910 -1 0
-0.0920889320 0.0248305240 -1 0
-0.0912984840 0.0235907920 -1 0
-0.0906753770 0.0211923340 -1 0
-0.0903630250 0.0178360670 -1 0
-0.0904799350 0.0138010310 -1 0
-0.0911106610 0.0094170960 -1 0
-0.0923017740 0.0050326460 -1 0
-0.0940618330 0.0009797130 -1 0
-0.0963632500 -0.0024592950 -1 0
-0.0991441860 -0.0050788300 -1 0
-0.1023110030 -0.0067692200 -1 0
-0.1057439320 -0.0075277970 -1 0
-0.1093068170 -0.0074619510 -1 0
-0.1128587090 -0.0067823550 -1 0
-0.1162652920 -0.0057852600 -1 0
-0.1194099830 -0.0048240250 -1 0
-0.1222042190 -0.0042718690 -1 0
-0.1245947150 -0.0044803760 -1 0
-0.1265659790 -0.0057389570 -1 0
-0.1281391750 -0.0082396850 -1 0
-0.1293697330 -0.0120522660 -1 0
-0.1303446890 -0.0171128320 -1 0
-0.1311787590 -0.0232277410 -1 0
-0.1320070450 -0.0300920390 -1 -1
-0.1329729050 -0.0373206490 -1 -1
-0.1342117200 -0.0444888250 -1 -1
-0.1358336170 -0.0511778400 -1 -1
-0.1379086790 -0.0570196870 -1 -1
-0.1404571540 -0.0617327320 -1 -1
-0.1434458750 -0.0651439350 -1 -1
-0.1467912230 -0.0671992000 -1 -1
-0.1503684020 -0.0679645300 -1 -1
-0.1540259840 -0.0676180990 -1 -1
-0.1576032840 -0.0664327520 -1 -1
-0.1609476450 -0.0647497740 -1 -1
-0.1639296940 -0.0629460240 -1 -1
-0.1664553860 -0.0613982920 -1 -1
-0.1684737170 -0.0604498170 -1 -1
-0.1699796200 -0.0603812430 -1 -1
-0.1710123020 -0.0613850690 -1 -1
-0.1716494570 -0.0635438930 -1 -1
-0.1719978550 -0.0668169200 -1 -1
-0.1721815090 -0.0710399460 -1 -1
-0.1723292460 -0.0759401230 -1 -1
-0.1725630910 -0.0811635430 -1 -1
-0.1729876040 -0.0863124220 -1 -1
-0.1736801290 -0.0909867300 -1 -1
-0.1746826780 -0.0948244500 -1 -1
-0.1759964230 -0.0975362140 -1 -1
-0.1775799240 -0.0989318070 -1 -1
-0.1793523830 -0.0989375410 -1 -1
-0.1812021620 -0.0976040120 -1 -1
-0.1829990800 -0.0951029920 -1 -1
-0.1846085070 -0.0917126140 -1 -1
-0.1859058090 -0.0877920720 -1 -1
-0.1867898510 -0.0837483100 -1 -1
-0.1871937680 -0.0799972360 -1 -1
-0.1870915600 -0.0769228840 -1 -1
-0.1865004380 -0.0748391000 -1 -1
-0.1854795550 -0.0739578950 -1 -1
-0.1841255140 -0.0743679580 -1 -1
-0.1825648770 -0.0760267360 -1 -1
-0.1809439200 -0.0787671990 -1 -1
-0.1794155100 -0.0823157250 -1 -1
-0.1781234290 -0.0863179710 -1 -1
-0.1771862160 -0.0903735630 -1 -1
-0.1766839050 -0.0940773760 -1 -1
-0.1766504060 -0.0970602640 -1 -1
-0.1770722980 -0.0990243540 -1 -1
-0.1778924910 -0.0997706590 -1 -1
-0.1790168970 -0.0992174370 -1 -1
-0.1803240190 -0.0974092040 -1 -1
-0.1816776750 -0.0945146850 -1 -1
-0.1829411350 -0.0908100360 -1 -1
-0.1839903260 -0.0866486620 -1 -1
-0.1847253330 -0.0824242940 -1 -1
-0.1850800340 -0.0785325670 -1 -1
-0.1850286660 -0.0753338900 -1 -1
-0.1845876400 -0.0731203130 -1 -1
-0.1838124870 -0.0720883280 -1 -1
-0.1827918780 -0.0723199410 -1 -1
-0.1816404760 -0.0737755450 -1 -1
-0.1804902120 -0.0762996150 -1 -1
-0.1794788230 -0.0796366580 -1 -1
-0.1787359080 -0.0834550590 -1 -1
-0.1783687170 -0.0873777770 -1 -1
-0.1784504470 -0.0910176940 -1 -1
-0.1790128400 -0.0940141460 -1 -1
-0.1800434610 -0.0960678940 -1 -1
-0.1814872480 -0.0969721120 -1 -1
-0.1832516800 -0.0966356890 -1 -1
-0.1852153080 -0.0950947860 -1 -1
-0.1872389330 -0.0925101170 -1 -1
-0.1891775990 -0.0891498170 -1 -1
-0.1908918010 -0.0853602820 -1 -1
-0.1922576160 -0.0815290850 -1 -1
-0.1931759400 -0.0780450230 -1 -1
-0.1935809010 -0.0752604950 -1 -1
-0.1934469860 -0.0734593630 -1 -1
-0.1927937180 -0.0728311760 -1 -1
-0.1916865080 -0.0734529140 -1 -1
-0.1902328560 -0.0752805480 -1 -1
-0.1885736740 -0.0781517850 -1 -1
-0.1868700510 -0.0817997350 -1 -1
-0.1852864760 -0.0858767210 -1 -1
-0.1839725980 -0.0899874220 -1 -1
-0.1830465110 -0.0937287510 -1 -1
-0.1825825380 -0.0967313530 -1 -1
-0.1826052310 -0.0986972560 -1 -1
-0.1830895180 -0.0994301140 -1 -1
-0.1839655290 -0.0988556890 -1 -1
-0.1851264280 -0.0970303520 -1 -1
-0.1864379880 -0.0941362090 -1 -1
-0.1877491950 -0.0904630870 -1 -1
-0.1889041740 -0.0863792370 -1 -1
-0.1897566070 -0.0822941020 -1 -1
-0.1901870710 -0.0786176200 -1 -1
-0.1901207520 -0.0757205960 -1 -1
-0.1895399810 -0.0739001440 -1 -1
-0.1884869800 -0.0733529250 -1 -1
-0.1870567770 -0.0741573210 -1 -1
-0.1853836440 -0.0762652870 -1 -1
-0.1836239320 -0.0795052470 -1 -1
-0.1819372340 -0.0835972680 -1 -1
-0.1804686050 -0.0881797440 -1 -1
-0.1793349400 -0.0928444460 -1 -1
-0.1786168790 -0.0971761560 -1 -1
-0.1783551910 -0.1007930550 -1 -1
-0.1785495850 -0.1033831660 -1 -1
-0.1791590350 -0.1047329710 -1 -1
-0.1801045810 -0.1047467760 -1 -1
-0.1812757870 -0.1034555760 -1 -1
-0.1825405720 -0.1010135260 -1 -1
-0.1837572410 -0.0976813750 -1 -1
-0.1847874190 -0.0937985620 -1 -1
-0.1855089250 -0.0897476760 -1 -1
-0.1858280230 -0.0859160900 -1 -1
-0.1856902140 -0.0826598680 -1 -1
-0.1850879270 -0.0802734340 -1 -1
-0.1840631890 -0.0789655310 -1 -1
-0.1827039050 -0.0788409910 -1 -1
-0.1811337950 -0.0798901250 -1 -1
-0.1794981190 -0.0819890150 -1 -1
-0.1779481650 -0.0849114210 -1 -1
-0.1766260670 -0.0883499680 -1 -1
-0.1756507190 -0.0919447010 -1 -1
-0.1751062330 -0.0953179510 -1 -1
-0.1750344050 -0.0981125840 -1 -1
-0.1754316250 -0.1000287930 -1 -1
-0.1762499540 -0.1008550930 -1 -1
-0.1774022210 -0.1004907960 -1 -1
-0.1787707110 -0.0989567340 -1 -1
-0.1802181120 -0.0963892350 -1 -1
-0.1815989070 -0.0930173970 -1 -1
-0.1827709090 -0.0891343060 -1 -1
-0.1836082410 -0.0850735070 -1 -1
-0.1840154270 -0.0811892440 -1 -1
-0.1839388440 -0.0778312120 -1 -1
-0.1833723660 -0.0753111770 -1 -1
-0.1823574690 -0.0738669010 -1 -1
-0.1809785010 -0.0736299720 -1 -1
-0.1793529710 -0.0746057380 -1 -1
-0.1776184130 -0.0766726970 -1 -1
-0.1759188390 -0.0795988610 -1 -1
-0.1743920560 -0.0830661140 -1 -1
-0.1731574000 -0.0866997020 -1 -1
-0.1723039540 -0.0901057940 -1 -1
-0.1718812710 -0.0929152280 -1 -1
-0.1718948680 -0.0948247200 -1 -1
-0.1723068660 -0.0956278070 -1 -1
-0.1730409350 -0.0952334580 -1 -1
-0.1739913590 -0.0936735770 -1 -1
-0.1750353980 -0.0911002240 -1 -1
-0.1760460270 -0.0877718200 -1 -1
-0.1769026180 -0.0840273580 -1 -1
-0.1774998710 -0.0802507690 -1 -1
-0.1777562950 -0.0768313930 -1 -1
-0.1776221010 -0.0741260510 -1 -1
-0.1770853210 -0.0724249510 -1 -1
-0.1761750500 -0.0719232740 -1 -1
-0.1749606510 -0.0727015350 -1 -1
-0.1735461530 -0.0747173180 -1 -1
-0.1720601020 -0.0778088640 -1 -1
-0.1706422260 -0.0817092960 -1 -1
-0.1694287320 -0.0860703790 -1 -1
-0.1685379140 -0.0904951920 -1 -1
-0.1680582520 -0.0945772180 -1 -1
-0.1680409400 -0.0979408470 -1 -1
-0.1684967760 -0.1002783970 -1 -1
-0.1693961330 -0.1013805980 -1 -1
-0.1706715210 -0.1011580570 -1 -1
-0.1722229650 -0.0996511240 -1 -1
-0.1739260280 -0.0970267890 -1 -1
-0.1756418370 -0.0935630060 -1 -1
-0.1772285260 -0.0896215310 -1 -1
-0.1785540450 -0.0856109240 -1 -1
-0.1795100190 -0.0819438970 -1 -1
-0.1800244760 -0.0789953720 -1 -1
-0.1800698240 -0.0770661720 -1 -1
-0.1796643220 -0.0763544090 -1 -1
-0.1788687320 -0.0769360840 -1 -1
-0.1777803640 -0.0787572990 -1 -1
-0.1765246900 -0.0816401360 -1 -1
-0.1752440730 -0.0853015250 -1 -1
-0.1740841170 -0.0893814230 -1 -1
-0.1731789880 -0.0934767790 -1 -1
-0.1726374110 -0.0971800170 -1 -1
-0.1725306380 -0.1001202450 -1 -1
-0.1728837970 -0.1020024810 -1 -1
-0.1736727840 -0.1026387130 -1 -1
-0.1748280450 -0.1019662950 -1 -1
-0.1762441630 -0.1000521020 -1 -1
-0.1777926800 -0.0970834120 -1 -1
-0.1793353400 -0.0933479340 -1 -1
-0.1807363420 -0.0892049990 -1 -1
-0.1818741460 -0.0850494560 -1 -1
-0.1826529190 -0.0812719760 -1 -1
-0.1830118290 -0.0782215160 -1 -1
-0.1829303880 -0.0761739380 -1 -1
-0.1824294840 -0.0753077900 -1 -1
-0.1815684870 -0.0756885950 -1 -1
-0.1804390910 -0.0772643690 -1 -1
-0.1791561880 -0.0798726130 -1 -1
-0.1778458730 -0.0832555380 -1 -1
-0.1766314880 -0.0870819190 -1 -1
-0.1756200360 -0.0909773960 -1 -1
-0.1748915060 -0.0945623130 -1 -1
-0.1744924480 -0.0974909900 -1 -1
-0.1744336220 -0.0994858810 -1 -1
-0.1746908040 -0.1003631290 -1 -1
-0.1752080300 -0.1000483300 -1 -1
-0.1759029070 -0.0985825090 -1 -1
-0.1766736680 -0.0961179980 -1 -1
-0.1774077230 -0.0929030420 -1 -1
-0.1779914180 -0.0892554640 -1 -1
-0.1783207360 -0.0855294040 -1 -1
-0.1783125840 -0.0820805160 -1 -1
-0.1779155300 -0.0792334350 -1 -1
-0.1771180190 -0.0772539200 -1 -1
-0.1759519350 -0.0763264690 -1 -1
-0.1744903920 -0.0765369110 -1 -1
-0.1728402620 -0.0778611180 -1 -1
-0.1711307100 -0.0801631090 -1 -1
-0.1694990140 -0.0832047990 -1 -1
-0.1680754700 -0.0866672280 -1 -1
-0.1669696570 -0.0901814950 -1 -1
-0.1662600780 -0.0933661490 -1 -1
-0.1659887130 -0.0958666720 -1 -1
-0.1661607110 -0.0973924560 -1 -1
-0.1667470060 -0.0977467540 -1 -1
-0.1676869710 -0.0968462700 -1 -1
-0.1688908230 -0.0947297380 -1 -1
-0.1702442380 -0.0915563280 -1 -1
-0.1716173180 -0.0875936210 -1 -1
-0.1728778180 -0.0831943640 -1 -1
-0.1739063200 -0.0787629120 -1 -1
-0.1746098380 -0.0747143670 -1 -1
-0.1749309310 -0.0714318010 -1 -1
-0.1748520100 -0.0692276550 -1 -1
-0.1743958560 -0.0683134390 -1 -1
-0.1736223910 -0.0687800100 -1 -1
-0.1726213070 -0.0705900070 -1 -1
-0.1715018660 -0.0735830760 -1 -1
-0.1703821630 -0.0774923770 -1 -1
-0.1693790040 -0.0819694940 -1 -1
-0.1685981150 -0.0866160540 -1 -1
-0.1681242210 -0.0910213010 -1 -1
-0.1680113260 -0.0948021100 -1 -1
-0.1682748780 -0.0976395360 -1 -1
-0.1688881090 -0.0993079450 -1 -1
-0.1697839730 -0.0996955100 -1 -1
-0.1708626440 -0.0988143970 -1 -1
-0.1720032930 -0.0967983820 -1 -1
-0.1730779840 -0.0938876910 -1 -1
-0.1739653480 -0.0904032600 -1 -1
-0.1745624360 -0.0867134580 -1 -1
-0.1747941310 -0.0831969430 -1 -1
-0.1746201260 -0.0802056440 -1 -1
-0.1740391950 -0.0780304280 -1 -1
-0.1730894250 -0.0768701960 -1 -1
-0.1718431510 -0.0768071200 -1 -1
-0.1703974590 -0.0777954860 -1 -1
-0.1688629700 -0.0796685330 -1 -1
-0.1673533630 -0.0821593600 -1 -1
-0.1659770380 -0.0849319290 -1 -1
-0.1648307110 -0.0876197290 -1 -1
-0.1639929980 -0.0898663860 -1 -1
-0.1635170720 -0.0913637480 -1 -1
-0.1634242650 -0.0918838860 -1 -1
-0.1637006760 -0.0912990680 -1 -1
-0.1642973390 -0.0895889490 -1 -1
-0.1651343400 -0.0868404350 -1 -1
-0.1661093570 -0.0832405570 -1 -1
-0.1671100660 -0.0790582870 -1 -1
-0.1680282560 -0.0746184480 -1 -1
-0.1687726280 -0.0702747400 -1 -1
-0.1692775260 -0.0663816640 -1 -1
-0.1695067390 -0.0632636330 -1 -1
-0.1694542230 -0.0611850980 -1 -1
-0.1691443050 -0.0603251480 -1 -1
-0.1686316650 -0.0607581850 -1 -1
-0.1679988770 -0.0624438300 -1 -1
-0.1673497230 -0.0652285380 -1 -1
-0.1667986150 -0.0688582330 -1 -1
-0.1664570860 -0.0729998440 -1 -1
-0.1664187470 -0.0772704100 -1 -1
-0.1667458830 -0.0812724050 -1 -1
-0.1674614450 -0.0846324180 -1 -1
-0.1685478200 -0.0870390410 -1 -1
-0.1699505810 -0.0882752570 -1 -1
-0.1715840240 -0.0882410570 -1 -1
-0.1733368080 -0.0869638330 -1 -1
-0.1750786270 -0.0845955600 -1 -1
-0.1766694740 -0.0813965000 -1 -1
-0.1779722320 -0.0777065560 -1 -1
-0.1788679930 -0.0739081240 -1 -1
-0.1792711540 -0.0703867820 -1 -1
-0.1791402390 -0.0674954660 -1 -1
-0.1784824390 -0.0655236670 -1 -1
-0.1773527160 -0.0646709900 -1 -1
-0.1758486960 -0.0650270850 -1 -1
-0.1741016320 -0.0665620990 -1 -1
-0.1722635590 -0.0691295800 -1 -1
-0.1704919380 -0.0724803570 -1 -1
-0.1689342320 -0.0762853580 -1 -1
-0.1677149100 -0.0801659310 -1 -1
-0.1669261830 -0.0837295750 -1 -1
-0.1666226040 -0.0866077150 -1 -1
-0.1668185640 -0.0884920230 -1 -1
-0.1674870700 -0.0891663350 -1 -1
-0.1685597250 -0.0885312170 -1 -1
-0.1699303020 -0.0866180080 -1 -1
-0.1714638190 -0.0835898500 -1 -1
-0.1730104530 -0.0797282070 -1 -1
-0.1744222340 -0.0754044100 -1 -1
-0.1755697140 -0.0710387850 -1 -1
-0.1763548070 -0.0670541360 -1 -1
-0.1767173380 -0.0638311010 -1 -1
-0.1766368780 -0.0616699680 -1 -1
-0.1761330230 -0.0607614590 -1 -1
-0.1752647160 -0.0611685590 -1 -1
-0.1741266110 -0.0628208300 -1 -1
-0.1728410200 -0.0655219620 -1 -1
-0.1715462540 -0.0689702500 -1 -1
-0.1703831530 -0.0727899130 -1 -1
-0.1694807710 -0.0765696350 -1 -1
-0.1689417070 -0.0799041870 -1 -1
-0.1688285260 -0.0824348200 -1 -1
-0.1691542680 -0.0838840900 -1 -1
-0.1698800640 -0.0840813670 -1 -1
-0.1709205180 -0.0829766330 -1 -1
-0.1721546370 -0.0806419930 -1 -1
-0.1734393650 -0.0772619770 -1 -1
-0.1746242380 -0.0731145510 -1 -1
-0.1755667210 -0.0685447470 -1 -1
-0.1761472270 -0.0639332120 -1 -1
-0.1762818100 -0.0596623540 -1 -1
-0.1759307370 -0.0560824270 -1 -1
-0.1751022800 -0.0534793130 -1 -1
-0.1738516160 -0.0520454440 -1 -1
-0.1722747280 -0.0518567350 -1 -1
-0.1704985300 -0.0528619870 -1 -1
-0.1686697300 -0.0548891800 -1 -1
-0.1669433010 -0.0576656370 -1 -1
-0.1654692660 -0.0608475710 -1 -1
-0.1643774110 -0.0640563800 -1 -1
-0.1637623830 -0.0669159870 -1 -1
-0.1636725080 -0.0690860530 -1 -1
-0.1641044050 -0.0702919520 -1 -1
-0.1650042610 -0.0703526500 -1 -1
-0.1662755450 -0.0692024700 -1 -1
-0.1677910740 -0.0669008750 -1 -1
-0.1694061500 -0.0636261190 -1 -1
-0.1709707750 -0.0596531880 -1 -1
-0.1723418070 -0.0553231920 -1 -1
-0.1733958620 -0.0510121390 -1 -1
-0.1740406770 -0.0471006840 -1 -1
-0.1742221870 -0.0439428010 -1 -1
-0.1739273070 -0.0418332760 -1 -1
-0.1731835730 -0.0409767520 -1 -1
-0.1720562320 -0.0414634920 -1 -1
-0.1706433590 -0.0432577150 -1 -1
-0.1690689910 -0.0462008930 -1 -1
-0.1674733460 -0.0500276940 -1 -1
-0.1660000880 -0.0543912530 -1 -1
-0.1647821540 -0.0588958760 -1 -1
-0.1639282510 -0.0631346000 -1 -1
-0.1635119310 -0.0667273120 -1 -1
-0.1635642140 -0.0693559020 -1 -1
-0.1640698240 -0.0707943290 -1 -1
-0.1649674930 -0.0709310720 -1 -1
-0.1661555290 -0.0697809240 -1 -1
-0.1675025370 -0.0674843470 -1 -1
-0.1688611670 -0.0642944900 -1 -1
-0.1700823320 -0.0605527890 -1 -1
-0.1710287380 -0.0566550770 -1 -1
-0.1715877960 -0.0530117140 -1 -1
-0.1716838970 -0.0500064350 -1 -1
-0.1712888200 -0.0479579650 -1 -1
-0.1704274940 -0.0470872490 -1 -1
-0.1691761090 -0.0474938180 -1 -1
-0.1676517020 -0.0491451850 -1 -1
-0.1659957820 -0.0518810960 -1 -1
-0.1643561120 -0.0554313070 -1 -1
-0.1628695350 -0.0594437930 -1 -1
-0.1616475670 -0.0635202290 -1 -1
-0.1607668430 -0.0672551380 -1 -1
-0.1602658270 -0.0702744810 -1 -1
-0.1601466400 -0.0722708000 -1 -1
-0.1603790700 -0.0730335310 -1 -1
-0.1609045860 -0.0724713180 -1 -1
-0.1616405510 -0.0706221160 -1 -1
-0.1624859320 -0.0676500400 -1 -1
-0.1633291810 -0.0638300520 -1 -1
-0.1640581230 -0.0595208570 -1 -1
-0.1645712380 -0.0551278620 -1 -1
-0.1647893710 -0.0510610390 -1 -1
-0.1646666550 -0.0476930360 -1 -1
-0.1641984670 -0.0453222120 -1 -1
-0.1634234350 -0.0441447170 -1 -1
-0.1624182460 -0.0442383470 -1 -1
-0.1612870450 -0.0455586880 -1 -1
-0.1601485460 -0.0479460810 -1 -1
-0.1591236150 -0.0511411680 -1 -1
-0.1583249580 -0.0548078440 -1 -1
-0.1578486880 -0.0585636260 -1 -1
-0.1577661400 -0.0620163950 -1 -1
-0.1581150560 -0.0648038410 -1 -1
-0.1588914140 -0.0666309580 -1 -1
-0.1600452120 -0.0673014830 -1 -1
-0.1614828020 -0.0667386860 -1 -1
-0.1630753750 -0.0649914230 -1 -1
-0.1646713470 -0.0622253640 -1 -1
-0.1661115330 -0.0587035510 -1 -1
-0.1672471980 -0.0547603190 -1 -1
-0.1679592870 -0.0507701430 -1 -1
-0.1681744020 -0.0471125420 -1 -1
-0.1678732890 -0.0441357120 -1 -1
-0.1670904700 -0.0421228960 -1 -1
-0.1659065020 -0.0412654190 -1 -1
-0.1644357550 -0.0416455200 -1 -1
-0.1628124810 -0.0432299370 -1 -1
-0.1611769780 -0.0458721960 -1 -1
-0.1596630740 -0.0493218280 -1 -1
-0.1583884190 -0.0532422390 -1 -1
-0.1574482040 -0.0572402380 -1 -1
-0.1569106590 -0.0609064920 -1 -1
-0.1568118630 -0.0638608840 -1 -1
-0.1571497820 -0.0657946400 -1 -1
-0.1578805820 -0.0665025650 -1 -1
-0.1589204530 -0.0659022070 -1 -1
-0.1601528120 -0.0640406230 -1 -1
-0.1614387280 -0.0610902900 -1 -1
-0.1626297720 -0.0573330090 -1 -1
-0.1635835180 -0.0531307540 -1 -1
-0.1641801070 -0.0488867800 -1 -1
-0.1643362100 -0.0450033400 -1 -1
-0.1640129340 -0.0418424350 -1 -1
-0.1632169050 -0.0396936010 -1 -1
-0.1619969970 -0.0387495860 -1 -1
-0.1604397460 -0.0390899080 -1 -1
-0.1586639680 -0.0406732280 -1 -1
-0.1568128070 -0.0433394200 -1 -1
-0.1550421810 -0.0468219350 -1 -1
-0.1535065780 -0.0507712270 -1 -1
-0.1523438570 -0.0547890800 -1 -1
-0.1516606190 -0.0584707170 -1 -1
-0.1515197560 -0.0614484040 -1 -1
-0.1519317580 -0.0634294640 -1 -1
-0.1528514120 -0.0642235320 -1 -1
-0.1541812850 -0.0637570230 -1 -1
-0.1557817220 -0.0620759460 -1 -1
-0.1574855250 -0.0593392630 -1 -1
-0.1591153460 -0.0558034630 -1 -1
-0.1605018950 -0.0517982560 -1 -1
-0.1615007120 -0.0476942730 -1 -1
-0.1620051820 -0.0438648960 -1 -1
-0.1619543210 -0.0406473750 -1 -1
-0.1613353540 -0.0383114150 -1 -1
-0.1601825190 -0.0370393910 -1 -1
-0.1585736800 -0.0369154130 -1 -1
-0.1566253920 -0.0379202860 -1 -1
-0.1544857090 -0.0399323100 -1 -1
-0.1523234680 -0.0427344290 -1 -1
-0.1503131590 -0.0460288440 -1 -1
-0.1486158680 -0.0494600000 -1 -1
-0.1473595220 -0.0526458390 -1 -1
-0.1466241540 -0.0552169150 -1 -1
-0.1464363190 -0.0568595440 -1 -1
-0.1467715850 -0.0573542170 -1 -1
-0.1475610830 -0.0566014500 -1 -1
-0.1486999110 -0.0546326980 -1 -1
-0.1500576730 -0.0516080140 -1 -1
-0.1514908610 -0.0478023830 -1 -1
-0.1528555120 -0.0435799510 -1 -1
-0.1540192200 -0.0393553720 -1 -1
-0.1548725750 -0.0355475810 -1 -1
-0.1553394280 -0.0325353700 -1 -1
-0.1553843180 -0.0306202700 -1 -1
-0.1550156660 -0.0299977950 -1 0
-0.1542847530 -0.0307387710 -1 -1
-0.1532811460 -0.0327829710 -1 -1
-0.1521249360 -0.0359450210 -1 -1
-0.1509560980 -0.0399316170 -1 -1
-0.1499211680 -0.0443693660 -1 -1
-0.1491574760 -0.0488412010 -1 -1
-0.1487761270 -0.0529269580 -1 -1
-0.1488464210 -0.0562433140 -1 -1
-0.1493853010 -0.0584801050 -1 -1
-0.1503548210 -0.0594308160 -1 -1
-0.1516681510 -0.0590134940 -1 -1
-0.1532016210 -0.0572780390 -1 -1
-0.1548097040 -0.0543993800 -1 -1
-0.1563411330 -0.0506590260 -1 -1
-0.1576552400 -0.0464175260 -1 -1
-0.1586366970 -0.0420803900 -1 -1
-0.1592059340 -0.0380602430 -1 -1
-0.1593236730 -0.0347375140 -1 -1
-0.1589905270 -0.0324227130 -1 -1
-0.1582436040 -0.0313250270 -1 -1
-0.1571517120 -0.0315315210 -1 -1
-0.1558103040 -0.0329990450 -1 -1
-0.1543362720 -0.0355590750 -1 -1
-0.1528611090 -0.0389346760 -1 -1
-0.1515208530 -0.0427684390 -1 -1
-0.1504429130 -0.0466594900 -1 -1
-0.1497318890 -0.0502052720 -1 -1
-0.1494576020 -0.0530415510 -1 -1
-0.1496482600 -0.0548759270 -1 -1
-0.1502895230 -0.0555138320 -1 -1
-0.1513278990 -0.0548766570 -1 -1
-0.1526763260 -0.0530101540 -1 -1
-0.1542212940 -0.0500813260 -1 -1
-0.1558320440 -0.0463631620 -1 -1
-0.1573720390 -0.0422077700 -1 -1
-0.1587118160 -0.0380106040 -1 -1
-0.1597416020 -0.0341709130 -1 -1
-0.1603823910 -0.0310534410 -1 -1
-0.1605946960 -0.0289539300 -1 0
-0.1603834050 -0.0280700450 -1 0
-0.1597970490 -0.0284809620 -1 0
-0.1589218500 -0.0301394870 -1 -1
-0.1578723160 -0.0328776340 -1 -1
-0.1567794610 -0.0364238270 -1 -1
-0.1557773450 -0.0404297460 -1 -1
-0.1549892650 -0.0445047730 -1 -1
-0.1545151390 -0.0482542910 -1 -1
-0.1544214890 -0.0513172460 -1 -1
-0.1547349400 -0.0533998020 -1 -1
-0.1554392820 -0.0543036180 -1 -1
-0.1564761060 -0.0539468950 -1 -1
-0.1577500260 -0.0523747920 -1 -1
-0.1591392910 -0.0497559250 -1 -1
-0.1605102710 -0.0463643150 -1 -1
-0.1617321720 -0.0425496430 -1 -1
-0.1626892860 -0.0387010330 -1 -1
-0.1632909860 -0.0352090250 -1 -1
-0.1634806730 -0.0324284300 -1 -1
-0.1632425950 -0.0306444620 -1 -1
-0.1626038000 -0.0300446010 -1 -1
-0.1616305360 -0.0306980470 -1 -1
-0.1604212720 -0.0325459700 -1 -1
-0.1590977870 -0.0354054110 -1 -1
-0.1577935330 -0.0389862690 -1 -1
-0.1566394830 -0.0429204090 -1 -1
-0.1557498520 -0.0468004790 -1 -1
-0.1552100570 -0.0502218310 -1 -1
-0.1550683420 -0.0528223900 -1 -1
-0.1553317660 -0.0543173920 -1 -1
-0.1559659990 -0.0545239290 -1 -1
-0.1568981270 -0.0533744730 -1 -1
-0.1580226170 -0.0509249140 -1 -1
-0.1592110870 -0.0473583620 -1 -1
-0.1603256080 -0.0429772960 -1 -1
-0.1612340020 -0.0381772230 -1 -1
-0.1618247470 -0.0334042610 -1 -1
-0.1620189800 -0.0291062590 -1 0
-0.1617781030 -0.0256865620 -1 0
-0.1611072640 -0.0234648230 -1 0
-0.1600551070 -0.0226463270 -1 0
-0.1587087150 -0.0233017260 -1 0
-0.1571831630 -0.0253599160 -1 0
-0.1556077830 -0.0286158480 -1 0
-0.1541125600 -0.0327524850 -1 -1
-0.1528169000 -0.0373741270 -1 -1
-0.1518210010 -0.0420474220 -1 -1
-0.1511986490 -0.0463448270 -1 -1
-0.1509905880 -0.0498845320 -1 -1
-0.1511992720 -0.0523632710 -1 -1
-0.1517866270 -0.0535814470 -1 -1
-0.1526761830 -0.0534599270 -1 -1
-0.1537604510 -0.0520463930 -1 -1
-0.1549126140 -0.0495094410 -1 -1
-0.1559998760 -0.0461204030 -1 -1
-0.1568961250 -0.0422245530 -1 -1
-0.1574926940 -0.0382054420 -1 -1
-0.1577065020 -0.0344480100 -1 -1
-0.1574859630 -0.0313051580 -1 -1
-0.1568158880 -0.0290687130 -1 0
-0.1557215630 -0.0279438230 -1 0
-0.1542703030 -0.0280280190 -1 0
-0.1525681160 -0.0292991540 -1 0
-0.1507506970 -0.0316160180 -1 -1
-0.1489702230 -0.0347319340 -1 -1
-0.1473797630 -0.0383188150 -1 -1
-0.1461164870 -0.0419990280 -1 -1
-0.1452857780 -0.0453830970 -1 -1
-0.1449492220 -0.0481101210 -1 -1
-0.1451184100 -0.0498857210 -1 -1
-0.1457547710 -0.0505121760 -1 -1
-0.1467745410 -0.0499074550 -1 -1
-0.1480573680 -0.0481119150 -1 -1
-0.1494573820 -0.0452824600 -1 -1
-0.1508166170 -0.0416751300 -1 -1
-0.1519804430 -0.0376186900 -1 -1
-0.1528135930 -0.0334822140 -1 -1
-0.1532150240 -0.0296394890 -1 0
-0.1531299480 -0.0264338750 -1 0
-0.1525569030 -0.0241468300 -1 0
-0.1515479450 -0.0229720940 -1 0
-0.1502013160 -0.0229978150 -1 0
-0.1486479450 -0.0241995630 -1 0
-0.1470350700 -0.0264452680 -1 0
-0.1455103480 -0.0295095230 -1 0
-0.1442079060 -0.0330936190 -1 -1
-0.1432367710 -0.0368500770 -1 -1
-0.1426727400 -0.0404119280 -1 -1
-0.1425542120 -0.0434257790 -1 -1
-0.1428807600 -0.0455858990 -1 -1
-0.1436136670 -0.0466652750 -1 -1
-0.1446791640 -0.0465392560 -1 -1
-0.1459749810 -0.0451987210 -1 -1
-0.1473794930 -0.0427519290 -1 -1
-0.1487622270 -0.0394157480 -1 -1
-0.1499950380 -0.0354973390 -1 -1
-0.1509635390 -0.0313670360 -1 -1
-0.1515775690 -0.0274236630 -1 0
-0.1517788690 -0.0240550340 -1 0
-0.1515454590 -0.0215973420 -1 0
-0.1508939270 -0.0202977360 -1 0
-0.1498804310 -0.0202854420 -1 0
-0.1485992510 -0.0215564340 -1 0
-0.1471767070 -0.0239733890 -1 0
-0.1457592950 -0.0272797000 -1 0
-0.1444969900 -0.0311259920 -1 -1
-0.1435240390 -0.0351069120 -1 -1
-0.1429406690 -0.0388036450 -1 -1
-0.1428000930 -0.0418266650 -1 -1
-0.1431037870 -0.0438546150 -1 -1
-0.1438043290 -0.0446666670 -1 -1
-0.1448128980 -0.0441654310 -1 -1
-0.1460092320 -0.0423866950 -1 -1
-0.1472537030 -0.0394939570 -1 -1
-0.1484018630 -0.0357601910 -1 -1
-0.1493205800 -0.0315409020 -1 -1
-0.1499026970 -0.0272398010 -1 0
-0.1500773450 -0.0232681750 -1 0
-0.1498156360 -0.0200033480 -1 0
-0.1491329380 -0.0177533010 -1 0
-0.1480879580 -0.0167304870 -1 0
-0.1467776270 -0.0170337510 -1 0
-0.1453273730 -0.0186377220 -1 0
-0.1438780430 -0.0213923900 -1 0
-0.1425718210 -0.0250360500 -1 0
-0.1415393480 -0.0292211530 -1 0
-0.1408890150 -0.0335491270 -1 -1
-0.1406980040 -0.0376097900 -1 -1
-0.1410047880 -0.0410216120 -1 -1
-0.1418038380 -0.0434687100 -1 -1
-0.1430441240 -0.0447306170 -1 -1
-0.1446326750 -0.0447026260 -1 -1
-0.1464427020 -0.0434056600 -1 -1
-0.1483252980 -0.0409842320 -1 -1
-0.1501247080 -0.0376920040 -1 -1
-0.1516959800 -0.0338665380 -1 -1
-0.1529212860 -0.0298957830 -1 0
-0.1537214440 -0.0261799400 -1 0
-0.1540615410 -0.0230932470 -1 0
