-0.0102943200 0.0538508860 0 1
-0.0104382990 0.0529603960 0 1
-0.0107691180 0.0511240690 0 1
-0.0111627360 0.0485416910 0 1
-0.0114947950 0.0454845210 0 1
-0.0116640930 0.0422619580 0 1
-0.0116153180 0.0391877150 0 1
-0.0113519010 0.0365489820 0 1
-0.0109295150 0.0345773730 0 1
-0.0104280630 0.0334245950 0 1
-0.0099125400 0.0331497460 0 1
-0.0094040490 0.0337200070 0 1
-0.0088805160 0.0350187460 0 1
-0.0083079820 0.0368548240 0 1
-0.0076802610 0.0389754890 0 1
-0.0070377420 0.0410913640 0 1
-0.0064538570 0.0429136450 0 1
-0.0060043190 0.0441919710 0 1
-0.0057438820 0.0447443790 0 1
-0.0056997860 0.0444791790 0 1
-0.0058696880 0.0434069280 0 1
-0.0062161510 0.0416372190 0 1
-0.0066729300 0.0393602050 0 1
-0.0071740400 0.0368184160 0 1
-0.0076843310 0.0342745970 0 1
-0.0082025190 0.0319814280 0 1
-0.0087368990 0.0301586120 0 1
-0.0092799570 0.0289786170 0 0
-0.0098038310 0.0285585330 0 0
-0.0102744010 0.0289550580 0 0
-0.0106667080 0.0301599230 0 1
-0.0109702170 0.0320950080 0 1
-0.0111843680 0.0346104150 0 1
-0.0113113460 0.0374891780 0 1
-0.0113518030 0.0404599240 0 1
-0.0113010450 0.0432202120 0 1
-0.0111430060 0.0454729180 0 1
-0.0108520530 0.0469686600 0 1
-0.0104113170 0.0475402110 0 1
-0.0098353100 0.0471208840 0 1
-0.0091794650 0.0457479150 0 1
-0.0085381750 0.0435530610 0 1
-0.0080399420 0.0407435850 0 1
-0.0078338430 0.0375806810 0 1
-0.0080566260 0.0343591480 0 1
-0.0087860500 0.0313844320 0 1
-0.0100018470 0.0289447580 0 0
-0.0115746570 0.0272825230 0 0
-0.0132916470 0.0265688240 0 0
-0.0149137460 0.0268821060 0 0
-0.0162433200 0.0281937200 0 0
-0.0171732570 0.0303654580 0 1
-0.0177016080 0.0331617030 0 1
-0.0179169380 0.0362738290 0 1
-0.0179693910 0.0393521680 0 1
-0.0180390420 0.0420427870 0 1
-0.0183050510 0.0440274890 0 1
-0.0189161690 0.0450623480 0 1
-0.0199667750 0.0450068910 0 1
-0.0214845280 0.0438372140 0 1
-0.0234305770 0.0416420810 0 1
-0.0257081890 0.0386073570 0 1
-0.0281772850 0.0349950430 0 1
-0.0306744340 0.0311195350 -1 1
-0.0330342220 0.0273210600 -1 0
-0.0351060190 0.0239364780 -1 0
-0.0367659440 0.0212694110 -1 0
-0.0379281980 0.0195624570 -1 0
-0.0385561790 0.0189738130 -1 0
-0.0386690700 0.0195606370 -1 0
-0.0383401260 0.0212708380 -1 0
-0.0376850400 0.0239436950 -1 0
-0.0368407400 0.0273214750 -1 0
-0.0359396430 0.0310755400 -1 1
-0.0350879650 0.0348443130 -1 1
-0.0343535790 0.0382729410 -1 1
-0.0337629250 0.0410462600 -1 1
-0.0333044700 0.0429145000 -1 1
-0.0329373240 0.0437137670 -1 1
-0.0326047400 0.0433796920 -1 1
-0.0322515360 0.0419516930 -1 1
-0.0318411590 0.0395681130 -1 1
-0.0313656850 0.0364531890 -1 1
-0.0308449920 0.0328965030 -1 1
-0.0303161410 0.0292262990 -1 0
-0.0298172020 0.0257790920 0 0
-0.0293728240 0.0228693310 0 0
-0.0289886050 0.0207621000 0 0
-0.0286549080 0.0196489220 0 0
-0.0283550320 0.0196273110 0 0
-0.0280732900 0.0206881560 0 0
-0.0278011590 0.0227148320 0 0
-0.0275403120 0.0254946700 0 0
-0.0273016920 0.0287411460 0 0
-0.0271012890 0.0321241150 0 1
-0.0269545890 0.0353042680 0 1
-0.0268712580 0.0379669710 0 1
-0.0268510070 0.0398517520 0 1
-0.0268816850 0.0407765700 0 1
-0.0269407090 0.0406568670 0 1
-0.0269999520 0.0395175690 0 1
-0.0270324710 0.0374942640 0 1
-0.0270185070 0.0348205010 0 1
-0.0269485990 0.0318015520 0 1
-0.0268228100 0.0287790560 0 0
-0.0266464790 0.0260923360 0 0
-0.0264247260 0.0240412820 0 0
-0.0261591130 0.0228552300 0 0
-0.0258484800 0.0226716500 0 0
-0.0254924110 0.0235260020 0 0
-0.0250930590 0.0253525670 0 0
-0.0246538210 0.0279953680 0 0
-0.0241807780 0.0312259150 0 1
-0.0236923460 0.0347637740 0 1
-0.0232296370 0.0382984850 0 1
-0.0228529760 0.0415128860 0 1
-0.0226223040 0.0441081140 0 1
-0.0225752140 0.0458306090 0 1
-0.0227162810 0.0464991710 0 1
-0.0230194060 0.0460263790 0 1
-0.0234365910 0.0444289150 0 1
-0.0239066630 0.0418259680 0 1
-0.0243618790 0.0384279250 0 1
-0.0247344290 0.0345174330 0 1
-0.0249646900 0.0304250760 0 1
-0.0250095180 0.0265014270 0 0
-0.0248471230 0.0230854160 0 0
-0.0244770510 0.0204700590 0 0
-0.0239160830 0.0188704480 0 0
-0.0231924100 0.0183996180 0 0
-0.0223422910 0.0190554250 0 0
-0.0214121120 0.0207202310 0 0
-0.0204627920 0.0231738140 0 0
-0.0195697710 0.0261177630 0 0
-0.0188152980 0.0292082780 0 0
-0.0182752670 0.0320937060 0 1
-0.0180055840 0.0344526050 0 1
-0.0180325420 0.0360279900 0 1
-0.0183492780 0.0366533190 0 1
-0.0189177120 0.0362667370 0 1
-0.0196742720 0.0349130710 0 1
-0.0205387220 0.0327360880 0 1
-0.0214263380 0.0299636390 0 0
-0.0222618070 0.0268863280 0 0
-0.0229900120 0.0238287800 0 0
-0.0235785660 0.0211141420 0 0
-0.0240121210 0.0190261500 0 0
-0.0242856980 0.0177758010 0 0
-0.0244048650 0.0174789580 0 0
-0.0243914930 0.0181467820 0 0
-0.0242857030 0.0196872990 0 0
-0.0241383810 0.0219171170 0 0
-0.0239987670 0.0245831270 0 0
-0.0239046580 0.0273924670 0 0
-0.0238771550 0.0300471600 0 1
-0.0239184140 0.0322776310 0 1
-0.0240138270 0.0338660500 0 1
-0.0241415290 0.0346543990 0 1
-0.0242876060 0.0345451560 0 1
-0.0244603740 0.0335065970 0 1
-0.0246970460 0.0315825520 0 1
-0.0250595350 0.0288977970 0 0
-0.0256198550 0.0256551400 0 0
-0.0264399350 0.0221249470 0 0
-0.0275545080 0.0186259700 0 0
-0.0289644170 0.0154969550 0 0
-0.0306406200 0.0130632590 -1 0
-0.0325335930 0.0116040830 -1 0
-0.0345834210 0.0113243550 -1 0
-0.0367288510 0.0123338270 -1 0
-0.0389139640 0.0146326650 -1 0
-0.0410908810 0.0181021250 -1 0
-0.0432203540 0.0225049700 -1 0
-0.0452747440 0.0275043880 -1 0
-0.0472434180 0.0327038600 -1 1
-0.0491344440 0.0376977800 -1 1
-0.0509684020 0.0421169880 -1 1
-0.0527667900 0.0456609280 -1 1
-0.0545404890 0.0481181320 -1 1
-0.0562829590 0.0493787150 -1 1
-0.0579707950 0.0494398110 -1 1
-0.0595710540 0.0484028420 -1 1
-0.0610517380 0.0464620080 -1 1
-0.0623906360 0.0438856600 -1 1
-0.0635785960 0.0409925990 -1 1
-0.0646167410 0.0381230050 -1 1
-0.0655115640 0.0356036840 -1 1
-0.0662720480 0.0337123080 -1 1
-0.0669085750 0.0326483090 -1 1
-0.0674309740 0.0325143110 -1 1
-0.0678451890 0.0333075260 -1 1
-0.0681508740 0.0349212580 -1 1
-0.0683430890 0.0371578750 -1 1
-0.0684191150 0.0397518100 -1 1
-0.0683869950 0.0423986670 -1 1
-0.0682702660 0.0447875840 -1 1
-0.0681062790 0.0466342730 -1 1
-0.0679400450 0.0477110760 -1 1
-0.0678166410 0.0478713510 -1 1
-0.0677731490 0.0470661800 -1 1
-0.0678303690 0.0453504040 -1 1
-0.0679868930 0.0428755550 -1 1
-0.0682188130 0.0398706860 -1 1
-0.0684850510 0.0366156110 -1 1
-0.0687358900 0.0334108360 -1 1
-0.0689227860 0.0305472620 -1 1
-0.0690075120 0.0282800720 -1 0
-0.0689681480 0.0268096980 -1 0
-0.0688005150 0.0262681890 -1 0
-0.0685156370 0.0267084840 -1 0
-0.0681352980 0.0280967320 -1 0
-0.0676877370 0.0303094090 -1 1
-0.0672041080 0.0331379540 -1 1
-0.0667155640 0.0363037630 -1 1
-0.0662511930 0.0394835790 -1 1
-0.0658370250 0.0423419160 -1 1
-0.0654956000 0.0445666250 -1 1
-0.0652443820 0.0459037960 -1 1
-0.0650919560 0.0461877090 -1 1
-0.0650343110 0.0453615410 -1 1
-0.0650547320 0.0434847380 -1 1
-0.0651275980 0.0407245830 -1 1
-0.0652229100 0.0373342620 -1 1
-0.0653085000 0.0336239450 -1 1
-0.0653499620 0.0299297050 -1 0
-0.0653113750 0.0265810180 -1 0
-0.0651602270 0.0238687420 -1 0
-0.0648772310 0.0220186300 -1 0
-0.0644674170 0.0211733680 -1 0
-0.0639657250 0.0213822340 -1 0
-0.0634324750 0.0225980960 -1 0
-0.0629408450 0.0246837700 -1 0
-0.0625625220 0.0274280380 -1 0
-0.0623554430 0.0305677700 -1 1
-0.0623546220 0.0338124830 -1 1
-0.0625680540 0.0368698720 -1 1
-0.0629796630 0.0394706780 -1 1
-0.0635564090 0.0413904940 -1 1
-0.0642532990 0.0424681680 -1 1
-0.0650140480 0.0426207850 -1 1
-0.0657706410 0.0418524120 -1 1
-0.0664460400 0.0402543690 -1 1
-0.0669625890 0.0379981360 -1 1
-0.0672556580 0.0353218520 -1 1
-0.0672876580 0.0325093230 -1 1
-0.0670559570 0.0298613820 -1 0
-0.0665919530 0.0276623270 -1 0
-0.0659531990 0.0261459990 -1 0
-0.0652123250 0.0254671110 -1 0
-0.0644466670 0.0256842280 -1 0
-0.0637314830 0.0267575700 -1 0
-0.0631362590 0.0285587150 -1 0
-0.0627208980 0.0308876300 -1 1
-0.0625303560 0.0334943890 -1 1
-0.0625897580 0.0361033040 -1 1
-0.0629025970 0.0384372410 -1 1
-0.0634528340 0.0402407430 -1 1
-0.0642091660 0.0413014150 -1 1
-0.0651271270 0.0414703780 -1 1
-0.0661462750 0.0406816590 -1 1
-0.0671864720 0.0389659240 -1 1
-0.0681515030 0.0364523870 -1 1
-0.0689440770 0.0333568280 -1 1
-0.0694875930 0.0299579730 -1 0
-0.0697439130 0.0265669100 -1 0
-0.0697179720 0.0234952720 -1 0
-0.0694489130 0.0210263560 -1 0
-0.0689953610 0.0193901880 -1 0
-0.0684225280 0.0187428700 -1 0
-0.0677938980 0.0191517050 -1 0
-0.0671666010 0.0205880320 -1 0
-0.0665894120 0.0229293540 -1 0
-0.0661035680 0.0259705170 -1 0
-0.0657458000 0.0294412060 -1 0
-0.0655500580 0.0330277770 -1 1
-0.0655443560 0.0363995060 -1 1
-0.0657436380 0.0392374670 -1 1
-0.0661432310 0.0412635610 -1 1
-0.0667158720 0.0422699350 -1 1
-0.0674125750 0.0421463760 -1 1
-0.0681675620 0.0408973220 -1 1
-0.0689072450 0.0386425380 -1 1
-0.0695603830 0.0356037750 -1 1
-0.0700664590 0.0320826230 -1 1
-0.0703823070 0.0284316010 -1 0
-0.0704878820 0.0250187960 -1 0
-0.0703903140 0.0221887040 -1 0
-0.0701246630 0.0202248390 -1 0
-0.0697500280 0.0193197430 -1 0
-0.0693406380 0.0195554310 -1 0
-0.0689735030 0.0208948880 -1 0
-0.0687162170 0.0231853730 -1 0
-0.0686188840 0.0261750110 -1 0
-0.0687116890 0.0295422040 -1 0
-0.0690057730 0.0329338120 -1 1
-0.0694935890 0.0360056290 -1 1
-0.0701474930 0.0384584610 -1 1
-0.0709192170 0.0400653970 -1 1
-0.0717439410 0.0406895060 -1 1
-0.0725492580 0.0402919190 -1 1
-0.0732653700 0.0389296860 -1 1
-0.0738327740 0.0367451800 -1 1
-0.0742067230 0.0339503960 -1 1
-0.0743593920 0.0308070270 -1 1
-0.0742805290 0.0276018930 -1 0
-0.0739776530 0.0246198820 -1 0
-0.0734763120 0.0221189230 -1 0
-0.0728186470 0.0203099600 -1 0
-0.0720583920 0.0193414510 -1 0
-0.0712531210 0.0192868310 -1 0
-0.0704567050 0.0201353480 -1 0
-0.0697147730 0.0217887710 -1 0
-0.0690645710 0.0240670460 -1 0
-0.0685381670 0.0267247660 -1 0
-0.0681654840 0.0294774390 -1 0
-0.0679734700 0.0320338350 -1 1
-0.0679805110 0.0341298020 -1 1
-0.0681884300 0.0355587290 -1 1
-0.0685756290 0.0361933990 -1 1
-0.0690946210 0.0359949480 -1 1
-0.0696762540 0.0350088230 -1 1
-0.0702403090 0.0333523760 -1 1
-0.0707093260 0.0312001260 -1 1
-0.0710223500 0.0287697440 -1 0
-0.0711454410 0.0263072820 -1 0
-0.0710747520 0.0240688020 -1 0
-0.0708303470 0.0222978040 -1 0
-0.0704451380 0.0211993970 -1 0
-0.0699563010 0.0209135130 -1 0
-0.0694027470 0.0214929730 -1 0
-0.0688258780 0.0228926120 -1 0
-0.0682691750 0.0249711470 -1 0
-0.0677758750 0.0275043180 -1 0
-0.0673864950 0.0302081040 -1 1
-0.0671367020 0.0327708350 -1 1
-0.0670543840 0.0348907670 -1 1
-0.0671548700 0.0363119090 -1 1
-0.0674347370 0.0368510860 -1 1
-0.0678671840 0.0364147510 -1 1
-0.0684029950 0.0350075940 -1 1
-0.0689780630 0.0327329970 -1 1
-0.0695242070 0.0297833940 -1 0
-0.0699792260 0.0264206470 -1 0
-0.0702940370 0.0229497760 -1 0
-0.0704356440 0.0196898380 -1 0
-0.0703863100 0.0169439780 -1 0
-0.0701422630 0.0149702060 -1 0
-0.0697143860 0.0139565830 -1 0
-0.0691288610 0.0140050490 -1 0
-0.0684245670 0.0151255050 -1 0
-0.0676473950 0.0172386510 -1 0
-0.0668438750 0.0201848700 -1 0
-0.0660556880 0.0237375820 -1 0
-0.0653156790 0.0276210300 -1 0
-0.0646460650 0.0315314480 -1 1
-0.0640590790 0.0351597760 -1 1
-0.0635594740 0.0382159410 -1 1
-0.0631478530 0.0404542870 -1 1
-0.0628230150 0.0416968970 -1 1
-0.0625814960 0.0418517280 -1 1
-0.0624145650 0.0409246440 -1 1
-0.0623050140 0.0390241990 -1 1
-0.0622261740 0.0363557440 -1 1
-0.0621445750 0.0332009890 -1 1
-0.0620260240 0.0298833210 -1 0
-0.0618427600 0.0267259510 -1 0
-0.0615784450 0.0240140590 -1 0
-0.0612291170 0.0219691090 -1 0
-0.0608010800 0.0207358280 -1 0
-0.0603083830 0.0203781310 -1 0
-0.0597717270 0.0208815610 -1 0
-0.0592183710 0.0221597320 -1 0
-0.0586811420 0.0240603910 -1 0
-0.0581953410 0.0263710600 -1 0
-0.0577944080 0.0288310860 -1 0
-0.0575061860 0.0311545130 -1 1
-0.0573506790 0.0330603500 -1 1
-0.0573386050 0.0343056240 -1 1
-0.0574695080 0.0347185740 -1 1
-0.0577296320 0.0342259660 -1 1
-0.0580910910 0.0328654560 -1 1
-0.0585136460 0.0307790790 -1 1
-0.0589495730 0.0281921050 -1 0
-0.0593510550 0.0253839250 -1 0
-0.0596778530 0.0226561190 -1 0
-0.0599027290 0.0203024800 -1 0
-0.0600137630 0.0185836700 -1 0
-0.0600141670 0.0177044020 -1 0
-0.0599199360 0.0177911120 -1 0
-0.0597555930 0.0188744760 -1 0
-0.0595489570 0.0208840300 -1 0
-0.0593265810 0.0236569140 -1 0
-0.0591112580 0.0269562180 -1 0
-0.0589219390 0.0304932870 -1 1
-0.0587747730 0.0339515630 -1 1
-0.0586830870 0.0370121130 -1 1
-0.0586553840 0.0393811940 -1 1
-0.0586929000 0.0408192590 -1 1
-0.0587889750 0.0411685110 -1 1
-0.0589305230 0.0403731840 -1 1
-0.0591001310 0.0384867540 -1 1
-0.0592780100 0.0356649850 -1 1
-0.0594443280 0.0321486020 -1 1
-0.0595818870 0.0282406190 -1 0
-0.0596778990 0.0242820930 -1 0
-0.0597236180 0.0206275840 -1 0
-0.0597114930 0.0176182570 -1 0
-0.0596319280 0.0155501660 -1 0
-0.0594740670 0.0146397920 -1 0
-0.0592323430 0.0149954430 -1 0
-0.0589144810 0.0166045920 -1 0
-0.0585451260 0.0193387960 -1 0
-0.0581628200 0.0229690700 -1 0
-0.0578110750 0.0271868580 -1 0
-0.0575275400 0.0316316170 -1 1
-0.0573384030 0.0359248140 -1 1
-0.0572608510 0.0397063070 -1 1
-0.0573071840 0.0426684730 -1 1
-0.0574829520 0.0445852470 -1 1
-0.0577802180 0.0453347170 -1 1
-0.0581737130 0.0449128970 -1 1
-0.0586245180 0.0434348490 -1 1
-0.0590879580 0.0411216710 -1 1
-0.0595187650 0.0382745010 -1 1
-0.0598708850 0.0352378140 -1 1
-0.0600975520 0.0323578750 -1 1
-0.0601596530 0.0299447110 -1 0
-0.0600412690 0.0282429170 -1 0
-0.0597604440 0.0274124660 -1 0
-0.0593654130 0.0275192850 -1 0
-0.0589186260 0.0285353740 -1 0
-0.0584778680 0.0303468250 -1 1
-0.0580818240 0.0327671940 -1 1
-0.0577434400 0.0355566510 -1 1
-0.0574510750 0.0384481800 -1 1
-0.0571741320 0.0411760910 -1 1
-0.0568693240 0.0434998730 -1 1
-0.0564870050 0.0452227170 -1 1
-0.0559784880 0.0462068370 -1 1
-0.0553022000 0.0463842530 -1 1
-0.0544253620 0.0457620640 -1 1
-0.0533218980 0.0444247510 -1 1
-0.0519705650 0.0425335220 -1 1
-0.0503556050 0.0403179670 -1 1
-0.0484685610 0.0380572490 -1 1
-0.0463084920 0.0360529240 -1 1
-0.0438803690 0.0345965670 -1 1
-0.0411947350 0.0339358790 -1 1
-0.0382713320 0.0342454050 -1 1
-0.0351456830 0.0356071910 -1 1
-0.0318751100 0.0380011580 -1 1
-0.0285404510 0.0413031510 0 1
-0.0252406690 0.0452927490 0 1
-0.0220809970 0.0496734750 0 1
-0.0191588890 0.0541018100 0 1
-0.0165513360 0.0582188080 0 1
-0.0143054870 0.0616830230 0 1
-0.0124349160 0.0642056740 0 1
-0.0109220410 0.0655847380 0 1
-0.0097234660 0.0657303140 0 1
-0.0087744170 0.0646743820 0 1
-0.0079912850 0.0625628690 0 1
-0.0072745120 0.0596337250 0 1
-0.0065155210 0.0561878910 0 1
-0.0056106760 0.0525585700 0 1
-0.0044817880 0.0490810490 0 1
-0.0030967420 0.0460642520 0 1
-0.0014804740 0.0437656000 0 1
0.0002896600 0.0423710980 0 1
0.0021023380 0.0419831930 0 1
0.0038373680 0.0426176370 0 1
0.0053890330 0.0442063920 0 1
0.0066808970 0.0466021320 0 1
0.0076696500 0.0495845240 0 1
0.0083410400 0.0528738540 0 1
0.0087034180 0.0561558680 0 1
0.0087825040 0.0591145220 0 1
0.0086181880 0.0614658390 0 1
0.0082629480 0.0629873690 0 1
0.0077806550 0.0635396720 0 1
0.0072432970 0.0630786150 0 1
0.0067238600 0.0616590580 0 1
0.0062870880 0.0594294520 0 1
0.0059818490 0.0566168230 0 1
0.0058369410 0.0535046410 0 1
0.0058601060 0.0504066390 0 1
0.0060399100 0.0476368080 0 1
0.0063497280 0.0454760100 0 1
0.0067523460 0.0441396270 0 1
0.0072045270 0.0437517480 0 1
0.0076621640 0.0443292520 0 1
0.0080856620 0.0457784900 0 1
0.0084437500 0.0479064180 0 1
0.0087148300 0.0504437880 0 1
0.0088867200 0.0530743080 0 1
0.0089551180 0.0554662450 0 1
0.0089201930 0.0573077800 0 1
0.0087822570 0.0583463080 0 1
0.0085399840 0.0584242420 0 1
0.0081942190 0.0574988140 0 1
0.0077558740 0.0556384470 0 1
0.0072520580 0.0530002300 0 1
0.0067258250 0.0498006610 0 1
0.0062298740 0.0462901170 0 1
0.0058169830 0.0427344070 0 1
0.0055294940 0.0394003470 0 1
0.0053904930 0.0365406000 0 1
0.0053996990 0.0343760570 0 1
0.0055348610 0.0330768440 0 1
0.0057570570 0.0327434150 0 1
0.0060180120 0.0333897750 0 1
0.0062678890 0.0349332590 0 1
0.0064624160 0.0371963650 0 1
0.0065687430 0.0399229750 0 1
0.0065691570 0.0428068350 0 1
0.0064616360 0.0455274610 0 1
0.0062577140 0.0477869170 0 1
0.0059795340 0.0493407430 0 1
0.0056568530 0.0500195200 0 1
0.0053226860 0.0497418380 0 1
0.0050073290 0.0485199510 0 1
0.0047338490 0.0464566940 0 1
0.0045172960 0.0437332910 0 1
0.0043661980 0.0405924490 0 1
0.0042847010 0.0373207880 0 1
0.0042754060 0.0342283970 0 1
0.0043417860 0.0316203420 0 1
0.0044876580 0.0297596990 0 0
0.0047127580 0.0288298300 0 0
0.0050067380 0.0289074130 0 0
0.0053456410 0.0299541050 0 0
0.0056932250 0.0318277310 0 1
0.0060064190 0.0343073760 0 1
0.0062427670 0.0371226450 0 1
0.0063679990 0.0399794770 0 1
0.0063613540 0.0425827950 0 1
0.0062152810 0.0446623270 0 1
0.0059293810 0.0460031950 0 1
0.0055053630 0.0464715400 0 1
0.0049501630 0.0460233130 0 1
0.0042848460 0.0446966220 0 1
0.0035497670 0.0425997670 0 1
0.0028003220 0.0399037010 0 1
0.0020956580 0.0368358400 0 1
0.0014861120 0.0336683030 0 1
0.0010035520 0.0306991610 0 1
0.0006571630 0.0282277130 0 0
0.0004358570 0.0265223590 0 0
0.0003149950 0.0257825580 0 0
0.0002634160 0.0261041280 0 0
0.0002492580 0.0274602830 0 0
0.0002455520 0.0297058440 0 0
0.0002352540 0.0326013760 0 1
0.0002133280 0.0358460740 0 1
0.0001847980 0.0391108390 0 1
0.0001601790 0.0420706420 0 1
0.0001500880 0.0444359310 0 1
0.0001603390 0.0459780560 0 1
0.0001891930 0.0465435100 0 1
0.0002286530 0.0460582270 0 1
0.0002697650 0.0445282530 0 1
0.0003092360 0.0420408180 0 1
0.0003536670 0.0387642000 0 1
0.0004188000 0.0349421620 0 1
0.0005236540 0.0308799550 0 1
0.0006825040 0.0269208800 0 0
0.0008980780 0.0234139440 0 0
0.0011579630 0.0206749120 0 0
0.0014364970 0.0189468300 0 0
0.0017026440 0.0183701700 0 0
0.0019294020 0.0189705020 0 0
0.0020994010 0.0206619430 0 0
0.0022052700 0.0232575180 0 0
0.0022452970 0.0264812590 0 0
0.0022157290 0.0299858000 0 0
0.0021042630 0.0333818570 0 1
0.0018906720 0.0362799130 0 1
0.0015551360 0.0383370190 0 1
0.0010880030 0.0392992750 0 1
0.0004943240 0.0390330320 0 1
-0.0002069600 0.0375420360 0 1
-0.0009840550 0.0349702950 0 1
-0.0017911280 0.0315895460 0 1
-0.0025685460 0.0277686120 0 0
-0.0032482490 0.0239258140 0 0
-0.0037629870 0.0204736070 0 0
-0.0040560880 0.0177667950 0 0
-0.0040899000 0.0160609910 0 0
-0.0038518540 0.0154859280 0 0
-0.0033571550 0.0160374590 0 0
-0.0026482390 0.0175876680 0 0
-0.0017920760 0.0199086080 0 0
-0.0008746530 0.0227045650 0 0
0.0000093151 0.0256480510 0 0
0.0007703570 0.0284150460 0 0
0.0013376910 0.0307150960 0 1
0.0016688670 0.0323128080 0 1
0.0017543090 0.0330407890 0 1
0.0016167960 0.0328068910 0 1
0.0013073980 0.0315978470 0 1
0.0008994450 0.0294806350 0 0
0.0004799190 0.0266027550 0 0
0.0001363010 0.0231894720 0 0
-0.0000603687 0.0195327050 0 0
-0.0000702273 0.0159683670 0 0
0.0001101130 0.0128441330 0 0
0.0004542770 0.0104814900 0 0
0.0009213040 0.0091354200 0 0
0.0014716130 0.0089566920 0 0
0.0020755460 0.0099655570 0 0
0.0027116700 0.0120462550 0 0
0.0033596680 0.0149650900 0 0
0.0039945390 0.0184056030 0 0
0.0045848940 0.0220109290 0 0
0.0050952150 0.0254252090 0 0
0.0054918690 0.0283287240 0 0
0.0057506930 0.0304632980 0 1
0.0058612470 0.0316469460 0 1
0.0058257470 0.0317804700 0 1
0.0056559780 0.0308509540 0 1
0.0053710610 0.0289344960 0 0
0.0049957110 0.0261950010 0 0
0.0045595560 0.0228733550 0 0
0.0040992980 0.0192647120 0 0
0.0036620900 0.0156882040 0 0
0.0033043110 0.0124566190 0 0
0.0030819430 0.0098497810 0 0
0.0030366690 0.0080906720 0 0
0.0031867850 0.0073242750 0 0
0.0035272390 0.0076029730 0 0
0.0040342020 0.0088826100 0 0
0.0046670570 0.0110293130 0 0
0.0053669450 0.0138337680 0 0
0.0060577910 0.0170291190 0 0
0.0066547470 0.0203100480 0 0
0.0070778960 0.0233539350 0 0
0.0072648190 0.0258482360 0 0
0.0071776520 0.0275251830 0 0
0.0068042230 0.0281969470 0 0
0.0061557710 0.0277812650 0 0
0.0052656470 0.0263119330 0 0
0.0041917290 0.0239343910 0 0
0.0030187100 0.0208896530 0 0
0.0018519950 0.0174898320 0 0
0.0007998060 0.0140868360 0 0
-0.0000509027 0.0110351900 0 0
-0.0006541780 0.0086525200 0 0
-0.0010104610 0.0071848040 0 0
-0.0011537190 0.0067833680 0 0
-0.0011277960 0.0074957100 0 0
-0.0009663590 0.0092666570 0 0
-0.0006854320 0.0119448140 0 0
-0.0002877370 0.0152921430 0 0
0.0002267680 0.0189992290 0 0
0.0008508720 0.0227113360 0 0
0.0015657740 0.0260657210 0 0
0.0023420300 0.0287322330 0 0
0.0031403570 0.0304476110 0 1
0.0039094900 0.0310398300 0 1
0.0045860060 0.0304431000 0 1
0.0051034380 0.0287038280 0 0
0.0054103860 0.0259765840 0 0
0.0054874990 0.0225089870 0 0
0.0053524960 0.0186168820 0 0
0.0050513250 0.0146541070 0 0
0.0046422830 0.0109799180 0 0
0.0041814250 0.0079243120 0 0
0.0037145350 0.0057535010 0 0
0.0032777690 0.0046428290 0 0
0.0029049160 0.0046641880 0 0
0.0026343390 0.0057875990 0 0
0.0025069990 0.0078899580 0 0
0.0025526580 0.0107653200 0 0
0.0027723250 0.0141380700 0 0
0.0031299940 0.0176842480 0 0
0.0035588350 0.0210632080 0 0
0.0039754350 0.0239556540 0 0
0.0042923010 0.0261000660 0 0
0.0044255990 0.0273196080 0 0
0.0043047540 0.0275347730 0 0
0.0038900160 0.0267610320 0 0
0.0031922040 0.0250940890 0 0
0.0022822910 0.0226884730 0 0
0.0012855940 0.0197376970 0 0
0.0003642510 0.0164619290 0 0
-0.0003068020 0.0131010000 0 0
-0.0005660930 0.0099045420 0 0
-0.0002890330 0.0071142170 0 0
0.0005956880 0.0049401910 0 0
0.0020987130 0.0035369650 0 0
0.0041723620 0.0029826280 0 0
0.0067206440 0.0032653390 0 0
0.0096120690 0.0042807600 0 0
0.0126929200 0.0058412100 0 0
0.0158027090 0.0076942530 0 0
0.0187940370 0.0095480970 0 0
0.0215560250 0.0111017040 0 0
0.0240343150 0.0120777680 0 0
0.0262368030 0.0122561020 0 0
0.0282208770 0.0115028070 0 0
0.0300693210 0.0097896060 1 0
0.0318660820 0.0071998250 1 0
0.0336791100 0.0039202830 1 0
0.0355521240 0.0002200330 1 0
0.0375041670 -0.0035811480 1 0
0.0395342650 -0.0071490300 1 0
0.0416270500 -0.0101700110 1 0
0.0437557960 -0.0123816430 1 0
0.0458828360 -0.0135982800 1 0
0.0479601860 -0.0137317010 1 0
0.0499327490 -0.0128031770 1 0
0.0517445150 -0.0109420820 1 0
0.0533460640 -0.0083709810 1 0
0.0547002870 -0.0053820020 1 0
0.0557838980 -0.0023084620 1 0
0.0565852080 0.0005064460 1 0
0.0571011060 0.0027425400 1 0
0.0573357000 0.0041362320 1 0
0.0573008340 0.0045113750 1 0
0.0570182790 0.0037990060 1 0
0.0565239020 0.0020396990 1 0
0.0558722500 -0.0006282650 1 0
0.0551373300 -0.0039858350 1 0
0.0544059170 -0.0077499050 1 0
0.0537641470 -0.0115925150 1 0
0.0532830420 -0.0151682480 1 0
0.0530087280 -0.0181509650 1 0
0.0529584630 -0.0202739680 1 0
0.0531203610 -0.0213632220 1 0
0.0534557640 -0.0213549450 1 0
0.0539050570 -0.0202950460 1 0
0.0543967460 -0.0183226650 1 0
0.0548568600 -0.0156431130 1 0
0.0552157730 -0.0124998860 1 0
0.0554136720 -0.0091558930 1 0
0.0554078810 -0.0058851620 1 0
0.0551810500 -0.0029655310 1 0
0.0547458120 -0.0006620000 1 0
0.0541437870 0.0008010050 1 0
0.0534401100 0.0012719250 1 0
0.0527153640 0.0006996160 1 0
0.0520559810 -0.0008513340 1 0
0.0515436440 -0.0032020040 1 0
0.0512442470 -0.0060797320 1 0
0.0511977430 -0.0091561090 1 0
0.0514113110 -0.0120933650 1 0
0.0518580240 -0.0145867630 1 0
0.0524808500 -0.0163953440 1 0
0.0532002400 -0.0173605780 1 0
0.0539238920 -0.0174160670 1 0
0.0545579080 -0.0165911190 1 0
0.0550186550 -0.0150077490 1 0
0.0552432900 -0.0128668800 1 0
0.0551958320 -0.0104222980 1 0
0.0548684880 -0.0079500360 1 0
0.0542815820 -0.0057226850 1 0
0.0534832300 -0.0039882420 1 0
0.0525448120 -0.0029478950 1 0
0.0515502000 -0.0027347970 1 0
0.0505844940 -0.0034010960 1 0
0.0497281270 -0.0049142750 1 0
0.0490536880 -0.0071587430 1 0
0.0486198580 -0.0099426780 1 0
0.0484623600 -0.0130136930 1 0
0.0485858940 -0.0160831230 1 0
0.0489611890 -0.0188542820 1 0
0.0495294580 -0.0210519690 1 0
0.0502116900 -0.0224528600 1 0
0.0509179320 -0.0229136440 1 0
0.0515558510 -0.0223906870 1 0
0.0520413210 -0.0209455840 1 0
0.0523102920 -0.0187330780 1 0
0.0523268670 -0.0159738960 1 0
0.0520845340 -0.0129234450 1 0
0.0516028470 -0.0098484430 1 0
0.0509244130 -0.0070133010 1 0
0.0501145340 -0.0046670410 1 0
0.0492608030 -0.0030229220 1 0
0.0484675960 -0.0022345360 1 0
0.0478426630 -0.0023767820 1 0
0.0474773560 -0.0034347670 1 0
0.0474273830 -0.0053014380 1 0
0.0477036480 -0.0077870800 1 0
0.0482764570 -0.0106403610 1 0
0.0490866070 -0.0135754880 1 0
0.0500552580 -0.0163023580 1 0
0.0510904500 -0.0185599380 1 0
0.0520936720 -0.0201496930 1 0
0.0529709710 -0.0209612900 1 0
0.0536492830 -0.0209827010 1 0
0.0540927100 -0.0202906770 1 0
0.0543103450 -0.0190255360 1 0
0.0543490940 -0.0173633170 1 0
0.0542713440 -0.0154985950 1 0
0.0541267030 -0.0136391260 1 0
0.0539334060 -0.0120011940 1 0
0.0536799370 -0.0107955500 1 0
0.0533437070 -0.0102038790 1 0
0.0529132230 -0.0103518270 1 0
0.0524003380 -0.0112864820 1 0
0.0518376610 -0.0129666210 1 0
0.0512668990 -0.0152690200 1 0
0.0507292690 -0.0180063000 1 0
0.0502644990 -0.0209488420 1 0
0.0499139490 -0.0238438920 1 0
0.0497172440 -0.0264268990 1 0
0.0496978070 -0.0284283120 1 0
0.0498441630 -0.0295898160 1 0
0.0500966270 -0.0296991810 1 0
0.0503426410 -0.0286322370 1 0
0.0504239720 -0.0263811520 1 0
0.0501659420 -0.0230609940 1 0
0.0494319030 -0.0188998460 1 0
0.0481823610 -0.0142174990 1 0
0.0465052570 -0.0093947950 1 0
0.0446001260 -0.0048368600 1 0
0.0427273310 -0.0009348620 1 0
0.0411475430 0.0019688780 1 0
0.0400715750 0.0036102630 1 0
0.0396301670 0.0038300190 1 0
0.0398659590 0.0025974090 1 0
0.0407443020 0.0000214780 1 0
0.0421745360 -0.0036597050 1 0
0.0440313780 -0.0081104350 1 0
0.0461699700 -0.0129398270 1 0
0.0484353270 -0.0177433040 1 0
0.0506698360 -0.0221339040 1 0
0.0527209960 -0.0257656290 1 0
0.0544516920 -0.0283603450 1 0
0.0557548950 -0.0297420250 1 0
0.0565701510 -0.0298669490 1 0
0.0568944950 -0.0288346980 1 0
0.0567809530 -0.0268740740 1 0
0.0563242670 -0.0243089390 1 0
0.0556399630 -0.0215141180 1 0
0.0548432090 -0.0188697220 1 0
0.0540309520 -0.0167177260 1 0
0.0532700290 -0.0153242790 1 0
0.0525938200 -0.0148535240 1 0
0.0520073340 -0.0153567090 1 0
0.0514985020 -0.0167760160 1 0
0.0510528290 -0.0189607220 1 0
0.0506659720 -0.0216912720 1 0
0.0503471540 -0.0247048320 1 0
0.0501130660 -0.0277187580 1 0
0.0499811420 -0.0304537420 1 -1
0.0499687660 -0.0326587260 1 -1
0.0500933550 -0.0341346480 1 -1
0.0503650390 -0.0347514160 1 -1
0.0507739030 -0.0344565050 1 -1
0.0512824470 -0.0332783700 1 -1
0.0518298370 -0.0313276420 1 -1
0.0523458490 -0.0287941910 1 0
0.0527685910 -0.0259341880 1 0
0.0530589980 -0.0230443420 1 0
0.0532058810 -0.0204280330 1 0
0.0532204630 -0.0183602040 1 0
0.0531266400 -0.0170558170 1 0
0.0529540280 -0.0166462210 1 0
0.0527333710 -0.0171665690 1 0
0.0524917510 -0.0185548060 1 0
0.0522513410 -0.0206601450 1 0
0.0520345920 -0.0232586920 1 0
0.0518703390 -0.0260769610 1 0
0.0517936060 -0.0288238070 1 0
0.0518376750 -0.0312254140 1 -1
0.0520238300 -0.0330553770 1 -1
0.0523582840 -0.0341553780 1 -1
0.0528415780 -0.0344450810 1 -1
0.0534830160 -0.0339211340 1 -1
0.0543046110 -0.0326476050 1 -1
0.0553264890 -0.0307433850 1 -1
0.0565411360 -0.0283717640 1 0
0.0578918640 -0.0257332070 1 0
0.0592673260 -0.0230584290 1 0
0.0605155310 -0.0205976930 1 0
0.0614736650 -0.0186033690 1 0
0.0620049480 -0.0173054450 1 0
0.0620314630 -0.0168827370 1 0
0.0615528290 -0.0174360160 1 0
0.0606431850 -0.0189708180 1 0
0.0594261160 -0.0213942300 1 0
0.0580396920 -0.0245240830 1 0
0.0566106530 -0.0281059890 1 0
0.0552505690 -0.0318346470 1 -1
0.0540703160 -0.0353784380 1 -1
0.0531910260 -0.0384084220 1 -1
0.0527295600 -0.0406319690 1 -1
0.0527627460 -0.0418269860 1 -1
0.0532965720 -0.0418689170 1 -1
0.0542581410 -0.0407443980 1 -1
0.0555078410 -0.0385519750 1 -1
0.0568612400 -0.0354934520 1 -1
0.0581136920 -0.0318561640 1 -1
0.0590661420 -0.0279850400 1 0
0.0595548590 -0.0242469580 1 0
0.0594856710 -0.0209923710 1 0
0.0588626720 -0.0185192690 1 0
0.0577937930 -0.0170443060 1 0
0.0564655360 -0.0166841930 1 0
0.0551001840 -0.0174473300 1 0
0.0539173130 -0.0192337690 1 0
0.0531080080 -0.0218437080 1 0
0.0528139080 -0.0249975510 1 0
0.0531058750 -0.0283671350 1 0
0.0539716450 -0.0316113670 1 -1
0.0553243190 -0.0344094820 1 -1
0.0570292050 -0.0364903600 1 -1
0.0589343480 -0.0376581570 1 -1
0.0608931830 -0.0378121180 1 -1
0.0627783570 -0.0369569280 1 -1
0.0644908400 -0.0352012800 1 -1
0.0659669790 -0.0327445920 1 -1
0.0671828970 -0.0298539620 1 0
0.0681523360 -0.0268359030 1 0
0.0689152870 -0.0240081560 1 0
0.0695229990 -0.0216727010 1 0
0.0700279840 -0.0200857080 1 0
0.0704792280 -0.0194231790 1 0
0.0709180620 -0.0197523460 1 0
0.0713759510 -0.0210224000 1 0
0.0718771100 -0.0230758800 1 0
0.0724428240 -0.0256707130 1 0
0.0730922470 -0.0285057870 1 0
0.0738380430 -0.0312507770 1 -1
0.0746787900 -0.0335823950 1 -1
0.0755919870 -0.0352240960 1 -1
0.0765321210 -0.0359823310 1 -1
0.0774368510 -0.0357734430 1 -1
0.0782395240 -0.0346357550 1 -1
0.0788819630 -0.0327220010 1 -1
0.0793231880 -0.0302729290 1 -1
0.0795447190 -0.0275791420 1 0
0.0795540180 -0.0249397890 1 0
0.0793843710 -0.0226267830 1 0
0.0790885520 -0.0208623410 1 0
0.0787272300 -0.0198107530 1 0
0.0783557210 -0.0195764270 1 0
0.0780120600 -0.0202008750 1 0
0.0777096550 -0.0216603370 1 0
0.0774380520 -0.0238682430 1 0
0.0771718160 -0.0266809600 1 0
0.0768827840 -0.0299041360 1 0
0.0765498150 -0.0333010910 1 -1
0.0761626820 -0.0366057560 1 -1
0.0757203150 -0.0395412060 1 -1
0.0752259200 -0.0418429600 1 -1
0.0746814010 -0.0432832700 1 -1
0.0740820730 -0.0436924940 1 -1
0.0734124980 -0.0429778740 1 -1
0.0726466640 -0.0411425180 1 -1
0.0717564980 -0.0383027150 1 -1
0.0707280500 -0.0346936470 1 -1
0.0695782340 -0.0306527910 1 -1
0.0683632140 -0.0265795590 1 0
0.0671736320 -0.0228802450 1 0
0.0661188180 -0.0199122080 1 0
0.0653072690 -0.0179398950 1 0
0.0648306530 -0.0171107480 1 0
0.0647542370 -0.0174528390 1 0
0.0651135670 -0.0188885160 1 0
0.0659157140 -0.0212540400 1 0
0.0671386370 -0.0243174890 1 0
0.0687210590 -0.0277938780 1 0
0.0705483840 -0.0313632980 1 -1
0.0724536680 -0.0346981810 1 -1
0.0742437080 -0.0374961010 1 -1
0.0757380900 -0.0395071620 1 -1
0.0768012940 -0.0405512730 1 -1
0.0773586640 -0.0405312640 1 -1
0.0773982500 -0.0394462910 1 -1
0.0769618260 -0.0373981990 1 -1
0.0761271330 -0.0345816040 1 -1
0.0749873160 -0.0312611700 1 -1
0.0736351200 -0.0277456810 1 0
0.0721531810 -0.0243605140 1 0
0.0706073420 -0.0214150180 1 0
0.0690429990 -0.0191681030 1 0
0.0674875140 -0.0178037800 1 0
0.0659607020 -0.0174246850 1 0
0.0644926240 -0.0180556990 1 0
0.0631427030 -0.0196405630 1 0
0.0620079990 -0.0220278770 1 0
0.0612096660 -0.0249652490 1 0
0.0608596160 -0.0281229640 1 0
0.0610247430 -0.0311464880 1 -1
0.0617084460 -0.0337156110 1 -1
0.0628551120 -0.0355876520 1 -1
0.0643681680 -0.0366175100 1 -1
0.0661312720 -0.0367598670 1 -1
0.0680291010 -0.0360600730 1 -1
0.0699659780 -0.0346376870 1 -1
0.0718771660 -0.0326655780 1 -1
0.0737275710 -0.0303464660 1 -1
0.0754975700 -0.0278900100 1 0
0.0771597770 -0.0254954550 1 0
0.0786543730 -0.0233414280 1 0
0.0798780240 -0.0215807730 1 0
0.0807006950 -0.0203389450 1 0
0.0810055310 -0.0197127760 1 0
0.0807280930 -0.0197624250 1 0
0.0798751530 -0.0204923610 1 0
0.0785208680 -0.0218287560 1 0
0.0767893070 -0.0236104470 1 0
0.0748348210 -0.0256071800 1 0
0.0728289560 -0.0275626600 1 0
0.0709530790 -0.0292427370 1 0
0.0693857560 -0.0304659980 1 -1
0.0682771870 -0.0311103460 1 -1
0.0677205820 -0.0311098240 1 -1
0.0677402070 -0.0304583540 1 -1
0.0683014990 -0.0292202520 1 0
0.0693274880 -0.0275342110 1 0
0.0707065490 -0.0256018560 1 0
0.0722952770 -0.0236633350 1 0
0.0739302330 -0.0219675030 1 0
0.0754542780 -0.0207424200 1 0
0.0767488380 -0.0201684070 1 0
0.0777562180 -0.0203553830 1 0
0.0784820610 -0.0213283390 1 0
0.0789783150 -0.0230229460 1 0
0.0793127000 -0.0252893070 1 0
0.0795368560 -0.0279045580 1 0
0.0796702820 -0.0305979950 1 -1
0.0797060740 -0.0330867250 1 -1
0.0796256810 -0.0351127310 1 -1
0.0794076340 -0.0364677540 1 -1
0.0790275000 -0.0369939500 1 -1
0.0784568540 -0.0365684260 1 -1
0.0776737850 -0.0351055690 1 -1
0.0766894630 -0.0325999530 1 -1
0.0755736040 -0.0291835790 1 0
0.0744531030 -0.0251453890 1 0
0.0734801730 -0.0208894120 1 0
0.0727904960 -0.0168499350 1 0
0.0724696670 -0.0134025480 1 0
0.0725312270 -0.0108096400 1 0
0.0729063040 -0.0092150080 1 0
0.0734509310 -0.0086673680 1 0
0.0739765930 -0.0091453490 1 0
0.0743000770 -0.0105745320 1 0
0.0742985130 -0.0128353040 1 0
0.0739493060 -0.0157614660 1 0
0.0733378280 -0.0191372190 1 0
0.0726295680 -0.0227039620 1 0
0.0720178480 -0.0261814230 1 0
0.0716658310 -0.0292974130 1 0
0.0716636280 -0.0318156180 1 -1
0.0720156840 -0.0335550450 1 -1
0.0726595020 -0.0344030140 1 -1
0.0735019780 -0.0343272450 1 -1
0.0744524920 -0.0333876160 1 -1
0.0754364670 -0.0317389850 1 -1
0.0763897560 -0.0296131920 1 0
0.0772497780 -0.0272764170 1 0
0.0779578260 -0.0249747260 1 0
0.0784754150 -0.0228962260 1 0
0.0788065280 -0.0211713790 1 0
0.0790062850 -0.0198997090 1 0
0.0791618560 -0.0191683910 1 0
0.0793604500 -0.0190421920 1 0
0.0796684830 -0.0195344150 1 0
0.0801200960 -0.0205833120 1 0
0.0807014150 -0.0220510000 1 0
0.0813371860 -0.0237459510 1 0
0.0819012910 -0.0254571780 1 0
0.0822604070 -0.0269851740 1 0
0.0823323090 -0.0281618070 1 0
0.0821220210 -0.0288593170 1 0
0.0817114220 -0.0289930190 1 0
0.0812147180 -0.0285253190 1 0
0.0807377340 -0.0274746560 1 0
0.0803660800 -0.0259224010 1 0
0.0801728820 -0.0240086470 1 0
0.0802229450 -0.0219166960 1 0
0.0805641410 -0.0198519880 1 0
0.0812125780 -0.0180197240 1 0
0.0821438860 -0.0166038470 1 0
0.0832971620 -0.0157521200 1 0
0.0845829540 -0.0155708410 1 0
0.0858847410 -0.0161233540 1 0
0.0870621070 -0.0174219970 1 0
0.0879710600 -0.0194128320 1 0
0.0884955970 -0.0219625610 1 0
0.0885676190 -0.0248560090 1 0
0.0881692670 -0.0278081250 1 0
0.0873366730 -0.0304937320 1 -1
0.0861725380 -0.0325951140 1 -1
0.0848419750 -0.0338557030 1 -1
0.0835296730 -0.0341200770 1 -1
0.0823802360 -0.0333499250 1 -1
0.0814671800 -0.0316201900 1 -1
0.0808092670 -0.0291017920 1 0
0.0804080070 -0.0260352300 1 0
0.0802640350 -0.0227033680 1 0
0.0803594020 -0.0194121870 1 0
0.0806328180 -0.0164770270 1 0
0.0809771000 -0.0142018900 1 0
0.0812622480 -0.0128455660 1 0
0.0813721040 -0.0125807760 1 0
0.0812396440 -0.0134568500 1 0
0.0808672480 -0.0153762250 1 0
0.0803274810 -0.0180952220 1 0
0.0797483770 -0.0212562200 1 0
0.0792859840 -0.0244469290 1 0
0.0790874010 -0.0272685810 1 0
0.0792543470 -0.0293921030 1 0
0.0798174200 -0.0305925970 1 -1
0.0807243560 -0.0307637370 1 -1
0.0818434910 -0.0299155970 1 0
0.0829834490 -0.0281596210 1 0
0.0839258410 -0.0256886830 1 0
0.0844665540 -0.0227582150 1 0
0.0844617380 -0.0196642940 1 0
0.0838667880 -0.0167133170 1 0
0.0827494460 -0.0141884600 1 0
0.0812685570 -0.0123227880 1 0
0.0796321110 -0.0112820520 1 0
0.0780593890 -0.0111552230 1 0
0.0767603010 -0.0119513480 1 0
0.0759249830 -0.0136010970 1 0
0.0757102010 -0.0159626990 1 0
0.0762144940 -0.0188353900 1 0
0.0774431020 -0.0219798200 1 0
0.0792783090 -0.0251372210 1 0
0.0814810140 -0.0280430120 1 0
0.0837363340 -0.0304416170 1 -1
0.0857275000 -0.0321083860 1 -1
0.0872068770 -0.0328748810 1 -1
0.0880410670 -0.0326514730 1 -1
0.0882220740 -0.0314432660 1 -1
0.0878458540 -0.0293556800 1 0
0.0870676620 -0.0265874450 1 0
0.0860518550 -0.0234103590 1 0
0.0849326350 -0.0201379450 1 0
0.0837911440 -0.0170911670 1 0
0.0826468920 -0.0145693400 1 0
0.0814651050 -0.0128258890 1 0
0.0801857180 -0.0120452070 1 0
0.0787692180 -0.0123232710 1 0
0.0772361800 -0.0136583040 1 0
0.0756784540 -0.0159525770 1 0
0.0742426650 -0.0190220100 1 0
0.0730989360 -0.0226118890 1 0
0.0724019270 -0.0264169850 1 0
0.0722522830 -0.0301036130 1 -1
0.0726735180 -0.0333355630 1 -1
0.0736134590 -0.0358077240 1 -1
0.0749662060 -0.0372846250 1 -1
0.0766025510 -0.0376340710 1 -1
0.0783956570 -0.0368453470 1 -1
0.0802334380 -0.0350270320 1 -1
0.0820155490 -0.0323880570 1 -1
0.0836401960 -0.0292109620 1 0
0.0849943010 -0.0258242860 1 0
0.0859595450 -0.0225745120 1 0
0.0864338420 -0.0197948600 1 0
0.0863567270 -0.0177719250 1 0
0.0857268300 -0.0167160920 1 0
0.0846073500 -0.0167410430 1 0
0.0831227160 -0.0178544250 1 0
0.0814485350 -0.0199606530 1 0
0.0797911520 -0.0228744570 1 0
0.0783546560 -0.0263405060 1 0
0.0773033690 -0.0300559130 1 -1
0.0767348930 -0.0336952440 1 -1
0.0766727150 -0.0369376480 1 -1
0.0770740540 -0.0394957150 1 -1
0.0778441050 -0.0411444560 1 -1
0.0788537500 -0.0417461110 1 -1
0.0799602220 -0.0412660770 1 -1
0.0810271430 -0.0397768850 1 -1
0.0819393580 -0.0374494490 1 -1
0.0826077840 -0.0345339920 1 -1
0.0829617500 -0.0313344520 1 -1
0.0829380790 -0.0281786100 1 0
0.0824864920 -0.0253852510 1 0
0.0815984750 -0.0232309500 1 0
0.0803385950 -0.0219210140 1 0
0.0788483110 -0.0215687210 1 0
0.0773151670 -0.0221850660 1 0
0.0759266860 -0.0236813040 1 0
0.0748327830 -0.0258850330 1 0
0.0741284290 -0.0285633300 1 0
0.0738549450 -0.0314438370 1 -1
0.0740098530 -0.0342326670 1 -1
0.0745549600 -0.0366354840 1 -1
0.0754212610 -0.0383859170 1 -1
0.0765169300 -0.0392773280 1 -1
0.0777407750 -0.0391895520 1 -1
0.0789949170 -0.0381061460 1 -1
0.0801902970 -0.0361232580 1 -1
0.0812464270 -0.0334491460 1 -1
0.0820919240 -0.0303874920 1 -1
0.0826696810 -0.0272996500 1 0
0.0829445370 -0.0245519230 1 0
0.0829080790 -0.0224629450 1 0
0.0825772000 -0.0212648790 1 0
0.0819886590 -0.0210831920 1 0
0.0811951350 -0.0219324510 1 0
0.0802642170 -0.0237235610 1 0
0.0792760710 -0.0262779540 1 0
0.0783161570 -0.0293455500 1 0
0.0774643870 -0.0326274790 1 -1
0.0767856750 -0.0358059130 1 -1
0.0763264440 -0.0385778580 1 -1
0.0761165310 -0.0406856560 1 -1
0.0761702260 -0.0419399460 1 -1
0.0764814670 -0.0422350570 1 -1
0.0770158440 -0.0415571000 1 -1
0.0777068870 -0.0399838240 1 -1
0.0784615100 -0.0376755050 1 -1
0.0791739870 -0.0348575160 1 -1
0.0797443840 -0.0317966500 1 -1
0.0800957760 -0.0287751560 1 0
0.0801851920 -0.0260669950 1 0
0.0800068000 -0.0239178850 1 0
0.0795886880 -0.0225271300 1 0
0.0789843230 -0.0220301740 1 0
0.0782596220 -0.0224847010 1 0
0.0774797190 -0.0238630490 1 0
0.0767014950 -0.0260505020 1 0
0.0759740440 -0.0288496460 1 0
0.0753427150 -0.0319946080 1 -1
0.0748510310 -0.0351774080 1 -1
0.0745387180 -0.0380824050 1 -1
0.0744371730 -0.0404224520 1 -1
0.0745635740 -0.0419725670 1 -1
0.0749141290 -0.0425965500 1 -1
0.0754577830 -0.0422606940 1 -1
0.0761336810 -0.0410322210 1 -1
0.0768561620 -0.0390652520 1 -1
0.0775279710 -0.0365791520 1 -1
0.0780576410 -0.0338340750 1 -1
0.0783748300 -0.0311076280 1 -1
0.0784390930 -0.0286737300 1 0
0.0782413690 -0.0267808940 1 0
0.0778004800 -0.0256267000 1 0
0.0771575170 -0.0253322920 1 0
0.0763701980 -0.0259285410 1 0
0.0755088080 -0.0273596500 1 0
0.0746538420 -0.0294959960 1 0
0.0738928670 -0.0321465510 1 -1
0.0733136710 -0.0350713920 1 -1
0.0729934480 -0.0379986940 1 -1
0.0729867420 -0.0406461830 1 -1
0.0733157650 -0.0427441860 1 -1
0.0739658860 -0.0440585340 1 -1
0.0748876530 -0.0444130180 1 -1
0.0760058990 -0.0437099940 1 -1
0.0772336210 -0.0419455710 1 -1
0.0784836560 -0.0392158760 1 -1
0.0796726180 -0.0357136610 1 -1
0.0807199120 -0.0317155240 1 -1
0.0815489790 -0.0275595010 1 0
0.0820943970 -0.0236148390 1 0
0.0823131540 -0.0202481290 1 0
0.0821954210 -0.0177881160 1 0
0.0817698940 -0.0164896470 1 0
0.0811011240 -0.0165004260 1 0
0.0802793490 -0.0178382950 1 0
0.0794047800 -0.0203851840 1 0
0.0785693890 -0.0238981450 1 0
0.0778410000 -0.0280344800 1 0
0.0772551790 -0.0323875200 1 -1
0.0768178360 -0.0365299880 1 -1
0.0765164680 -0.0400612160 1 -1
0.0763332680 -0.0426517570 1 -1
0.0762529870 -0.0440769750 1 -1
0.0762637190 -0.0442326990 1 -1
0.0763544750 -0.0431326060 1 -1
0.0765133460 -0.0408956280 1 -1
0.0767262840 -0.0377325160 1 -1
0.0769756480 -0.0339323060 1 -1
0.0772396470 -0.0298431620 1 0
0.0774939340 -0.0258436310 1 0
0.0777143610 -0.0223048030 1 0
0.0778797190 -0.0195484840 1 0
0.0779749500 -0.0178100330 1 0
0.0779949070 -0.0172133800 1 0
0.0779468370 -0.0177606900 1 0
0.0778498270 -0.0193358790 1 0
0.0777309960 -0.0217212450 1 0
0.0776195970 -0.0246262650 1 0
0.0775419810 -0.0277249940 1 0
0.0775204410 -0.0306950970 1 -1
0.0775749410 -0.0332508150 1 -1
0.0777230830 -0.0351656720 1 -1
0.0779760760 -0.0362856990 1 -1
0.0783334690 -0.0365364320 1 -1
0.0787802170 -0.0359252000 1 -1
0.0792866550 -0.0345379060 1 -1
0.0798104320 -0.0325299660 1 -1
0.0803009490 -0.0301122810 1 -1
0.0807072320 -0.0275332160 1 0
0.0809873270 -0.0250582890 1 0
0.0811159990 -0.0229499840 1 0
0.0810893780 -0.0214467460 1 0
0.0809259000 -0.0207368810 1 0
0.0806625780 -0.0209286800 1 0
0.0803487220 -0.0220283320 1 0
0.0800412460 -0.0239367930 1 0
0.0798012310 -0.0264653790 1 0
0.0796870140 -0.0293616000 1 0
0.0797422020 -0.0323372660 1 -1
0.0799833040 -0.0350948100 1 -1
0.0803936940 -0.0373518570 1 -1
0.0809267970 -0.0388664480 1 -1
0.0815159030 -0.0394631130 1 -1
0.0820860040 -0.0390551000 1 -1
0.0825649600 -0.0376563440 1 -1
0.0828936320 -0.0353812930 1 -1
0.0830341510 -0.0324356730 1 -1
0.0829737690 -0.0290999150 1 0
0.0827224960 -0.0257041690 1 0
0.0823063790 -0.0225956730 1 0
0.0817605550 -0.0201025040 1 0
0.0811244520 -0.0184988640 1 0
0.0804390920 -0.0179758670 1 0
0.0797461000 -0.0186196940 1 0
0.0790882290 -0.0203989390 1 0
0.0785102430 -0.0231649810 1 0
0.0780576860 -0.0266686420 1 0
0.0777717540 -0.0305915660 1 -1
0.0776813930 -0.0345841060 1 -1
0.0777955990 -0.0383000510 1 -1
0.0780987910 -0.0414243830 1 -1
0.0785517010 -0.0436964040 1 -1
0.0790986280 -0.0449314940 1 -1
0.0796782930 -0.0450404910 1 -1
0.0802329330 -0.0440406270 1 -1
0.0807116080 -0.0420528750 1 -1
0.0810685540 -0.0392863140 1 -1
0.0812620220 -0.0360140410 1 -1
0.0812585340 -0.0325461030 1 -1
0.0810413440 -0.0292032440 1 0
0.0806171670 -0.0262920040 1 0
0.0800171650 -0.0240798810 1 0
0.0792928820 -0.0227701240 1 0
0.0785094270 -0.0224786590 1 0
0.0777373500 -0.0232189980 1 0
0.0770442600 -0.0249000790 1 0
0.0764871560 -0.0273367710 1 0
0.0761057040 -0.0302701750 1 -1
0.0759167870 -0.0333963960 1 -1
0.0759120470 -0.0364014510 1 -1
0.0760596490 -0.0389951660 1 -1
0.0763095020 -0.0409362800 1 -1
0.0766008610 -0.0420475960 1 -1
0.0768717540 -0.0422257490 1 -1
0.0770689860 -0.0414495340 1 -1
0.0771561250 -0.0397857470 1 -1
0.0771164200 -0.0373871020 1 -1
0.0769493350 -0.0344786370 1 -1
0.0766632180 -0.0313351350 1 -1
0.0762690140 -0.0282539310 1 0
0.0757780490 -0.0255244620 1 0
0.0752029340 -0.0233963780 1 0
0.0745596520 -0.0220530710 1 0
0.0738701710 -0.0215977640 1 0
0.0731648220 -0.0220517300 1 0
0.0724825690 -0.0233581160 1 0
0.0718676620 -0.0253868730 1 0
0.0713632080 -0.0279414230 1 0
0.0710039960 -0.0307704530 1 -1
0.0708109640 -0.0335879560 1 -1
0.0707878950 -0.0361005760 1 -1
0.0709196630 -0.0380365000 1 -1
0.0711722300 -0.0391714160 1 -1
0.0714954640 -0.0393524810 1 -1
0.0718293340 -0.0385206900 1 -1
0.0721127080 -0.0367253250 1 -1
0.0722923320 -0.0341230200 1 -1
0.0723295140 -0.0309616160 1 -1
0.0722037540 -0.0275546430 1 0
0.0719136640 -0.0242500110 1 0
0.0714757270 -0.0213931880 1 0
0.0709218200 -0.0192866000 1 0
0.0702963560 -0.0181512570 1 0
0.0696525180 -0.0180994750 1 0
0.0690467020 -0.0191245040 1 0
0.0685320460 -0.0211059110 1 0
0.0681536980 -0.0238273620 1 0
0.0679472080 -0.0270046170 1 0
0.0679385050 -0.0303192040 1 -1
0.0681430010 -0.0334507600 1 -1
0.0685627160 -0.0361040530 1 -1
0.0691821600 -0.0380317970 1 -1
0.0699659380 -0.0390552840 1 -1
0.0708619330 -0.0390817070 1 -1
0.0718109420 -0.0381148760 1 -1
0.0727580990 -0.0362567980 1 -1
0.0736592580 -0.0336983820 1 -1
0.0744800530 -0.0306988150 1 -1
0.0751912440 -0.0275561060 1 0
0.0757652130 -0.0245744260 1 0
0.0761765430 -0.0220345370 1 0
0.0764071310 -0.0201709980 1 0
0.0764532260 -0.0191562830 1 0
0.0763300950 -0.0190895760 1 0
0.0760716050 -0.0199872170 1 0
0.0757247640 -0.0217749360 1 0
0.0753410810 -0.0242876010 1 0
0.0749676500 -0.0272822380 1 0
0.0746408680 -0.0304635930 1 -1
0.0743837550 -0.0335160060 1 -1
0.0742058090 -0.0361350490 1 -1
0.0741043950 -0.0380560510 1 -1
0.0740681670 -0.0390797430 1 -1
0.0740823290 -0.0390926290 1 -1
0.0741324930 -0.0380778410 1 -1
0.0742040990 -0.0361172670 1 -1
0.0742790790 -0.0333870370 1 -1
0.0743343050 -0.0301428740 1 -1
0.0743444600 -0.0266932210 1 0
0.0742884880 -0.0233658760 1 0
0.0741563520 -0.0204748390 1 0
0.0739521310 -0.0182902330 1 0
0.0736912390 -0.0170132930 1 0
0.0733938010 -0.0167588350 1 0
0.0730797280 -0.0175463650 1 0
0.0727696320 -0.0192997570 1 0
0.0724896190 -0.0218552010 1 0
0.0722728180 -0.0249769120 1 0
0.0721521680 -0.0283791870 1 0
0.0721475120 -0.0317530110 1 -1
0.0722570060 -0.0347945960 1 -1
0.0724590680 -0.0372318380 1 -1
0.0727212130 -0.0388460290 1 -1
0.0730089590 -0.0394890350 1 -1
0.0732918400 -0.0390970720 1 -1
0.0735458730 -0.0377008870 1 -1
0.0737521190 -0.0354298000 1 -1
0.0738927140 -0.0325053980 1 -1
0.0739477080 -0.0292219700 1 0
0.0738952300 -0.0259146170 1 0
0.0737151030 -0.0229201980 1 0
0.0733944190 -0.0205381800 1 0
0.0729332180 -0.0189968730 1 0
0.0723486480 -0.0184286240 1 0
0.0716766720 -0.0188572650 1 0
0.0709715210 -0.0201995990 1 0
0.0703034140 -0.0222785740 1 0
0.0697534680 -0.0248431630 1 0
0.0694039800 -0.0275920850 1 0
0.0693252730 -0.0302020480 1 -1
0.0695638710 -0.0323610840 1 -1
0.0701363240 -0.0338045060 1 -1
0.0710285690 -0.0343486610 1 -1
0.0721966980 -0.0339159510 1 -1
0.0735661210 -0.0325434200 1 -1
0.0750318000 -0.0303716960 1 -1
0.0764656970 -0.0276206780 1 0
0.0777341380 -0.0245628030 1 0
0.0787209040 -0.0214993150 1 0
0.0793475530 -0.0187374240 1 0
0.0795841600 -0.0165640700 1 0
0.0794495550 -0.0152158340 1 0
0.0790040000 -0.0148499700 1 0
0.0783365650 -0.0155238120 1 0
0.0775484660 -0.0171870170 1 0
0.0767358430 -0.0196866010 1 0
0.0759774390 -0.0227826360 1 0
0.0753298040 -0.0261726090 1 0
0.0748273990 -0.0295219050 1 0
0.0744837940 -0.0324967650 1 -1
0.0742935740 -0.0347959450 1 -1
0.0742363160 -0.0361789670 1 -1
0.0742817870 -0.0364900230 1 -1
0.0743942640 -0.0356746010 1 -1
0.0745358310 -0.0337843930 1 -1
0.0746696050 -0.0309687360 1 -1
0.0747623270 -0.0274547040 1 0
0.0747852430 -0.0235196650 1 0
0.0747149520 -0.0194610260 1 0
0.0745373460 -0.0155688340 1 0
0.0742538520 -0.0121054610 1 0
0.0738842470 -0.0092912640 1 0
0.0734617470 -0.0072916850 1 0
0.0730228350 -0.0062039750 1 0
0.0725984320 -0.0060455970 1 0
0.0722103960 -0.0067472610 1 0
0.0718721450 -0.0081534740 1 0
0.0715901630 -0.0100329960 1 0
0.0713652590 -0.0120997390 1 0
0.0711945310 -0.0140418090 1 0
0.0710745750 -0.0155533610 1 0
0.0710051640 -0.0163637250 1 0
0.0709912470 -0.0162614570 1 0
0.0710406530 -0.0151136530 1 0
0.0711575100 -0.0128811050 1 0
0.0713350390 -0.0096287210 1 0
0.0715517280 -0.0055279000 1 0
0.0717724580 -0.0008456920 1 0
0.0719536760 0.0040815530 1 0
0.0720504120 0.0088862320 1 0
0.0720232300 0.0132121560 1 0
0.0718445860 0.0167559960 1 0
0.0715047420 0.0193038650 1 0
0.0710162460 0.0207587890 1 0
0.0704147850 0.0211528350 1 0
0.0697552500 0.0206391460 1 0
0.0691039410 0.0194650730 1 0
0.0685282510 0.0179336630 1 0
0.0680847200 0.0163636210 1 0
0.0678073770 0.0150560860 1 0
0.0676995290 0.0142711160 1 0
0.0677313270 0.0142121770 1 0
0.0678430880 0.0150155500 1 0
0.0679526810 0.0167430290 1 0
0.0679646920 0.0193794440 1 0
0.0677794040 0.0228369760 1 0
0.0673013840 0.0269645730 1 0
0.0664493730 0.0315597010 1 1
0.0651680630 0.0363828290 1 1
0.0634383470 0.0411759230 1 1
0.0612798780 0.0456840260 1 1
0.0587432460 0.0496785150 1 1
0.0558963460 0.0529809920 1 1
0.0528123260 0.0554849330 1 1
0.0495623800 0.0571697050 1 1
0.0462118410 0.0581022750 1 1
0.0428174940 0.0584267770 1 1
0.0394261130 0.0583472050 1 1
0.0360746680 0.0581079930 1 1
0.0327909750 0.0579729650 1 1
0.0295930730 0.0582015770 0 1
0.0264877640 0.0590223900 0 1
0.0234712250 0.0606056580 0 1
0.0205331730 0.0630409810 0 1
0.0176619880 0.0663270050 0 1
0.0148471190 0.0703736940 0 1
0.0120785730 0.0750114410 0 1
0.0093458820 0.0800033110 0 1
0.0066376610 0.0850618830 0 1
0.0039416150 0.0898723560 0 1
0.0012467220 0.0941203010 0 1
-0.0014503620 0.0975216250 0 1
-0.0041378030 0.0998527340 0 1
-0.0067872170 0.1009768740 0 1
-0.0093613930 0.1008613950 0 1
-0.0118258860 0.0995831600 0 1
-0.0141563550 0.0973220460 0 1
-0.0163382390 0.0943433010 0 1
-0.0183627200 0.0909709870 0 1
-0.0202254330 0.0875575220 0 1
-0.0219292140 0.0844533910 0 1
-0.0234861700 0.0819755110 0 1
-0.0249152230 0.0803731690 0 1
-0.0262367250 0.0797993230 0 1
-0.0274684540 0.0802965290 0 1
-0.0286255710 0.0817965900 0 1
-0.0297233410 0.0841281010 0 1
-0.0307780950 0.0870320880 -1 1
-0.0318039790 0.0901905550 -1 1
-0.0328095150 0.0932674210 -1 1
-0.0337992680 0.0959514330 -1 1
-0.0347791360 0.0979885060 -1 1
-0.0357589330 0.0992002790 -1 1
-0.0367490970 0.0994931200 -1 1
-0.0377537970 0.0988593110 -1 1
-0.0387642360 0.0973698790 -1 1
-0.0397545950 0.0951617540 -1 1
-0.0406817860 0.0924233550 -1 1
-0.0414897100 0.0893799520 -1 1
-0.0421183850 0.0862786470 -1 1
-0.0425171460 0.0833731110 -1 1
-0.0426583350 0.0809071450 -1 1
-0.0425457480 0.0790934820 -1 1
-0.0422140800 0.0780859120 -1 1
-0.0417207300 0.0779508810 -1 1
-0.0411350260 0.0786501030 -1 1
-0.0405293480 0.0800410170 -1 1
-0.0399724950 0.0818948460 -1 1
-0.0395228420 0.0839302360 -1 1
-0.0392211320 0.0858580240 -1 1
-0.0390862940 0.0874248420 -1 1
-0.0391159000 0.0884396370 -1 1
-0.0392888360 0.0887781940 -1 1
-0.0395674790 0.0883761570 -1 1
-0.0398997760 0.0872236000 -1 1
-0.0402243170 0.0853655700 -1 1
-0.0404806310 0.0829056580 -1 1
-0.0406221820 0.0800063940 -1 1
-0.0406257110 0.0768803300 -1 1
-0.0404923170 0.0737708150 -1 1
-0.0402415130 0.0709274090 -1 1
-0.0399040280 0.0685817380 -1 1
-0.0395177110 0.0669262090 -1 1
-0.0391251460 0.0660944410 -1 1
-0.0387689920 0.0661420510 -1 1
-0.0384845490 0.0670312660 -1 1
-0.0382939440 0.0686275880 -1 1
-0.0382065230 0.0707134260 -1 1
-0.0382251620 0.0730142710 -1 1
-0.0383536340 0.0752287480 -1 1
-0.0386001670 0.0770583330 -1 1
-0.0389744060 0.0782371640 -1 1
-0.0394778790 0.0785608110 -1 1
-0.0400929190 0.0779090550 -1 1
-0.0407780380 0.0762583880 -1 1
-0.0414739980 0.0736847210 -1 1
-0.0421173720 0.0703592510 -1 1
-0.0426542220 0.0665367010 -1 1
-0.0430476870 0.0625323500 -1 1
-0.0432778780 0.0586889500 -1 1
-0.0433371930 0.0553403170 -1 1
-0.0432263490 0.0527773760 -1 1
-0.0429545600 0.0512186050 -1 1
-0.0425424060 0.0507852930 -1 1
-0.0420225880 0.0514839700 -1 1
-0.0414360480 0.0532016580 -1 1
-0.0408258370 0.0557181990 -1 1
-0.0402326730 0.0587340750 -1 1
-0.0396931830 0.0619081050 -1 1
-0.0392388200 0.0648968830 -1 1
-0.0388936770 0.0673885590 -1 1
-0.0386718840 0.0691300780 -1 1
-0.0385761450 0.0699502290 -1 1
-0.0385971240 0.0697762300 -1 1
-0.0387123920 0.0686379770 -1 1
-0.0388856910 0.0666574870 -1 1
-0.0390692060 0.0640277180 -1 1
-0.0392105130 0.0609886310 -1 1
-0.0392636130 0.0578054460 -1 1
-0.0392014110 0.0547480720 -1 1
-0.0390240670 0.0520694750 -1 1
-0.0387570490 0.0499842620 -1 1
-0.0384396100 0.0486507080 -1 1
-0.0381128660 0.0481582010 -1 1
-0.0378147130 0.0485208590 -1 1
-0.0375794830 0.0496776030 -1 1
-0.0374363950 0.0514977950 -1 1
-0.0374050060 0.0537906790 -1 1
-0.0374905760 0.0563187180 -1 1
-0.0376835420 0.0588166830 -1 1
-0.0379654780 0.0610159880 -1 1
-0.0383190830 0.0626708100 -1 1
-0.0387350000 0.0635832040 -1 1
-0.0392096570 0.0636258840 -1 1
-0.0397363250 0.0627597560 -1 1
-0.0402976680 0.0610409550 -1 1
-0.0408651510 0.0586141200 -1 1
-0.0414031320 0.0556947150 -1 1
-0.0418734170 0.0525461560 -1 1
-0.0422396050 0.0494553010 -1 1
-0.0424720520 0.0467073570 -1 1
-0.0425524840 0.0445609790 -1 1
-0.0424769210 0.0432246290 -1 1
-0.0422565300 0.0428362740 -1 1
-0.0419159930 0.0434489330 -1 1
-0.0414900480 0.0450220950 -1 1
-0.0410213570 0.0474183170 -1 1
-0.0405613250 0.0504088090 -1 1
-0.0401700370 0.0536925630 -1 1
-0.0399100470 0.0569273870 -1 1
-0.0398338660 0.0597668500 -1 1
-0.0399701560 0.0618981630 -1 1
-0.0403146710 0.0630775390 -1 1
-0.0408298230 0.0631588830 -1 1
-0.0414526730 0.0621113220 -1 1
-0.0421072600 0.0600234130 -1 1
-0.0427161930 0.0570939770 -1 1
-0.0432081480 0.0536097350 -1 1
-0.0435207910 0.0499119300 -1 1
-0.0436027300 0.0463576070 -1 1
-0.0434192420 0.0432818320 -1 1
-0.0429609450 0.0409648840 -1 1
-0.0422490780 0.0396063520 -1 1
-0.0413336130 0.0393062920 -1 1
-0.0402869140 0.0400535220 -1 1
-0.0391975270 0.0417243070 -1 1
-0.0381647380 0.0440964070 -1 1
-0.0372905300 0.0468790670 -1 1
-0.0366666430 0.0497522190 -1 1
-0.0363591560 0.0524045380 -1 1
-0.0363964280 0.0545632780 -1 1
-0.0367653590 0.0560152160 -1 1
-0.0374167580 0.0566218770 -1 1
-0.0382763570 0.0563300810 -1 1
-0.0392565860 0.0551746540 -1 1
-0.0402661240 0.0532710660 -1 1
-0.0412171910 0.0507998450 -1 1
-0.0420319300 0.0479864790 -1 1
-0.0426488460 0.0450800930 -1 1
-0.0430292260 0.0423328900 -1 1
-0.0431620500 0.0399810130 -1 1
-0.0430647260 0.0382262780 -1 1
-0.0427781530 0.0372179780 -1 1
-0.0423580510 0.0370363080 -1 1
-0.0418668450 0.0376814740 -1 1
-0.0413685040 0.0390714330 -1 1
-0.0409250390 0.0410472890 -1 1
-0.0405922600 0.0433852810 -1 1
-0.0404134920 0.0458174610 -1 1
-0.0404116910 0.0480608970 -1 1
-0.0405840480 0.0498493850 -1 1
-0.0409050900 0.0509620690 -1 1
-0.0413384610 0.0512460070 -1 1
-0.0418487030 0.0506301840 -1 1
-0.0424044740 0.0491312250 -1 1
-0.0429737500 0.0468530950 -1 1
-0.0435181590 0.0439802370 -1 1
-0.0439923150 0.0407623120 -1 1
-0.0443493930 0.0374917220 -1 1
-0.0445503110 0.0344759460 -1 1
-0.0445722610 0.0320052230 -1 1
-0.0444129240 0.0303185350 -1 1
-0.0440888870 0.0295752170 -1 0
-0.0436295520 0.0298383170 -1 0
-0.0430703320 0.0310707790 -1 1
-0.0424492480 0.0331428720 -1 1
-0.0418076280 0.0358490420 -1 1
-0.0411909900 0.0389304700 -1 1
-0.0406454330 0.0420984140 -1 1
-0.0402094940 0.0450563850 -1 1
-0.0399064730 0.0475220930 -1 1
-0.0397413180 0.0492495460 -1 1
-0.0397015550 0.0500509750 -1 1
-0.0397601390 0.0498178360 -1 1
-0.0398798130 0.0485369530 -1 1
-0.0400197450 0.0462953810 -1 1
-0.0401436660 0.0432716610 -1 1
-0.0402260990 0.0397180020 -1 1
-0.0402539460 0.0359387370 -1 1
-0.0402245860 0.0322649180 -1 1
-0.0401432570 0.0290230320 -1 0
-0.0400209590 0.0265002460 -1 0
-0.0398736350 0.0249124620 -1 0
-0.0397236250 0.0243813820 -1 0
-0.0396018610 0.0249244380 -1 0
-0.0395468570 0.0264580060 -1 0
-0.0395984000 0.0288115550 -1 0
-0.0397878270 0.0317487610 -1 1
-0.0401287790 0.0349902380 -1 1
-0.0406117270 0.0382347620 -1 1
-0.0412037960 0.0411816200 -1 1
-0.0418542200 0.0435577100 -1 1
-0.0425040520 0.0451464430 -1 1
-0.0430969750 0.0458109810 -1 1
-0.0435882290 0.0455080510 -1 1
-0.0439497550 0.0442924310 -1 1
-0.0441698930 0.0423099050 -1 1
-0.0442477720 0.0397770830 -1 1
-0.0441864180 0.0369538760 -1 1
-0.0439900440 0.0341173910 -1 1
-0.0436672950 0.0315398680 -1 1
-0.0432370530 0.0294666470 -1 0
-0.0427321070 0.0280914520 -1 0
-0.0421990150 0.0275344100 -1 0
-0.0416956440 0.0278310580 -1 0
-0.0412868710 0.0289325490 -1 0
-0.0410368410 0.0307113080 -1 1
-0.0409983320 0.0329715870 -1 1
-0.0412033860 0.0354682680 -1 1
-0.0416590550 0.0379323250 -1 1
-0.0423489250 0.0400981320 -1 1
-0.0432385020 0.0417307690 -1 1
-0.0442811220 0.0426519260 -1 1
-0.0454214800 0.0427598400 -1 1
-0.0465976060 0.0420398940 -1 1
-0.0477442240 0.0405661380 -1 1
-0.0487966330 0.0384926690 -1 1
-0.0496916940 0.0360333260 -1 1
-0.0503669170 0.0334336230 -1 1
-0.0507623910 0.0309421100 -1 1
-0.0508278460 0.0287846520 -1 0
-0.0505329130 0.0271424820 -1 0
-0.0498771600 0.0261362530 -1 0
-0.0488968400 0.0258185550 -1 0
-0.0476653820 0.0261755190 -1 0
-0.0462853810 0.0271363910 -1 0
-0.0448729410 0.0285872480 -1 0
-0.0435391030 0.0303828520 -1 1
-0.0423740010 0.0323535870 -1 1
-0.0414375200 0.0343105430 -1 1
-0.0407583240 0.0360549130 -1 1
-0.0403408230 0.0373946440 -1 1
-0.0401744520 0.0381650870 -1 1
-0.0402366870 0.0382480490 -1 1
-0.0404885710 0.0375858940 -1 1
-0.0408729130 0.0361902400 -1 1
-0.0413246630 0.0341466070 -1 1
-0.0417900600 0.0316148120 -1 1
-0.0422428710 0.0288213490 -1 0
-0.0426901960 0.0260402040 -1 0
-0.0431681840 0.0235630660 -1 0
-0.0437313240 0.0216651760 -1 0
-0.0444392410 0.0205733260 -1 0
-0.0453444020 0.0204386730 -1 0
-0.0464835200 0.0213156880 -1 0
-0.0478738760 0.0231509780 -1 0
-0.0495129630 0.0257864580 -1 0
-0.0513787360 0.0289778630 -1 0
-0.0534304220 0.0324243010 -1 1
-0.0556116930 0.0358020120 -1 1
-0.0578562360 0.0387970080 -1 1
-0.0600937050 0.0411341490 -1 1
-0.0622549290 0.0426018110 -1 1
-0.0642766540 0.0430713410 -1 1
-0.0661056250 0.0425099350 -1 1
-0.0677004450 0.0409854160 -1 1
-0.0690304460 0.0386617620 -1 1
-0.0700735250 0.0357845280 -1 1
-0.0708162750 0.0326555410 -1 1
-0.0712571720 0.0295984110 -1 0
-0.0714097240 0.0269207740 -1 0
-0.0713025430 0.0248812060 -1 0
-0.0709773000 0.0236648000 -1 0
-0.0704871800 0.0233670180 -1 0
-0.0698955700 0.0239856970 -1 0
-0.0692726950 0.0254229330 -1 0
-0.0686897980 0.0274981780 -1 0
-0.0682135720 0.0299711710 -1 0
-0.0679037450 0.0325701600 -1 1
-0.0678118570 0.0350207550 -1 1
-0.0679748400 0.0370728140 -1 1
-0.0684019810 0.0385236580 -1 1
-0.0690637970 0.0392361270 -1 1
-0.0698921330 0.0391508720 -1 1
-0.0707914340 0.0382915520 -1 1
-0.0716545040 0.0367598420 -1 1
-0.0723778030 0.0347196070 -1 1
-0.0728752300 0.0323744970 -1 1
-0.0730896830 0.0299447540 -1 0
-0.0730001050 0.0276479310 -1 0
-0.0726217550 0.0256859740 -1 0
-0.0719996310 0.0242371110 -1 0
-0.0711975150 0.0234478740 -1 0
-0.0702863870 0.0234213510 -1 0
-0.0693354040 0.0242015890 -1 0
-0.0684062640 0.0257589430 -1 0
-0.0675491500 0.0279829920 -1 0
-0.0667984740 0.0306857960 -1 1
-0.0661690840 0.0336137320 -1 1
-0.0656559390 0.0364672370 -1 1
-0.0652407540 0.0389300400 -1 1
-0.0649050330 0.0407062940 -1 1
-0.0646424580 0.0415591340 -1 1
-0.0644631920 0.0413434160 -1 1
-0.0643889250 0.0400268200 -1 1
-0.0644422010 0.0376956050 -1 1
-0.0646342620 0.0345459240 -1 1
-0.0649562020 0.0308643840 -1 1
-0.0653765670 0.0269996840 -1 0
-0.0658431970 0.0233269230 -1 0
-0.0662854890 0.0202095580 -1 0
-0.0666193740 0.0179637410 -1 0
-0.0667616390 0.0168257690 -1 0
-0.0666533980 0.0169237270 -1 0
-0.0662807380 0.0182585010 -1 0
-0.0656795850 0.0206996100 -1 0
-0.0649242520 0.0239974000 -1 0
-0.0641095220 0.0278099690 -1 0
-0.0633341740 0.0317417090 -1 1
-0.0626869430 0.0353886630 -1 1
-0.0622333070 0.0383836920 -1 1
-0.0620042370 0.0404339150 -1 1
-0.0619916530 0.0413464550 -1 1
-0.0621540100 0.0410430930 -1 1
-0.0624296330 0.0395652170 -1 1
-0.0627517960 0.0370683570 -1 1
-0.0630612950 0.0338055830 -1 1
-0.0633157470 0.0301017490 -1 1
-0.0634953340 0.0263222470 -1 0
-0.0636031310 0.0228392430 -1 0
-0.0636592370 0.0199978130 -1 0
-0.0636920190 0.0180843680 -1 0
-0.0637309350 0.0172992040 -1 0
-0.0638024980 0.0177351770 -1 0
-0.0639284030 0.0193660040 -1 0
-0.0641244030 0.0220485370 -1 0
-0.0643989300 0.0255403640 -1 0
-0.0647521980 0.0295285740 -1 0
-0.0651775270 0.0336625870 -1 1
-0.0656644290 0.0375849140 -1 1
-0.0662012330 0.0409566330 -1 1
-0.0667765740 0.0434792940 -1 1
-0.0673802330 0.0449181540 -1 1
-0.0680025080 0.0451270940 -1 1
-0.0686306350 0.0440689660 -1 1
-0.0692426160 0.0418253200 -1 1
-0.0698015410 0.0385927340 -1 1
-0.0702553730 0.0346651470 -1 1
-0.0705466200 0.0304035230 -1 1
-0.0706307620 0.0261956920 -1 0
-0.0704943180 0.0224115800 -1 0
-0.0701618480 0.0193621310 -1 0
-0.0696890130 0.0172699000 -1 0
-0.0691475960 0.0162547640 -1 0
-0.0686102120 0.0163325040 -1 0
-0.0681384920 0.0174206800 -1 0
-0.0677761090 0.0193487040 -1 0
-0.0675475670 0.0218739100 -1 0
-0.0674610570 0.0247055820 -1 0
-0.0675113210 0.0275347450 -1 0
-0.0676803560 0.0300648680 -1 1
-0.0679370140 0.0320394780 -1 1
-0.0682379050 0.0332650040 -1 1
-0.0685314410 0.0336285250 -1 1
-0.0687649800 0.0331089380 -1 1
-0.0688931180 0.0317786150 -1 1
-0.0688849230 0.0297940500 -1 0
-0.0687281070 0.0273771400 -1 0
-0.0684287140 0.0247900090 -1 0
-0.0680068060 0.0223060660 -1 0
-0.0674908400 0.0201810510 -1 0
-0.0669133150 0.0186281820 -1 0
-0.0663080530 0.0177996080 -1 0
-0.0657079760 0.0177746690 -1 0
-0.0651429730 0.0185550390 -1 0
-0.0646388810 0.0200659340 -1 0
-0.0642181630 0.0221627580 -1 0
-0.0639011040 0.0246442560 -1 0
-0.0637050300 0.0272722770 -1 0
-0.0636398360 0.0297947270 -1 0
-0.0637016190 0.0319672340 -1 1
-0.0638687000 0.0335709930 -1 1
-0.0641025630 0.0344270710 -1 1
-0.0643531260 0.0344104230 -1 1
-0.0645667580 0.0334667600 -1 1
-0.0646951520 0.0316296800 -1 1
-0.0647024210 0.0290302790 -1 0
-0.0645688190 0.0258934660 -1 0
-0.0642915940 0.0225202750 -1 0
-0.0638841560 0.0192578380 -1 0
-0.0633739700 0.0164605280 -1 0
-0.0627991740 0.0144471450 -1 0
-0.0622045650 0.0134589330 -1 0
-0.0616378040 0.0136252740 -1 0
-0.0611456450 0.0149458760 -1 0
-0.0607693130 0.0172936540 -1 0
-0.0605396510 0.0204345200 -1 0
-0.0604735780 0.0240565140 -1 0
-0.0605722110 0.0278027870 -1 0
-0.0608210010 0.0313071580 -1 1
-0.0611932380 0.0342314840 -1 1
-0.0616564410 0.0362999620 -1 1
-0.0621786370 0.0373242540 -1 1
-0.0627316430 0.0372178500 -1 1
-0.0632894960 0.0360011440 -1 1
-0.0638225880 0.0337978310 -1 1
-0.0642924450 0.0308230410 -1 1
-0.0646531390 0.0273642350 -1 0
-0.0648604140 0.0237555900 -1 0
-0.0648837110 0.0203463560 -1 0
-0.0647147600 0.0174652020 -1 0
-0.0643693760 0.0153849950 -1 0
-0.0638832510 0.0142937910 -1 0
-0.0633044470 0.0142766080 -1 0
-0.0626853440 0.0153107710 -1 0
-0.0620762770 0.0172753250 -1 0
-0.0615224120 0.0199704160 -1 0
-0.0610637300 0.0231388770 -1 0
-0.0607359000 0.0264868550 -1 0
-0.0605693120 0.0297076350 -1 0
-0.0605848570 0.0325101670 -1 1
-0.0607875390 0.0346462440 -1 1
-0.0611616600 0.0359309700 -1 1
-0.0616704450 0.0362571510 -1 1
-0.0622594700 0.0356048580 -1 1
-0.0628628250 0.0340432370 -1 1
-0.0634130220 0.0317216900 -1 1
-0.0638546110 0.0288527070 -1 0
-0.0641570580 0.0256911260 -1 0
-0.0643201570 0.0225127050 -1 0
-0.0643694390 0.0195924890 -1 0
-0.0643459840 0.0171822050 -1 0
-0.0642966080 0.0154859030 -1 0
-0.0642665670 0.0146349960 -1 0
-0.0642942420 0.0146680800 -1 0
-0.0644079330 0.0155234090 -1 0
-0.0646250240 0.0170473240 -1 0
-0.0649521920 0.0190150160 -1 0
-0.0653850750 0.0211586480 -1 0
-0.0659078970 0.0231991590 -1 0
-0.0664951320 0.0248769790 -1 0
-0.0671157650 0.0259771640 -1 0
-0.0677377610 0.0263486350 -1 0
-0.0683301080 0.0259188250 -1 0
-0.0688622880 0.0247013200 -1 0
-0.0693029390 0.0227931950 -1 0
-0.0696196040 0.0203642010 -1 0
-0.0697807000 0.0176421990 -1 0
-0.0697595100 0.0148938380 -1 0
-0.0695389780 0.0123971740 -1 0
-0.0691158720 0.0104089350 -1 0
-0.0685026460 0.0091342460 -1 0
-0.0677261630 0.0087047630 -1 0
-0.0668243790 0.0091665000 -1 0
-0.0658428850 0.0104764310 -1 0
-0.0648314150 0.0125079350 -1 0
-0.0638394890 0.0150653340 -1 0
-0.0629126340 0.0179048140 -1 0
-0.0620921470 0.0207573420 -1 0
-0.0614179340 0.0233521710 -1 0
-0.0609295120 0.0254422740 -1 0
-0.0606611890 0.0268296100 -1 0
-0.0606324260 0.0273836960 -1 0
-0.0608382810 0.0270504010 -1 0
-0.0612450420 0.0258541060 -1 0
-0.0617932980 0.0238957580 -1 0
-0.0624066740 0.0213461890 -1 0
-0.0630029160 0.0184348420 -1 0
-0.0635054530 0.0154334350 -1 0
-0.0638542670 0.0126306400 -1 0
-0.0640135910 0.0102976650 -1 0
-0.0639741920 0.0086546920 -1 0
-0.0637510010 0.0078485650 -1 0
-0.0633780650 0.0079425280 -1 0
-0.0629012870 0.0089149530 -1 0
-0.0623700300 0.0106666800 -1 0
-0.0618309510 0.0130348680 -1 0
-0.0613261400 0.0158080460 -1 0
-0.0608938320 0.0187402020 -1 0
-0.0605684120 0.0215668540 -1 0
-0.0603773700 0.0240260230 -1 0
-0.0603351530 0.0258829910 -1 0
-0.0604371350 0.0269545210 -1 0
-0.0606579280 0.0271296890 -1 0
-0.0609552480 0.0263863000 -1 0
-0.0612770250 0.0247984140 -1 0
-0.0615689090 0.0225288060 -1 0
-0.0617810510 0.0198074980 -1 0
-0.0618740030 0.0169043230 -1 0
-0.0618230460 0.0141012380 -1 0
-0.0616202270 0.0116657580 -1 0
-0.0612743890 0.0098269630 -1 0
-0.0608099250 0.0087558010 -1 0
-0.0602641760 0.0085507530 -1 0
-0.0596833470 0.0092309700 -1 0
-0.0591179350 0.0107390030 -1 0
-0.0586181470 0.0129512360 -1 0
-0.0582282950 0.0156904640 -1 0
-0.0579807650 0.0187377060 -1 0
-0.0578926840 0.0218449550 -1 0
-0.0579668670 0.0247503080 -1 0
-0.0581953230 0.0271955080 -1 0
-0.0585626040 0.0289469440 -1 0
-0.0590467810 0.0298208320 -1 0
-0.0596177420 0.0297096370 -1 0
-0.0602355610 0.0286034400 -1 0
-0.0608524980 0.0265996940 -1 0
-0.0614192400 0.0238967490 -1 0
-0.0618926640 0.0207705910 -1 0
-0.0622420420 0.0175405430 -1 0
-0.0624526640 0.0145332770 -1 0
-0.0625273900 0.0120503790 -1 0
-0.0624863190 0.0103387400 -1 0
-0.0623637990 0.0095642720 -1 0
-0.0622020070 0.0097936110 -1 0
-0.0620423390 0.0109871760 -1 0
-0.0619177260 0.0130047390 -1 0
-0.0618482350 0.0156251950 -1 0
-0.0618407150 0.0185768380 -1 0
-0.0618918730 0.0215655070 -1 0
-0.0619921250 0.0242928770 -1 0
-0.0621272980 0.0264729630 -1 0
-0.0622787760 0.0278583830 -1 0
-0.0624248330 0.0282750190 -1 0
-0.0625430980 0.0276524000 -1 0
-0.0626114040 0.0260382150 -1 0
-0.0626069040 0.0235941730 -1 0
-0.0625065540 0.0205776580 -1 0
-0.0622901920 0.0173136300 -1 0
-0.0619441530 0.0141584170 -1 0
-0.0614637640 0.0114584020 -1 0
-0.0608551650 0.0095104770 -1 0
-0.0601373090 0.0085304720 -1 0
-0.0593432570 0.0086320410 -1 0
-0.0585180690 0.0098175290 -1 0
-0.0577129440 0.0119811800 -1 0
-0.0569795150 0.0149211570 -1 0
-0.0563672170 0.0183571620 -1 0
-0.0559215770 0.0219556050 -1 0
-0.0556798250 0.0253634240 -1 0
-0.0556638260 0.0282452290 -1 0
-0.0558739340 0.0303171550 -1 1
-0.0562857250 0.0313754450 -1 1
-0.0568476480 0.0313187920 -1 1
-0.0574802730 0.0301604600 -1 1
-0.0580836650 0.0280273960 -1 0
-0.0585564380 0.0251477340 -1 0
-0.0588184050 0.0218273060 -1 0
-0.0588235770 0.0184137600 -1 0
-0.0585587430 0.0152522630 -1 0
-0.0580350310 0.0126442280 -1 0
-0.0572824380 0.0108187290 -1 0
-0.0563499720 0.0099173550 -1 0
-0.0553070650 0.0099886410 -1 0
-0.0542415400 0.0109893220 -1 0
-0.0532526840 0.0127908340 -1 0
-0.0524402190 0.0151905160 -1 0
-0.0518906340 0.0179287720 -1 0
-0.0516629710 0.0207131140 -1 0
-0.0517775020 0.0232466670 -1 0
-0.0522115960 0.0252565210 -1 0
-0.0529047620 0.0265192900 -1 0
-0.0537709540 0.0268836080 -1 0
-0.0547138850 0.0262877590 -1 0
-0.0556406820 0.0247683230 -1 0
-0.0564706280 0.0224576720 -1 0
-0.0571390720 0.0195713260 -1 0
-0.0575987220 0.0163867310 -1 0
-0.0578205090 0.0132148560 -1 0
-0.0577953140 0.0103668590 -1 0
-0.0575356740 0.0081199540 -1 0
-0.0570747700 0.0066883490 -1 0
-0.0564618220 0.0062038450 -1 0
-0.0557561430 0.0067066530 -1 0
-0.0550224640 0.0081455280 -1 0
-0.0543278850 0.0103866060 -1 0
-0.0537382260 0.0132283150 -1 0
-0.0533114530 0.0164183960 -1 0
-0.0530886440 0.0196722820 -1 0
-0.0530858400 0.0226953200 -1 0
-0.0532910060 0.0252092860 -1 0
-0.0536686230 0.0269799020 -1 0
-0.0541705780 0.0278411720 -1 0
-0.0547479250 0.0277126490 -1 0
-0.0553563710 0.0266067830 -1 0
-0.0559519830 0.0246265890 -1 0
-0.0564818950 0.0219559360 -1 0
-0.0568802780 0.0188439540 -1 0
-0.0570769290 0.0155843110 -1 0
-0.0570162690 0.0124900520 -1 0
-0.0566766490 0.0098648910 -1 0
-0.0560801110 0.0079730570 -1 0
-0.0552890650 0.0070117840 -1 0
-0.0543921610 0.0070902550 -1 0
-0.0534851520 0.0082164990 -1 0
-0.0526538550 0.0102937140 -1 0
-0.0519645350 0.0131292110 -1 0
-0.0514628640 0.0164567640 -1 0
-0.0511777950 0.0199677010 -1 0
-0.0511238860 0.0233453750 -1 0
-0.0512987750 0.0263002960 -1 0
-0.0516792500 0.0286004980 -1 0
-0.0522217230 0.0300881020 -1 1
-0.0528689190 0.0306793250 -1 1
-0.0535598430 0.0303562060 -1 1
-0.0542382880 0.0291601290 -1 0
-0.0548566860 0.0271906150 -1 0
-0.0553757300 0.0246062180 -1 0
-0.0557631670 0.0216208250 -1 0
-0.0559945740 0.0184897470 -1 0
-0.0560552530 0.0154856750 -1 0
-0.0559399190 0.0128692690 -1 0
-0.0556489910 0.0108601280 -1 0
-0.0551841870 0.0096139320 -1 0
-0.0545470170 0.0092092750 -1 0
-0.0537410990 0.0096420370 -1 0
-0.0527767580 0.0108227790 -1 0
-0.0516755450 0.0125783990 -1 0
-0.0504718910 0.0146649920 -1 0
-0.0492095690 0.0167953730 -1 0
-0.0479341130 0.0186756740 -1 0
-0.0466858220 0.0200419680 -1 0
-0.0454965660 0.0206914680 -1 0
-0.0443895850 0.0205063140 -1 0
-0.0433803050 0.0194673940 -1 0
-0.0424770690 0.0176550570 -1 0
-0.0416801020 0.0152370510 -1 0
-0.0409781830 0.0124480740 -1 0
-0.0403466280 0.0095643520 -1 0
-0.0397508960 0.0068748840 -1 0
-0.0391547290 0.0046523330 -1 0
-0.0385277460 0.0031267050 -1 0
-0.0378494070 0.0024624410 -1 0
-0.0371100420 0.0027398930 -1 0
-0.0363108350 0.0039448350 -1 0
-0.0354639070 0.0059685830 -1 0
-0.0345921440 0.0086174780 -1 0
-0.0337276780 0.0116301460 -1 0
-0.0329083320 0.0147017410 -1 0
-0.0321716840 0.0175123870 -1 0
-0.0315476660 0.0197578330 -1 0
-0.0310533070 0.0211837690 -1 0
-0.0306930000 0.0216205480 -1 0
-0.0304629210 0.0210058160 -1 0
-0.0303543960 0.0193854560 -1 0
-0.0303531440 0.0168982010 -1 0
-0.0304369920 0.0137565200 -1 0
-0.0305770460 0.0102281480 -1 0
-0.0307438080 0.0066149790 -1 0
-0.0309146690 0.0032278670 -1 0
-0.0310776430 0.0003591910 -1 0
-0.0312291410 -0.0017439400 -1 0
-0.0313677960 -0.0029024750 -1 0
-0.0314882250 -0.0030219290 -1 0
-0.0315788460 -0.0021024010 -1 0
-0.0316267570 -0.0002414860 -1 0
-0.0316279120 0.0023722080 -1 0
-0.0315945740 0.0054756760 -1 0
-0.0315521450 0.0087560260 -1 0
-0.0315257150 0.0118807130 -1 0
-0.0315253410 0.0145322960 -1 0
-0.0315400230 0.0164448400 -1 0
-0.0315431510 0.0174370300 -1 0
-0.0315045010 0.0174354470 -1 0
-0.0314016190 0.0164811490 -1 0
-0.0312255570 0.0147187760 -1 0
-0.0309797460 0.0123742420 -1 0
-0.0306744130 0.0097253830 -1 0
-0.0303203220 0.0070667660 -1 0
-0.0299239400 0.0046734730 0 0
-0.0294846420 0.0027716790 0 0
-0.0289960340 0.0015202540 0 0
-0.0284530370 0.0010023930 0 0
-0.0278609080 0.0012256340 0 0
-0.0272399190 0.0021296940 0 0
-0.0266240040 0.0035992440 0 0
-0.0260557500 0.0054772810 0 0
-0.0255792660 0.0075776780 0 0
-0.0252317940 0.0096983080 0 0
-0.0250370820 0.0116357690 0 0
-0.0250044840 0.0132011650 0 0
-0.0251339420 0.0142354330 0 0
-0.0254206780 0.0146225010 0 0
-0.0258528760 0.0142988910 0 0
-0.0264036490 0.0132599760 0 0
-0.0270262150 0.0115637570 0 0
-0.0276594830 0.0093309290 0 0
-0.0282422990 0.0067381640 0 0
-0.0287277340 0.0040041100 0 0
-0.0290897700 0.0013717400 0 0
-0.0293215770 -0.0009104640 0 0
-0.0294302070 -0.0026105450 0 0
-0.0294320030 -0.0035391880 0 0
-0.0293492220 -0.0035747200 0 0
-0.0292071020 -0.0026803860 0 0
-0.0290316000 -0.0009118850 0 0
-0.0288480440 0.0015840730 0 0
-0.0286800910 0.0045812070 0 0
-0.0285483890 0.0077960980 0 0
-0.0284690270 0.0109183610 0 0
-0.0284521240 0.0136423670 0 0
-0.0285005860 0.0156959650 0 0
-0.0286089380 0.0168654550 0 0
-0.0287632010 0.0170177150 0 0
-0.0289433700 0.0161178920 0 0
-0.0291278690 0.0142371360 0 0
-0.0292972550 0.0115463320 0 0
-0.0294359830 0.0082984630 0 0
-0.0295334000 0.0048050600 0 0
-0.0295851390 0.0014086040 0 0
-0.0295957810 -0.0015495000 0 0
-0.0295821780 -0.0037631990 0 0
-0.0295733580 -0.0049940110 0 0
-0.0296029460 -0.0050981940 0 0
-0.0296963890 -0.0040467310 0 0
-0.0298609750 -0.0019348480 0 0
-0.0300847290 0.0010228360 -1 0
-0.0303429000 0.0045146010 -1 0
-0.0306056220 0.0081706000 -1 0
-0.0308417480 0.0116110870 -1 0
-0.0310191850 0.0144929910 -1 0
-0.0311057350 0.0165466350 -1 0
-0.0310738470 0.0175983210 -1 0
-0.0309088890 0.0175775010 -1 0
-0.0306169450 0.0165110480 -1 0
-0.0302270380 0.0145106500 -1 0
-0.0297846780 0.0117589460 0 0
-0.0293382380 0.0084961090 0 0
-0.0289242940 0.0050049060 0 0
-0.0285590350 0.0015912460 0 0
-0.0282384520 -0.0014416010 0 0
-0.0279440380 -0.0038239670 0 0
-0.0276496380 -0.0053505400 0 0
-0.0273284840 -0.0059028020 0 0
-0.0269608880 -0.0054578830 0 0
-0.0265412890 -0.0040847800 0 0
-0.0260828280 -0.0019321770 0 0
-0.0256190300 0.0007884060 0 0
-0.0252021440 0.0038214770 0 0
-0.0248961620 0.0068879310 0 0
-0.0247632330 0.0097083390 0 0
-0.0248470670 0.0120285200 0 0
-0.0251603010 0.0136441250 0 0
-0.0256794420 0.0144218670 0 0
-0.0263459470 0.0143153530 0 0
-0.0270722120 0.0133715340 0 0
-0.0277538750 0.0117254300 0 0
-0.0282878530 0.0095850360 0 0
-0.0285899250 0.0072091930 0 0
-0.0286048720 0.0048808410 0 0
-0.0283086070 0.0028793090 0 0
-0.0277067590 0.0014543100 0 0
-0.0268330840 0.0008016970 0 0
-0.0257475490 0.0010414060 0 0
-0.0245323300 0.0022007760 0 0
-0.0232846900 0.0042075440 0 0
-0.0221072280 0.0068953630 0 0
-0.0210965050 0.0100218540 0 0
-0.0203310070 0.0132957700 0 0
-0.0198607520 0.0164081320 0 0
-0.0197024660 0.0190633640 0 0
-0.0198424880 0.0210078650 0 0
-0.0202446460 0.0220542200 0 0
-0.0208573300 0.0220995870 0 0
-0.0216172020 0.0211361990 0 0
-0.0224522840 0.0192516430 0 0
-0.0232877050 0.0166188680 0 0
-0.0240538050 0.0134789640 0 0
-0.0246937040 0.0101204480 0 0
-0.0251681560 0.0068565030 0 0
-0.0254581000 0.0039987940 0 0
-0.0255657520 0.0018269160 0 0
-0.0255132680 0.0005566250 0 0
-0.0253379780 0.0003136150 0 0
-0.0250855330 0.0011186740 0 0
-0.0248030140 0.0028861600 0 0
-0.0245328120 0.0054349020 0 0
-0.0243077740 0.0085091330 0 0
-0.0241485500 0.0118059930 0 0
-0.0240633260 0.0150053390 0 0
-0.0240491050 0.0177980200 0 0
-0.0240935790 0.0199109140 0 0
-0.0241768860 0.0211288150 0 0
-0.0242731640 0.0213133160 0 0
-0.0243523720 0.0204179580 0 0
-0.0243818110 0.0184977440 0 0
-0.0243267160 0.0157097460 0 0
-0.0241518950 0.0123016930 0 0
-0.0238273590 0.0085883930 0 0
-0.0233381420 0.0049193470 0 0
-0.0226948550 0.0016423030 0 0
-0.0219389880 -0.0009329750 0 0
-0.0211386750 -0.0025668230 0 0
-0.0203765370 -0.0031139340 0 0
-0.0197347140 -0.0025373270 0 0
-0.0192805900 -0.0009111150 0 0
-0.0190549740 0.0015882420 0 0
-0.0190654750 0.0047015080 0 0
-0.0192880800 0.0081140200 0 0
-0.0196765450 0.0114858060 0 0
-0.0201754200 0.0144809180 0 0
-0.0207319960 0.0167970180 0 0
-0.0213039790 0.0181975170 0 0
-0.0218619690 0.0185428430 0 0
-0.0223889490 0.0178111220 0 0
-0.0228798320 0.0161000620 0 0
-0.0233416580 0.0136100600 0 0
-0.0237930430 0.0106154270 0 0
-0.0242621560 0.0074309590 0 0
-0.0247839500 0.0043782360 0 0
-0.0253969530 0.0017555080 0 0
-0.0261385840 -0.0001855850 0 0
-0.0270391200 -0.0012568250 0 0
-0.0281178020 -0.0013467090 0 0
-0.0293844420 -0.0004318060 0 0
-0.0308447380 0.0014164340 -1 0
-0.0325040780 0.0040362400 -1 0
-0.0343669440 0.0071961770 -1 0
-0.0364330550 0.0106278950 -1 0
-0.0386928150 0.0140607520 -1 0
-0.0411239960 0.0172487900 -1 0
-0.0436907990 0.0199860210 -1 0
-0.0463460290 0.0221135310 -1 0
-0.0490359440 0.0235254650 -1 0
-0.0517049760 0.0241760290 -1 0
-0.0542973970 0.0240834710 -1 0
-0.0567569260 0.0233281550 -1 0
-0.0590284100 0.0220471910 -1 0
-0.0610638680 0.0204283460 -1 0
-0.0628308200 0.0187008120 -1 0
-0.0643184760 0.0171178340 -1 0
-0.0655387080 0.0159303310 -1 0
-0.0665213670 0.0153566810 -1 0
-0.0673058370 0.0155556430 -1 0
-0.0679325600 0.0166069760 -1 0
-0.0684374930 0.0185013090 -1 0
-0.0688495410 0.0211390690 -1 0
-0.0691903990 0.0243376320 -1 0
-0.0694778430 0.0278461980 -1 0
-0.0697327030 0.0313683970 -1 1
-0.0699860260 0.0345926120 -1 1
-0.0702812310 0.0372278750 -1 1
-0.0706690930 0.0390388930 -1 1
-0.0711965540 0.0398721750 -1 1
-0.0718916030 0.0396700640 -1 1
-0.0727497780 0.0384753810 -1 1
-0.0737308870 0.0364288890 -1 1
-0.0747693270 0.0337574190 -1 1
-0.0757915690 0.0307515850 -1 1
-0.0767311520 0.0277370950 -1 0
-0.0775366150 0.0250435560 -1 0
-0.0781732210 0.0229714480 -1 0
-0.0786210680 0.0217593520 -1 0
-0.0788722680 0.0215562610 -1 0
-0.0789296770 0.0224030300 -1 0
-0.0788082020 0.0242252640 -1 0
-0.0785362520 0.0268389420 -1 0
-0.0781533210 0.0299686800 -1 0
-0.0777032210 0.0332782750 -1 1
-0.0772275780 0.0364133830 -1 1
-0.0767640640 0.0390509680 -1 1
-0.0763481440 0.0409423490 -1 1
-0.0760129900 0.0419383350 -1 1
-0.0757842990 0.0419950680 -1 1
-0.0756720750 0.0411645730 -1 1
-0.0756650210 0.0395736050 -1 1
-0.0757317400 0.0373962460 -1 1
-0.0758274100 0.0348298910 -1 1
-0.0759018890 0.0320826920 -1 1
-0.0759084590 0.0293709630 -1 0
-0.0758140510 0.0269179880 -1 0
-0.0756086750 0.0249482940 -1 0
-0.0753104020 0.0236743360 -1 0
-0.0749641340 0.0232717690 -1 0
-0.0746334970 0.0238458240 -1 0
-0.0743866790 0.0254025020 -1 0
-0.0742805510 0.0278371050 -1 0
-0.0743491930 0.0309404320 -1 1
-0.0745995510 0.0344181840 -1 1
-0.0750127010 0.0379227570 -1 1
-0.0755489980 0.0410958160 -1 1
-0.0761570900 0.0436148430 -1 1
-0.0767850710 0.0452349470 -1 1
-0.0773884860 0.0458178280 -1 1
-0.0779313270 0.0453427620 -1 1
-0.0783827720 0.0439009890 -1 1
-0.0787154940 0.0416789630 -1 1
-0.0789071380 0.0389355600 -1 1
-0.0789426850 0.0359783000 -1 1
-0.0788173830 0.0331403000 -1 1
-0.0785412490 0.0307511060 -1 1
-0.0781420470 0.0290955110 -1 0
-0.0776626200 0.0283700870 -1 0
-0.0771540500 0.0286554700 -1 0
-0.0766684210 0.0299107100 -1 0
-0.0762522860 0.0319836310 -1 1
-0.0759420370 0.0346324090 -1 1
-0.0757637830 0.0375576080 -1 1
-0.0757373120 0.0404414940 -1 1
-0.0758789390 0.0429874390 -1 1
-0.0761979240 0.0449510740 -1 1
-0.0766873450 0.0461567770 -1 1
-0.0773164360 0.0464994210 -1 1
-0.0780305430 0.0459386190 -1 1
-0.0787584450 0.0444940920 -1 1
-0.0794229560 0.0422457080 -1 1
-0.0799523890 0.0393360100 -1 1
-0.0802930800 0.0359703900 -1 1
-0.0804211350 0.0324100700 -1 1
-0.0803474980 0.0289540600 -1 0
-0.0801121810 0.0259090200 -1 0
-0.0797704120 0.0235514890 -1 0
-0.0793765370 0.0220914340 -1 0
-0.0789702810 0.0216460780 -1 0
-0.0785708250 0.0222298420 -1 0
-0.0781830510 0.0237602820 -1 0
-0.0778122060 0.0260731800 -1 0
-0.0774767470 0.0289398520 -1 0
-0.0772114000 0.0320866140 -1 1
-0.0770590430 0.0352197730 -1 1
-0.0770555450 0.0380549300 -1 1
-0.0772137160 0.0403443310 -1 1
-0.0775118180 0.0418961140 -1 1
-0.0778918520 0.0425836230 -1 1
-0.0782707670 0.0423495600 -1 1
-0.0785613120 0.0412117050 -1 1
-0.0786950900 0.0392702640 -1 1
-0.0786406610 0.0367099420 -1 1
-0.0784084600 0.0337886740 -1 1
-0.0780362450 0.0308093150 -1 1
-0.0775621070 0.0280802010 -1 0
-0.0770041060 0.0258766920 -1 0
-0.0763593660 0.0244121860 -1 0
-0.0756187580 0.0238206170 -1 0
-0.0747845850 0.0241487730 -1 0
-0.0738813600 0.0253552060 -1 0
-0.0729569220 0.0273139010 -1 0
-0.0720766600 0.0298248080 -1 0
-0.0713144640 0.0326336650 -1 1
-0.0707420510 0.0354590260 -1 1
-0.0704168170 0.0380219570 -1 1
-0.0703690180 0.0400747990 -1 1
-0.0705920170 0.0414251320 -1 1
-0.0710410100 0.0419509060 -1 1
-0.0716422300 0.0416069830 -1 1
-0.0723085480 0.0404279100 -1 1
-0.0729539550 0.0385287110 -1 1
-0.0735020800 0.0360984090 -1 1
-0.0738913360 0.0333817490 -1 1
-0.0740822420 0.0306523880 -1 1
-0.0740655240 0.0281845020 -1 0
-0.0738627280 0.0262265680 -1 0
-0.0735160480 0.0249778570 -1 0
-0.0730749570 0.0245686190 -1 0
-0.0725881630 0.0250463290 -1 0
-0.0720996550 0.0263695140 -1 0
-0.0716424890 0.0284096490 -1 0
-0.0712296940 0.0309623090 -1 1
-0.0708489100 0.0337680580 -1 1
-0.0704674050 0.0365405900 -1 1
-0.0700473150 0.0389971940 -1 1
-0.0695630430 0.0408860880 -1 1
-0.0690120130 0.0420077740 -1 1
-0.0684166660 0.0422309400 -1 1
-0.0678191330 0.0415037200 -1 1
-0.0672691780 0.0398598250 -1 1
-0.0668092770 0.0374186930 -1 1
-0.0664638540 0.0343784890 -1 1
-0.0662357720 0.0310002680 -1 1
-0.0661082450 0.0275833660 -1 0
-0.0660494220 0.0244357140 -1 0
-0.0660175210 0.0218435900 -1 0
-0.0659656790 0.0200432630 -1 0
-0.0658481930 0.0191957970 -1 0
-0.0656314520 0.0193668180 -1 0
-0.0653089440 0.0205149510 -1 0
-0.0649115480 0.0224934840 -1 0
-0.0645018590 0.0250671770 -1 0
-0.0641519510 0.0279416400 -1 0
-0.0639188100 0.0307996960 -1 1
-0.0638335200 0.0333382530 -1 1
-0.0639061510 0.0352995970 -1 1
-0.0641343860 0.0364929650 -1 1
-0.0645049660 0.0368067930 -1 1
-0.0649892520 0.0362160980 -1 1
-0.0655406520 0.0347874150 -1 1
-0.0660973660 0.0326765730 -1 1
-0.0665910230 0.0301118070 -1 1
-0.0669630660 0.0273629980 -1 0
-0.0671847080 0.0247082500 -1 0
-0.0672673230 0.0224086330 -1 0
-0.0672551150 0.0206924240 -1 0
-0.0672060440 0.0197424950 -1 0
-0.0671719720 0.0196809850 -1 0
-0.0671837140 0.0205516330 -1 0
-0.0672419320 0.0223059150 -1 0
-0.0673161690 0.0247999890 -1 0
-0.0673573330 0.0278052920 -1 0
-0.0673224720 0.0310309280 -1 1
-0.0671969060 0.0341543540 -1 1
-0.0669975330 0.0368570220 -1 1
-0.0667580240 0.0388617270 -1 1
-0.0665101770 0.0399666260 -1 1
-0.0662725360 0.0400680990 -1 1
-0.0660500420 0.0391663820 -1 1
-0.0658437360 0.0373567650 -1 1
-0.0656603170 0.0348154520 -1 1
-0.0655078940 0.0317842020 -1 1
-0.0653814290 0.0285499660 -1 0
-0.0652587190 0.0254179460 -1 0
-0.0651169350 0.0226836960 -1 0
-0.0649541070 0.0206097640 -1 0
-0.0647950130 0.0194071680 -1 0
-0.0646801720 0.0192203360 -1 0
-0.0646501130 0.0201146620 -1 0
-0.0647317340 0.0220654610 -1 0
-0.0649293780 0.0249497390 -1 0
-0.0652268020 0.0285469140 -1 0
-0.0656016960 0.0325535080 -1 1
-0.0660434080 0.0366109010 -1 1
-0.0665610990 0.0403424370 -1 1
-0.0671751530 0.0433955160 -1 1
-0.0678948840 0.0454820570 -1 1
-0.0686966510 0.0464103580 -1 1
-0.0695191700 0.0461050690 -1 1
-0.0702803250 0.0446152590 -1 1
-0.0709021180 0.0421102700 -1 1
-0.0713265620 0.0388622650 -1 1
-0.0715183390 0.0352167620 -1 1
-0.0714636150 0.0315559070 -1 1
-0.0711731290 0.0282590190 -1 0
-0.0706864810 0.0256630580 -1 0
-0.0700697650 0.0240263090 -1 0
-0.0694046980 0.0235008100 -1 0
-0.0687738400 0.0241187380 -1 0
-0.0682470560 0.0257936110 -1 0
-0.0678720970 0.0283332740 -1 0
-0.0676702310 0.0314617040 -1 1
-0.0676367730 0.0348481890 -1 1
-0.0677455020 0.0381426000 -1 1
-0.0679551720 0.0410142840 -1 1
-0.0682160920 0.0431886550 -1 1
-0.0684766560 0.0444725970 -1 1
-0.0686919410 0.0447643270 -1 1
-0.0688343630 0.0440531340 -1 1
-0.0689009160 0.0424163140 -1 1
-0.0689107830 0.0400140100 -1 1
-0.0688934860 0.0370789250 -1 1
-0.0688739740 0.0338989030 -1 1
-0.0688615610 0.0307910230 -1 1
-0.0688463620 0.0280678590 -1 0
-0.0688033350 0.0260008100 -1 0
-0.0687011720 0.0247874160 -1 0
-0.0685120890 0.0245288030 -1 0
-0.0682197600 0.0252215240 -1 0
-0.0678247610 0.0267640180 -1 0
-0.0673471230 0.0289730210 -1 0
-0.0668246660 0.0316043350 -1 1
-0.0663068950 0.0343760600 -1 1
-0.0658471210 0.0369943610 -1 1
-0.0654959870 0.0391796430 -1 1
-0.0652964420 0.0406906530 -1 1
-0.0652777130 0.0413467300 -1 1
-0.0654478320 0.0410479050 -1 1
-0.0657877110 0.0397888160 -1 1
-0.0662505370 0.0376616800 -1 1
-0.0667679580 0.0348470290 -1 1
-0.0672615180 0.0315945490 -1 1
-0.0676561700 0.0281981000 -1 0
-0.0678923980 0.0249695760 -1 0
-0.0679342270 0.0222149470 -1 0
-0.0677724720 0.0202114220 -1 0
-0.0674242960 0.0191819460 -1 0
-0.0669292560 0.0192674420 -1 0
-0.0663409420 0.0205035160 -1 0
-0.0657154380 0.0228089860 -1 0
-0.0651005330 0.0259888740 -1 0
-0.0645287830 0.0297509370 -1 0
-0.0640151420 0.0337351510 -1 1
-0.0635592660 0.0375548780 -1 1
-0.0631524430 0.0408436200 -1 1
-0.0627870360 0.0432980420 -1 1
-0.0624636400 0.0447101060 -1 1
-0.0621917030 0.0449845640 -1 1
-0.0619835950 0.0441407230 -1 1
-0.0618467750 0.0423015640 -1 1
-0.0617795640 0.0396755720 -1 1
-0.0617717590 0.0365336940 -1 1
-0.0618065800 0.0331814950 -1 1
-0.0618612450 0.0299298780 -1 0
-0.0619076790 0.0270697690 -1 0
-0.0619164520 0.0248525470 -1 0
-0.0618654810 0.0234755410 -1 0
-0.0617510620 0.0230712650 -1 0
-0.0615944150 0.0236969700 -1 0
-0.0614379430 0.0253239620 -1 0
-0.0613328630 0.0278323680 -1 0
-0.0613257530 0.0310164420 -1 1
-0.0614499120 0.0346006910 -1 1
-0.0617221480 0.0382656280 -1 1
-0.0621429590 0.0416807440 -1 1
-0.0626981300 0.0445398870 -1 1
-0.0633603780 0.0465952360 -1 1
-0.0640913120 0.0476875300 -1 1
-0.0648455930 0.0477673520 -1 1
-0.0655770390 0.0469012630 -1 1
-0.0662424940 0.0452614650 -1 1
-0.0668008560 0.0431017800 -1 1
-0.0672105240 0.0407230620 -1 1
-0.0674303550 0.0384333100 -1 1
-0.0674255740 0.0365122020 -1 1
-0.0671766390 0.0351884710 -1 1
-0.0666874940 0.0346300200 -1 1
-0.0659894470 0.0349403020 -1 1
-0.0651385020 0.0361549450 -1 1
-0.0642069460 0.0382364320 -1 1
-0.0632725940 0.0410688040 -1 1
-0.0624092280 0.0444586330 -1 1
-0.0616794890 0.0481498690 -1 1
-0.0611292270 0.0518539960 -1 1
-0.0607826690 0.0552876830 -1 1
-0.0606403230 0.0582069490 -1 1
-0.0606821150 0.0604299570 -1 1
-0.0608744030 0.0618460650 -1 1
-0.0611761610 0.0624152870 -1 1
-0.0615419020 0.0621652460 -1 1
-0.0619224210 0.0611893280 -1 1
-0.0622644980 0.0596461350 -1 1
-0.0625106600 0.0577585560 -1 1
-0.0626020940 0.0558076460 -1 1
-0.0624873850 0.0541148060 -1 1
-0.0621347820 0.0530097830 -1 1
-0.0615417380 0.0527881700 -1 1
-0.0607375330 0.0536659880 -1 1
-0.0597793010 0.0557417220 -1 1
-0.0587432820 0.0589778570 -1 1
-0.0577128630 0.0632089660 -1 1
-0.0567660860 0.0681729720 -1 1
-0.0559659200 0.0735546960 -1 1
-0.0553551720 0.0790282140 -1 1
-0.0549554720 0.0842878400 -1 1
-0.0547688010 0.0890666560 -1 1
-0.0547806560 0.0931477630 -1 1
-0.0549637550 0.0963727440 -1 1
-0.0552807090 0.0986498640 -1 1
-0.0556860940 0.0999636400 -1 1
-0.0561306840 0.1003847040 -1 1
-0.0565684780 0.1000742270 -1 1
-0.0569625820 0.0992763780 -1 1
-0.0572855850 0.0982985990 -1 1
-0.0575153870 0.0974831970 -1 1
-0.0576315000 0.0971688370 -1 1
-0.0576152300 0.0976426510 -1 1
-0.0574532360 0.0990975070 -1 1
-0.0571420510 0.1016108450 -1 1
-0.0566917420 0.1051446910 -1 1
-0.0561281600 0.1095559490 -1 1
-0.0554938080 0.1146124720 -1 1
-0.0548467260 0.1200172830 -1 1
-0.0542558490 0.1254405270 -1 1
-0.0537909150 0.1305537270 -1 1
-0.0535076540 0.1350613170 -1 1
-0.0534331250 0.1387286960 -1 1
-0.0535556810 0.1414087350 -1 1
-0.0538205540 0.1430663950 -1 1
-0.0541321120 0.1437940460 -1 1
-0.0543654230 0.1438041730 -1 1
-0.0543871160 0.1433922890 -1 1
-0.0540812020 0.1428814610 -1 1
-0.0533738910 0.1425721680 -1 1
-0.0522514610 0.1427132850 -1 1
-0.0507651690 0.1434930370 -1 1
-0.0490196500 0.1450404250 -1 1
-0.0471477430 0.1474286200 -1 1
-0.0452814000 0.1506749450 -1 1
-0.0435292700 0.1547364050 -1 1
-0.0419654930 0.1595043850 -1 1
-0.0406269450 0.1648045510 -1 1
-0.0395146820 0.1704071730 -1 1
-0.0385993320 0.1760484530 -1 1
-0.0378323030 0.1814577860 -1 1
-0.0371617280 0.1863848580 -1 1
-0.0365473930 0.1906250980 -1 1
-0.0359676020 0.1940454270 -1 1
-0.0354150440 0.1966087210 -1 1
-0.0348856130 0.1983883620 -1 1
-0.0343682990 0.1995624480 -1 1
-0.0338418450 0.2003855030 -1 1
-0.0332775090 0.2011475080 -1 1
-0.0326432880 0.2021341130 -1 1
-0.0319058250 0.2035962530 -1 1
-0.0310303210 0.2057298090 -1 1
-0.0299823390 0.2086622300 0 1
-0.0287341620 0.2124441700 0 1
-0.0272736480 0.2170483730 0 1
-0.0256100270 0.2223801590 0 1
-0.0237723000 0.2282994270 0 1
-0.0218013190 0.2346447580 0 1
-0.0197414060 0.2412465300 0 1
-0.0176365130 0.2479259160 0 1
-0.0155312900 0.2544892450 0 1
-0.0134732220 0.2607279400 0 1
-0.0115111620 0.2664282680 0 1
-0.0096882990 0.2713941730 0 1
-0.0080310230 0.2754854930 0 1
-0.0065377990 0.2786627020 0 1
-0.0051739080 0.2810177900 0 1
-0.0038757750 0.2827750490 0 1
-0.0025635820 0.2842604370 0 1
-0.0011579110 0.2858496940 0 1
0.0004040420 0.2879097760 0 1
0.0021565830 0.2907466620 0 1
0.0041007400 0.2945680700 0 1
0.0062073530 0.2994662070 0 1
0.0084260100 0.3054206130 0 1
0.0106958710 0.3123135930 0 1
0.0129552530 0.3199499340 0 1
0.0151491810 0.3280796300 0 1
0.0172352080 0.3364241740 0 1
0.0191873230 0.3447010130 0 1
0.0209980460 0.3526402970 0 1
0.0226795180 0.3599969580 0 1
0.0242638260 0.3665674090 0 1
0.0258018670 0.3722153940 0 1
0.0273598150 0.3768993080 0 1
0.0290118650 0.3806857090 0 1
0.0308289970 0.3837395160 1 1
0.0328662490 0.3862953840 1 1
0.0351523770 0.3886235390 1 1
0.0376847660 0.3910003890 1 1
0.0404310210 0.3936853710 1 1
0.0433370530 0.3969009880 1 1
0.0463393930 0.4008141720 1 1
0.0493775670 0.4055188710 1 1
0.0524023560 0.4110218430 1 1
0.0553785000 0.4172360340 1 1
0.0582835970 0.4239847760 1 1
0.0611053450 0.4310160530 1 1
0.0638383340 0.4380244760 1 1
0.0664818880 0.4446797020 1 1
0.0690403150 0.4506602750 1 1
0.0715247010 0.4556901380 1 1
0.0739537110 0.4595727650 1 1
0.0763524250 0.4622161100 1 1
0.0787507320 0.4636426730 1 1
0.0811824530 0.4639837150 1 1
0.0836840260 0.4634612380 1 1
0.0862910700 0.4623622720 1 1
0.0890333890 0.4610090270 1 1
0.0919304390 0.4597271880 1 1
0.0949878950 0.4588137710 1 1
0.0981951210 0.4585070390 1 1
0.1015248280 0.4589627590 1 1
0.1049366240 0.4602411290 1 1
0.1083838310 0.4623065950 1 1
0.1118205420 0.4650383770 1 1
0.1152057970 0.4682465410 1 1
0.1185044660 0.4716900570 1 1
0.1216872410 0.4750960210 1 1
0.1247320010 0.4781812610 1 1
0.1276264450 0.4806782310 1 1
0.1303703070 0.4823632080 1 1
0.1329752800 0.4830801160 1 1
0.1354622330 0.4827549730 1 1
0.1378577940 0.4814002080 1 1
0.1401927520 0.4791096640 1 1
0.1425021320 0.4760460030 1 1
0.1448240620 0.4724227830 1 1
0.1471946450 0.4684828120 1 1
0.1496392230 0.4644751160 1 1
0.1521642520 0.4606336460 1 1
0.1547540400 0.4571585780 1 1
0.1573731320 0.4541995050 1 1
0.1599727310 0.4518417420 1 1
0.1624992210 0.4500983750 1 1
0.1649021170 0.4489095020 1 1
0.1671387770 0.4481488070 1 1
0.1691754360 0.4476368450 1 1
0.1709868070 0.4471591680 1 1
0.1725567790 0.4464861310 1 1
0.1738808670 0.4453922170 1 1
0.1749694320 0.4436752920 1 1
0.1758493230 0.4411757820 1 1
0.1765606820 0.4377927490 1 1
0.1771477240 0.4334942620 1 1
0.1776471950 0.4283231930 1 1
0.1780808050 0.4223995280 1 1
0.1784550150 0.4159166920 1 1
0.1787662600 0.4091294840 1 1
0.1790076090 0.4023339860 1 1
0.1791739930 0.3958403050 1 1
0.1792649020 0.3899394990 1 1
0.1792846590 0.3848696150 1 1
0.1792404740 0.3807878260 1 1
0.1791384100 0.3777533240 1 1
0.1789785810 0.3757220450 1 1
0.1787523090 0.3745524520 1 1
0.1784434640 0.3740204810 1 1
0.1780335960 0.3738411830 1 1
0.1775076390 0.3736956880 1 1
0.1768570060 0.3732626940 1 1
0.1760792880 0.3722512050 1 1
0.1751757300 0.3704285160 1 1
0.1741486340 0.3676390370 1 1
0.1730006370 0.3638147140 1 1
0.1717362820 0.3589801330 1 1
0.1703649820 0.3532526050 1 1
0.1689038620 0.3468359650 1 1
0.1673785200 0.3400073520 1 1
0.1658210380 0.3330947960 1 1
0.1642667160 0.3264437820 1 1
0.1627501130 0.3203771780 1 1
0.1612996810 0.3151571770 1 1
0.1599324730 0.3109550790 1 1
0.1586520270 0.3078315350 1 1
0.1574502230 0.3057295180 1 1
0.1563115790 0.3044807660 1 1
0.1552180740 0.3038240340 1 1
0.1541526100 0.3034333570 1 1
0.1531005020 0.3029538370 1 1
0.1520503240 0.3020400860 1 1
0.1509953730 0.3003924370 1 1
0.1499354690 0.2977883500 1 1
0.1488779610 0.2941058760 1 1
0.1478371850 0.2893341700 1 1
0.1468325880 0.2835693450 1 1
0.1458865870 0.2769998480 1 1
0.1450228280 0.2698863420 1 1
0.1442640990 0.2625384990 1 1
0.1436289290 0.2552896100 1 1
0.1431275710 0.2484684040 1 1
0.1427589690 0.2423675240 1 1
0.1425091320 0.2372116140 1 1
0.1423503490 0.2331310350 1 1
0.1422412280 0.2301463660 1 1
0.1421284230 0.2281662760 1 1
0.1419507500 0.2269994430 1 1
0.1416459640 0.2263787740 1 1
0.1411596010 0.2259927210 1 1
0.1404534330 0.2255173200 1 1
0.1395108740 0.2246458320 1 1
0.1383383280 0.2231160440 1 1
0.1369634770 0.2207338700 1 1
0.1354317940 0.2173899330 1 1
0.1338015560 0.2130674010 1 1
0.1321369760 0.2078414850 1 1
0.1304999250 0.2018713670 1 1
0.1289422740 0.1953850920 1 1
0.1275019310 0.1886582270 1 1
0.1262035680 0.1819887800 1 1
0.1250615410 0.1756722620 1 1
0.1240825690 0.1699788770 1 1
0.1232686120 0.1651316970 1 1
0.1226208660 0.1612847300 1 1
0.1221424570 0.1585034510 1 1
0.1218348140 0.1567532380 1 1
0.1216861680 0.1559000210 1 1
0.1216584420 0.1557233910 1 1
0.1216826460 0.1559385520 1 1
0.1216682510 0.1562227000 1 1
0.1215228100 0.1562435510 1 1
0.1211722300 0.1556898820 1 1
0.1205738060 0.1543036400 1 1
0.1197206020 0.1519110180 1 1
0.1186399530 0.1484470130 1 1
0.1173880090 0.1439666530 1 1
0.1160403490 0.1386386770 1 1
0.1146802340 0.1327233530 1 1
0.1133877570 0.1265403370 1 1
0.1122316450 0.1204319180 1 1
0.1112632120 0.1147258190 1 1
0.1105115110 0.1097025400 1 1
0.1099794340 0.1055712820 1 1
0.1096419640 0.1024554350 1 1
0.1094489660 0.1003869890 1 1
0.1093338410 0.0993084490 1 1
0.1092263110 0.0990795190 1 1
0.1090653130 0.0994873070 1 1
0.1088079210 0.1002626630 1 1
0.1084322520 0.1011051070 1 1
0.1079355550 0.1017143680 1 1
0.1073308570 0.1018236960 1 1
0.1066442780 0.1012299880 1 1
0.1059127500 0.0998159580 1 1
0.1051808160 0.0975598520 1 1
0.1044954940 0.0945305690 1 1
0.1038995360 0.0908710590 1 1
0.1034250620 0.0867763280 1 1
0.1030903240 0.0824711110 1 1
0.1029003950 0.0781895880 1 1
0.1028485670 0.0741575280 1 1
0.1029153410 0.0705758370 1 1
0.1030683630 0.0676050660 1 1
0.1032683430 0.0653523200 1 1
0.1034778020 0.0638621350 1 1
0.1036648810 0.0631118160 1 1
0.1038011540 0.0630119050 1 1
0.1038593070 0.0634128370 1 1
0.1038149170 0.0641168020 1 1
0.1036510230 0.0648921960 1 1
0.1033622300 0.0654908840 1 1
0.1029560500 0.0656711000 1 1
0.1024507900 0.0652256110 1 1
0.1018716980 0.0640088830 1 1
0.1012485700 0.0619563540 1 1
0.1006159090 0.0590938300 1 1
0.1000129910 0.0555378250 1 1
0.0994806240 0.0514861040 1 1
0.0990551080 0.0471975770 1 1
0.0987627410 0.0429636880 1 1
0.0986163970 0.0390760930 1 1
0.0986135720 0.0357959180 1 1
0.0987359130 0.0333285120 1 1
0.0989505710 0.0318054140 1 1
0.0992133240 0.0312735220 1 1
0.0994739120 0.0316909180 1 1
0.0996836220 0.0329299400 1 1
0.0998025820 0.0347887620 1 1
0.0998030470 0.0370103800 1 1
0.0996682540 0.0393054220 1 1
0.0993913910 0.0413763690 1 1
0.0989791170 0.0429426070 1 1
0.0984577080 0.0437651270 1 1
0.0978750480 0.0436684560 1 1
0.0972942600 0.0425578530 1 1
0.0967806180 0.0404312430 1 1
0.0963867460 0.0373848380 1 1
0.0961414850 0.0336094680 1 1
0.0960461700 0.0293756910 1 0
0.0960792620 0.0250094090 1 0
0.0962075760 0.0208613890 1 0
0.0963993670 0.0172727040 1 0
0.0966329760 0.0145372900 1 0
0.0968982780 0.0128647720 1 0
0.0971936260 0.0123500560 1 0
0.0975221900 0.0129575790 1 0
0.0978884090 0.0145253700 1 0
0.0982923170 0.0167878520 1 0
0.0987212660 0.0194111780 1 0
0.0991442830 0.0220343560 1 0
0.0995154390 0.0243112930 1 0
0.0997850860 0.0259488720 1 0
0.0999109740 0.0267351040 1 0
0.0998643030 0.0265531800 1 0
0.0996328700 0.0253825370 1 0
0.0992244990 0.0232924190 1 0
0.0986704080 0.0204327470 1 0
0.0980257410 0.0170232910 1 0
0.0973638270 0.0133388390 1 0
0.0967634920 0.0096879380 1 0
0.0962949170 0.0063853540 1 0
0.0960113980 0.0037200780 1 0
0.0959478100 0.0019209330 1 0
0.0961196960 0.0011255820 1 0
0.0965187470 0.0013628150 1 0
0.0971080340 0.0025527370 1 0
0.0978238190 0.0045195280 1 0
0.0985858400 0.0070100140 1 0
0.0993100460 0.0097166300 1 0
0.0999169260 0.0123052570 1 0
0.1003361290 0.0144459590 1 0
0.1005126510 0.0158441280 1 0
0.1004154750 0.0162704610 1 0
0.1000448130 0.0155858410 1 0
0.0994348320 0.0137558460 1 0
0.0986505910 0.0108539350 1 0
0.0977785970 0.0070554670 1 0
0.0969121620 0.0026220480 1 0
0.0961354270 -0.0021237500 1 0
0.0955107270 -0.0068290100 1 0
0.0950721070 -0.0111423080 1 0
0.0948259330 -0.0147451900 1 0
0.0947574670 -0.0173819780 1 0
0.0948391770 -0.0188855170 1 0
0.0950359260 -0.0191946750 1 0
0.0953057720 -0.0183598830 1 0
0.0955994240 -0.0165375180 1 0
0.0958628360 -0.0139753850 1 0
0.0960450780 -0.0109888000 1 0
0.0961095330 -0.0079276650 1 0
0.0960436730 -0.0051393670 1 0
0.0958626480 -0.0029335770 1 0
0.0956049100 -0.0015527010 1 0
0.0953218410 -0.0011499040 1 0
0.0950656220 -0.0017761250 1 0
0.0948790780 -0.0033761070 1 0
0.0947891590 -0.0057929800 1 0
0.0948046070 -0.0087841270 1 0
0.0949177980 -0.0120514030 1 0
0.0951097530 -0.0152809630 1 0
0.0953571470 -0.0181808230 1 0
0.0956401850 -0.0205078380 1 0
0.0959483580 -0.0220852330 1 0
0.0962802210 -0.0228155890 1 0
0.0966361940 -0.0226899590 1 0
0.0970081640 -0.0217882890 1 0
0.0973718710 -0.0202658370 1 0
0.0976855700 -0.0183270390 1 0
0.0978943780 -0.0161963180 1 0
0.0979380700 -0.0140954940 1 0
0.0977605460 -0.0122302510 1 0
0.0973200370 -0.0107831060 1 0
0.0965996640 -0.0099100040 1 0
0.0956167750 -0.0097358140 1 0
0.0944273330 -0.0103426290 1 0
0.0931215000 -0.0117510480 1 0
0.0918096920 -0.0139038260 1 0
0.0906027570 -0.0166625580 1 0
0.0895928010 -0.0198196540 1 0
0.0888405900 -0.0231195930 1 0
0.0883719830 -0.0262838960 1 0
0.0881827060 -0.0290391950 1 0
0.0882482120 -0.0311485930 1 -1
0.0885323830 -0.0324421410 1 -1
0.0889902710 -0.0328384700 1 -1
0.0895665950 -0.0323520050 1 -1
0.0901955890 -0.0310863830 1 -1
0.0908059340 -0.0292186300 1 0
0.0913304050 -0.0269791250 1 0
0.0917164470 -0.0246304470 1 0
0.0919331200 -0.0224449370 1 0
0.0919726870 -0.0206801390 1 0
0.0918491480 -0.0195532780 1 0
0.0915954030 -0.0192158550 1 0
0.0912566380 -0.0197304730 1 0
0.0908789860 -0.0210579900 1 0
0.0904994450 -0.0230628660 1 0
0.0901430980 -0.0255327090 1 0
0.0898256560 -0.0282020060 1 0
0.0895565380 -0.0307792210 1 -1
0.0893425300 -0.0329829040 1 -1
0.0891928860 -0.0345828650 1 -1
0.0891224470 -0.0354321460 1 -1
0.0891489070 -0.0354798300 1 -1
0.0892850700 -0.0347662790 1 -1
0.0895304360 -0.0334080540 1 -1
0.0898664540 -0.0315784610 1 -1
0.0902577250 -0.0294872700 1 0
0.0906582010 -0.0273621940 1 0
0.0910192100 -0.0254336750 1 0
0.0912968620 -0.0239219050 1 0
0.0914581870 -0.0230226140 1 0
0.0914851200 -0.0228891070 1 0
0.0913753600 -0.0236128230 1 0
0.0911411070 -0.0252088510 1 0
0.0908074840 -0.0276106790 1 0
0.0904098400 -0.0306725230 1 -1
0.0899883700 -0.0341774710 1 -1
0.0895820290 -0.0378540730 1 -1
0.0892254770 -0.0414031880 1 -1
0.0889488750 -0.0445305440 1 -1
0.0887767260 -0.0469762620 1 -1
0.0887242130 -0.0485356560 1 -1
0.0887940750 -0.0490735480 1 -1
0.0889774620 -0.0485384150 1 -1
0.0892582790 -0.0469773940 1 -1
0.0896169970 -0.0445440160 1 -1
0.0900302120 -0.0414894960 1 -1
0.0904659050 -0.0381369150 1 -1
0.0908792160 -0.0348451340 1 -1
0.0912149750 -0.0319692990 1 -1
0.0914178290 -0.0298214300 1 0
0.0914443050 -0.0286341330 1 0
0.0912716970 -0.0285343630 1 0
0.0909031600 -0.0295339300 1 0
0.0903683920 -0.0315354210 1 -1
0.0897180820 -0.0343466600 1 -1
0.0890139590 -0.0376996120 1 -1
0.0883197030 -0.0412745580 1 -1
0.0876962100 -0.0447320200 1 -1
0.0872007810 -0.0477510330 1 -1
0.0868862670 -0.0500659180 1 -1
0.0867951320 -0.0514924930 1 -1
0.0869481290 -0.0519399190 1 -1
0.0873337430 -0.0514106560 1 -1
0.0879056630 -0.0499940120 1 -1
0.0885912880 -0.0478559200 1 -1
0.0893074940 -0.0452234760 1 -1
0.0899745090 -0.0423638780 1 -1
0.0905212580 -0.0395600430 1 -1
0.0908846540 -0.0370848530 1 -1
0.0910102670 -0.0351762740 1 -1
0.0908584170 -0.0340171850 1 -1
0.0904134500 -0.0337218320 1 -1
0.0896899770 -0.0343271070 1 -1
0.0887315430 -0.0357869520 1 -1
0.0876040850 -0.0379716820 1 -1
0.0863896090 -0.0406758900 1 -1
0.0851810110 -0.0436362380 1 -1
0.0840750510 -0.0465576200 1 -1
0.0831625780 -0.0491457040 1 -1
0.0825182820 -0.0511410940 1 -1
0.0821925360 -0.0523466240 1 -1
0.0822065430 -0.0526434930 1 -1
0.0825510300 -0.0520000600 1 -1
0.0831879360 -0.0504768770 1 -1
0.0840537370 -0.0482249810 1 -1
0.0850628400 -0.0454732720 1 -1
0.0861118340 -0.0425061560 1 -1
0.0870879820 -0.0396366750 1 -1
0.0878834810 -0.0371798550 1 -1
0.0884121640 -0.0354275180 1 -1
0.0886226440 -0.0346215130 1 -1
0.0885028000 -0.0349226990 1 -1
0.0880745670 -0.0363813430 1 -1
0.0873845040 -0.0389216630 1 -1
0.0864986340 -0.0423485610 1 -1
0.0855039290 -0.0463729200 1 -1
0.0845092340 -0.0506452240 1 -1
0.0836364720 -0.0547903080 1 -1
0.0830005290 -0.0584423190 1 -1
0.0826852570 -0.0612802150 1 -1
0.0827266280 -0.0630613050 1 -1
0.0831098670 -0.0636477660 1 -1
0.0837785250 -0.0630202850 1 -1
0.0846485870 -0.0612762220 1 -1
0.0856229680 -0.0586152190 1 -1
0.0866045750 -0.0553162320 1 -1
0.0875067100 -0.0517086570 1 -1
0.0882611920 -0.0481405120 1 -1
0.0888249360 -0.0449455560 1 -1
0.0891829600 -0.0424107920 1 -1
0.0893459200 -0.0407492820 1 -1
0.0893440950 -0.0400848390 1 -1
0.0892195250 -0.0404505180 1 -1
0.0890158650 -0.0417962870 1 -1
0.0887691080 -0.0439988810 1 -1
0.0885048310 -0.0468700350 1 -1
0.0882412180 -0.0501641010 1 -1
0.0879914660 -0.0535891940 1 -1
0.0877630830 -0.0568261570 1 -1
0.0875577720 -0.0595571910 1 -1
0.0873749710 -0.0615026570 1 -1
0.0872170010 -0.0624605810 1 -1
0.0870915290 -0.0623394860 1 -1
0.0870093700 -0.0611749370 1 -1
0.0869780900 -0.0591252800 1 -1
0.0869930430 -0.0564486850 1 -1
0.0870302350 -0.0534674420 1 -1
0.0870464350 -0.0505258170 1 -1
0.0869881140 -0.0479477860 1 -1
0.0868062650 -0.0460019780 1 -1
0.0864722950 -0.0448798960 1 -1
0.0859888350 -0.0446876890 1 -1
0.0853899420 -0.0454463030 1 -1
0.0847303990 -0.0470947000 1 -1
0.0840702890 -0.0494946120 1 -1
0.0834628820 -0.0524388900 1 -1
0.0829504220 -0.0556664410 1 -1
0.0825661970 -0.0588841380 1 -1
0.0823370050 -0.0617935630 1 -1
0.0822821560 -0.0641206050 1 -1
0.0824105390 -0.0656449010 1 -1
0.0827187950 -0.0662234710 1 -1
0.0831913710 -0.0658041920 1 -1
0.0838015840 -0.0644301300 1 -1
0.0845119520 -0.0622382730 1 -1
0.0852730230 -0.0594521810 1 -1
0.0860237650 -0.0563637800 1 -1
0.0866975030 -0.0533017260 1 -1
0.0872328000 -0.0505909990 1 -1
0.0875846450 -0.0485136940 1 -1
0.0877315630 -0.0472795770 1 -1
0.0876776740 -0.0470090880 1 -1
0.0874533990 -0.0477269640 1 -1
0.0871177190 -0.0493631560 1 -1
0.0867568360 -0.0517583870 1 -1
0.0864712590 -0.0546755120 1 -1
0.0863522230 -0.0578217050 1 -1
0.0864566330 -0.0608826580 1 -1
0.0867905370 -0.0635606580 1 -1
0.0873082770 -0.0656059680 1 -1
0.0879271680 -0.0668373760 1 -1
0.0885487400 -0.0671537210 1 -1
0.0890770930 -0.0665395600 1 -1
0.0894327860 -0.0650662950 1 -1
0.0895656020 -0.0628875990 1 -1
0.0894649350 -0.0602278730 1 -1
0.0891611190 -0.0573633300 1 -1
0.0887149310 -0.0545962410 1 -1
0.0882006160 -0.0522253300 1 -1
0.0876898720 -0.0505166920 1 -1
0.0872401600 -0.0496771740 1 -1
0.0868868290 -0.0498304760 1 -1
0.0866393130 -0.0509993390 1 -1
0.0864841860 -0.0530997690 1 -1
0.0863951340 -0.0559506060 1 -1
0.0863449700 -0.0592968280 1 -1
0.0863156910 -0.0628414420 1 -1
0.0863060290 -0.0662783770 1 -1
0.0863339880 -0.0693193490 1 -1
0.0864297810 -0.0717136000 1 -1
0.0866206620 -0.0732648600 1 -1
0.0869182130 -0.0738476160 1 -1
0.0873188090 -0.0734190680 1 -1
0.0878164180 -0.0720230630 1 -1
0.0884141050 -0.0697864530 1 -1
0.0891199020 -0.0669098720 1 -1
0.0899268620 -0.0636532720 1 -1
0.0907925300 -0.0603155060 1 -1
0.0916342050 -0.0572081690 1 -1
0.0923441120 -0.0546259970 1 -1
0.0928155820 -0.0528171870 1 -1
0.0929676950 -0.0519562910 1 -1
0.0927613200 -0.0521230880 1 -1
0.0922065190 -0.0532920980 1 -1
0.0913637460 -0.0553336720 1 -1
0.0903390480 -0.0580244680 1 -1
0.0892697490 -0.0610683960 1 -1
0.0882986910 -0.0641301770 1 -1
0.0875454760 -0.0668772830 1 -1
0.0870888850 -0.0690208550 1 -1
0.0869637590 -0.0703486120 1 -1
0.0871627610 -0.0707473360 1 -1
0.0876376800 -0.0702131340 1 -1
0.0883063540 -0.0688472270 1 -1
0.0890694120 -0.0668381740 1 -1
0.0898297260 -0.0644354600 1 -1
0.0905045410 -0.0619204330 1 -1
0.0910281040 -0.0595785900 1 -1
0.0913498940 -0.0576748310 1 -1
0.0914347120 -0.0564316740 1 -1
0.0912680400 -0.0560098890 1 -1
0.0908646870 -0.0564920690 1 -1
0.0902737710 -0.0578717370 1 -1
0.0895740620 -0.0600512980 1 -1
0.0888601200 -0.0628502220 1 -1
0.0882249970 -0.0660223510 1 -1
0.0877460650 -0.0692800390 1 -1
0.0874772630 -0.0723228510 1 -1
0.0874454490 -0.0748674990 1 -1
0.0876472260 -0.0766738290 1 -1
0.0880476320 -0.0775637020 1 -1
0.0885850960 -0.0774346310 1 -1
0.0891826310 -0.0762702220 1 -1
0.0897600130 -0.0741456050 1 -1
0.0902416180 -0.0712254760 1 -1
0.0905595750 -0.0677533720 1 -1
0.0906569150 -0.0640300510 1 -1
0.0904948560 -0.0603812600 1 -1
0.0900624720 -0.0571216330 1 -1
0.0893828240 -0.0545242070 1 -1
0.0885113630 -0.0527998230 1 -1
0.0875271300 -0.0520838430 1 -1
0.0865199330 -0.0524263860 1 -1
0.0855766550 -0.0537859760 1 -1
0.0847686430 -0.0560299920 1 -1
0.0841413680 -0.0589452030 1 -1
0.0837082540 -0.0622576220 1 -1
0.0834514210 -0.0656582280 1 -1
0.0833306280 -0.0688326610 1 -1
0.0832977360 -0.0714922490 1 -1
0.0833105200 -0.0734010150 1 -1
0.0833400130 -0.0743963800 1 -1
0.0833695820 -0.0744049650 1 -1
0.0833889980 -0.0734526110 1 -1
0.0833887930 -0.0716652030 1 -1
0.0833570010 -0.0692578500 1 -1
0.0832761220 -0.0665116160 1 -1
0.0831196680 -0.0637395670 1 -1
0.0828519210 -0.0612471290 1 -1
0.0824332560 -0.0592942390 1 -1
0.0818284720 -0.0580685130 1 -1
0.0810142510 -0.0576757320 1 -1
0.0799844090 -0.0581426220 1 -1
0.0787526950 -0.0594183040 1 -1
0.0773521620 -0.0613693880 1 -1
0.0758314000 -0.0637814850 1 -1
0.0742505340 -0.0663815780 1 -1
0.0726782680 -0.0688770570 1 -1
0.0711870990 -0.0709933190 1 -1
0.0698445340 -0.0724990530 1 -1
0.0687032540 -0.0732230560 1 -1
0.0677947270 -0.0730694460 1 -1
0.0671268370 -0.0720298270 1 -1
0.0666833910 -0.0701859750 1 -1
0.0664255720 -0.0677011250 1 -1
0.0662971950 -0.0648025760 1 -1
0.0662337020 -0.0617566360 1 -1
0.0661716510 -0.0588361200 1 -1
0.0660544770 -0.0562864140 1 -1
0.0658333940 -0.0543012800 1 -1
0.0654672680 -0.0530144000 1 -1
0.0649271330 -0.0525007820 1 -1
0.0642066940 -0.0527774110 1 -1
0.0633332780 -0.0537996920 1 -1
0.0623705700 -0.0554588670 1 -1
0.0614079960 -0.0575872900 1 -1
0.0605387170 -0.0599735180 1 -1
0.0598353180 -0.0623839040 1 -1
0.0593348610 -0.0645859540 1 -1
0.0590388870 -0.0663691270 1 -1
0.0589228550 -0.0675595200 1 -1
0.0589447300 -0.0680294950 1 -1
0.0590486790 -0.0677096540 1 -1
0.0591689640 -0.0666067070 1 -1
0.0592398110 -0.0648171150 1 -1
0.0592086880 -0.0625225650 1 -1
0.0590444420 -0.0599660500 1 -1
0.0587360160 -0.0574187360 1 -1
0.0582866110 -0.0551476920 1 -1
0.0577100100 -0.0533903520 1 -1
0.0570290950 -0.0523377260 1 -1
0.0562726470 -0.0521233990 1 -1
0.0554709420 -0.0528136500 1 -1
0.0546548910 -0.0543979720 1 -1
0.0538598810 -0.0567821800 1 -1
0.0531290310 -0.0597847060 1 -1
0.0525104360 -0.0631382660 1 -1
0.0520494970 -0.0665063030 1 -1
0.0517815670 -0.0695218480 1 -1
0.0517269380 -0.0718416770 1 -1
0.0518874160 -0.0731996990 1 -1
0.0522459640 -0.0734478840 1 -1
0.0527713410 -0.0725785520 1 -1
0.0534251990 -0.0707240750 1 -1
0.0541665620 -0.0681334000 1 -1
0.0549520690 -0.0651300620 1 -1
0.0557349640 -0.0620618850 1 -1
0.0564664320 -0.0592551270 1 -1
0.0570996520 -0.0569816110 1 -1
0.0575940910 -0.0554386460 1 -1
0.0579188390 -0.0547378770 1 -1
0.0580562810 -0.0549046600 1 -1
0.0580063350 -0.0558912600 1 -1
0.0577879100 -0.0575966580 1 -1
0.0574337460 -0.0598791430 1 -1
0.0569787910 -0.0625569470 1 -1
0.0564494090 -0.0654044090 1 -1
0.0558641020 -0.0681550200 1 -1
0.0552461960 -0.0705185620 1 -1
0.0546314660 -0.0722101890 1 -1
0.0540533700 -0.0729851180 1 -1
0.0535133680 -0.0726772710 1 -1
0.0529654680 -0.0712378690 1 -1
0.0523351020 -0.0687581310 1 -1
0.0515621530 -0.0654617520 1 -1
0.0506383930 -0.0616713380 1 -1
0.0496180750 -0.0577642820 1 -1
0.0486030310 -0.0541289530 1 -1
0.0477154910 -0.0511254600 1 -1
0.0470686390 -0.0490516880 1 -1
0.0467406550 -0.0481125030 1 -1
0.0467576830 -0.0483937080 1 -1
0.0470895680 -0.0498493810 1 -1
0.0476588050 -0.0523086560 1 -1
0.0483621330 -0.0554988930 1 -1
0.0491028400 -0.0590786650 1 -1
0.0498244000 -0.0626770750 1 -1
0.0505270520 -0.0659391440 1 -1
0.0512524190 -0.0685719810 1 -1
0.0520410220 -0.0703758530 1 -1
0.0528876450 -0.0712479030 1 -1
0.0537235500 -0.0711669400 1 -1
0.0544391320 -0.0701796850 1 -1
0.0549321680 -0.0683980520 1 -1
0.0551468370 -0.0660000270 1 -1
0.0550808780 -0.0632221320 1 -1
0.0547690210 -0.0603389700 1 -1
0.0542615720 -0.0576325320 1 -1
0.0536043320 -0.0553560610 1 -1
0.0528215360 -0.0537007130 1 -1
0.0519150540 -0.0527768790 1 -1
0.0508915110 -0.0526170870 1 -1
0.0498017060 -0.0531955820 1 -1
0.0487583420 -0.0544502690 1 -1
0.0479170310 -0.0562920090 1 -1
0.0474362260 -0.0585980860 1 -1
0.0474372130 -0.0612026770 1 -1
0.0479736820 -0.0638990400 1 -1
0.0490163920 -0.0664561940 1 -1
0.0504592600 -0.0686437880 1 -1
0.0521452420 -0.0702576340 1 -1
0.0538992440 -0.0711409920 1 -1
0.0555553520 -0.0712024010 1 -1
0.0569759600 -0.0704331710 1 -1
0.0580664330 -0.0689203780 1 -1
0.0587852270 -0.0668449230 1 -1
0.0591453180 -0.0644603630 1 -1
0.0592036750 -0.0620576300 1 -1
0.0590400550 -0.0599223800 1 -1
0.0587342120 -0.0582931620 1 -1
0.0583550610 -0.0573329030 1 -1
0.0579667450 -0.0571208900 1 -1
0.0576418350 -0.0576585860 1 -1
0.0574651430 -0.0588778790 1 -1
0.0575177070 -0.0606482190 1 -1
0.0578468300 -0.0627863620 1 -1
0.0584438560 -0.0650713940 1 -1
0.0592509580 -0.0672620050 1 -1
0.0601967700 -0.0691124450 1 -1
0.0612327580 -0.0703910720 1 -1
0.0623369950 -0.0709075610 1 -1
0.0634824380 -0.0705444180 1 -1
0.0646013430 -0.0692798760 1 -1
0.0655775240 -0.0671926840 1 -1
0.0662722180 -0.0644476500 1 -1
0.0665706150 -0.0612684460 1 -1
0.0664289220 -0.0579084870 1 -1
0.0658966270 -0.0546271810 1 -1
0.0650997340 -0.0516726290 1 -1
0.0642007860 -0.0492685950 1 -1
0.0633633420 -0.0476025200 1 -1
0.0627280730 -0.0468148870 1 -1
0.0623911980 -0.0469937100 1 -1
0.0623849000 -0.0481707360 1 -1
0.0626705310 -0.0503095860 1 -1
0.0631490540 -0.0532874040 1 -1
0.0636801160 -0.0568855330 1 -1
0.0641002580 -0.0608004870 1 -1
0.0642437210 -0.0646727660 1 -1
0.0639789920 -0.0681253690 1 -1
0.0632641740 -0.0708060200 1 -1
0.0621996640 -0.0724300100 1 -1
0.0610421950 -0.0728190410 1 -1
0.0601568310 -0.0719256180 1 -1
0.0599127270 -0.0698333060 1 -1
0.0605543000 -0.0667359130 1 -1
0.0620967890 -0.0629089220 1 -1
0.0642974890 -0.0586823470 1 -1
0.0667247380 -0.0544164020 1 -1
0.0688931020 -0.0504801490 1 -1
0.0703969220 -0.0472307510 1 -1
0.0709879780 -0.0449861060 1 -1
0.0705902610 -0.0439875690 1 -1
0.0692819120 -0.0443586850 1 -1
0.0672742220 -0.0460725220 1 -1
0.0648849290 -0.0489434950 1 -1
0.0624799570 -0.0526528510 1 -1
0.0603839290 -0.0568000940 1 -1
0.0588025400 -0.0609615380 1 -1
0.0577966370 -0.0647399970 1 -1
0.0573085400 -0.0677993160 1 -1
0.0572182340 -0.0698861690 1 -1
0.0574047850 -0.0708450940 1 -1
0.0577851990 -0.0706312190 1 -1
0.0583110420 -0.0693205840 1 -1
0.0589341070 -0.0671111200 1 -1
0.0595769940 -0.0643029510 1 -1
0.0601342260 -0.0612539800 1 -1
0.0604979540 -0.0583230850 1 -1
0.0605814050 -0.0558231480 1 -1
0.0603210790 -0.0539989060 1 -1
0.0596668090 -0.0530246100 1 -1
0.0585839200 -0.0530034160 1 -1
0.0570740990 -0.0539585180 1 -1
0.0551962220 -0.0558221960 1 -1
0.0530672580 -0.0584341530 1 -1
0.0508402880 -0.0615548340 1 -1
0.0486702230 -0.0648907240 1 -1
0.0466836130 -0.0681245230 1 -1
0.0449678980 -0.0709450860 1 -1
0.0435835380 -0.0730746590 1 -1
0.0425857050 -0.0742929250 1 -1
0.0420358030 -0.0744602820 1 -1
0.0419918800 -0.0735411810 1 -1
0.0424827140 -0.0716208820 1 -1
0.0434823670 -0.0689048990 1 -1
0.0449011860 -0.0656957200 1 -1
0.0465953000 -0.0623504910 1 -1
0.0483842970 -0.0592310220 1 -1
0.0500695390 -0.0566602400 1 -1
0.0514569520 -0.0548925480 1 -1
0.0523911960 -0.0540954400 1 -1
0.0527955630 -0.0543372360 1 -1
0.0526944170 -0.0555808960 1 -1
0.0521960810 -0.0576893270 1 -1
0.0514427930 -0.0604461130 1 -1
0.0505620120 -0.0635857680 1 -1
0.0496475270 -0.0668213410 1 -1
0.0487686690 -0.0698635690 1 -1
0.0479857390 -0.0724359580 1 -1
0.0473552520 -0.0742931270 1 -1
0.0469264060 -0.0752460030 1 -1
0.0467382660 -0.0751901430 1 -1
0.0468203780 -0.0741268640 1 -1
0.0471902100 -0.0721674030 1 -1
0.0478425300 -0.0695182470 1 -1
0.0487365020 -0.0664525830 1 -1
0.0497911390 -0.0632745770 1 -1
0.0508928950 -0.0602826460 1 -1
0.0519104340 -0.0577373270 1 -1
0.0527107650 -0.0558393840 1 -1
0.0531763170 -0.0547220360 1 -1
0.0532237740 -0.0544536480 1 -1
0.0528205080 -0.0550404830 1 -1
0.0519930620 -0.0564233650 1 -1
0.0508257230 -0.0584721380 1 -1
0.0494495520 -0.0609859920 1 -1
0.0480232860 -0.0637061610 1 -1
0.0467095670 -0.0663430590 1 -1
0.0456512260 -0.0686117950 1 -1
0.0449517450 -0.0702646430 1 -1
0.0446625430 -0.0711134140 1 -1
0.0447789650 -0.0710435960 1 -1
0.0452470890 -0.0700255500 1 -1
0.0459805040 -0.0681246020 1 -1
0.0468790630 -0.0655064000 1 -1
0.0478405700 -0.0624300510 1 -1
0.0487654530 -0.0592227300 1 -1
0.0495618850 -0.0562376020 1 -1
0.0501556370 -0.0538057140 1 -1
0.0505015740 -0.0521933960 1 -1
0.0505910960 -0.0515710570 1 -1
0.0504522120 -0.0519954960 1 -1
0.0501425000 -0.0534077990 1 -1
0.0497381010 -0.0556471560 1 -1
0.0493223180 -0.0584757600 1 -1
0.0489745650 -0.0616077820 1 -1
0.0487590150 -0.0647381560 1 -1
0.0487154610 -0.0675697130 1 -1
0.0488561520 -0.0698384420 1 -1
0.0491674210 -0.0713364660 1 -1
0.0496112420 -0.0719302630 1 -1
0.0501256220 -0.0715708870 1 -1
0.0506295670 -0.0702960490 1 -1
0.0510382080 -0.0682261560 1 -1
0.0512836170 -0.0655541920 1 -1
0.0513285180 -0.0625280870 1 -1
0.0511673360 -0.0594274450 1 -1
0.0508215510 -0.0565395590 1 -1
0.0503347110 -0.0541379860 1 -1
0.0497632090 -0.0524615580 1 -1
0.0491607310 -0.0516902700 1 -1
0.0485646150 -0.0519221810 1 -1
0.0479944340 -0.0531603920 1 -1
0.0474623350 -0.0553120710 1 -1
0.0469844820 -0.0581953690 1 -1
0.0465857610 -0.0615537400 1 -1
0.0462981610 -0.0650795500 1 -1
0.0461549320 -0.0684445590 1 -1
0.0461813590 -0.0713325990 1 -1
0.0463852700 -0.0734722380 1 -1
0.0467523360 -0.0746679410 1 -1
0.0472477790 -0.0748255980 1 -1
0.0478218030 -0.0739660910 1 -1
0.0484164940 -0.0722218320 1 -1
0.0489738840 -0.0698161700 1 -1
0.0494439630 -0.0670310220 1 -1
0.0497904180 -0.0641702080 1 -1
0.0499923520 -0.0615252540 1 -1
0.0500416170 -0.0593485240 1 -1
0.0499383810 -0.0578353770 1 -1
0.0496895320 -0.0571132870 1 -1
0.0493122050 -0.0572341630 1 -1
0.0488397640 -0.0581685920 1 -1
0.0483243940 -0.0598042860 1 -1
0.0478317030 -0.0619527810 1 -1
0.0474278510 -0.0643676740 1 -1
0.0471649630 -0.0667732330 1 -1
0.0470711540 -0.0688970120 1 -1
0.0471467770 -0.0704990700 1 -1
0.0473650330 -0.0713929360 1 -1
0.0476764510 -0.0714575900 1 -1
0.0480183140 -0.0706444440 1 -1
0.0483277310 -0.0689845150 1 -1
0.0485542780 -0.0665954920 1 -1
0.0486685130 -0.0636807640 1 -1
0.0486643110 -0.0605121140 1 -1
0.0485545450 -0.0573972790 1 -1
0.0483630670 -0.0546436990 1 -1
0.0481186660 -0.0525291180 1 -1
0.0478536800 -0.0512794500 1 -1
0.0476042680 -0.0510477030 1 -1
0.0474081870 -0.0518923950 1 -1
0.0472993760 -0.0537622010 1 -1
0.0473017240 -0.0564948920 1 -1
0.0474244910 -0.0598325720 1 -1
0.0476601370 -0.0634492150 1 -1
0.0479841710 -0.0669853470 1 -1
0.0483574120 -0.0700854530 1 -1
0.0487316800 -0.0724332870 1 -1
0.0490581010 -0.0737810110 1 -1
0.0492954140 -0.0739710750 1 -1
0.0494166080 -0.0729516850 1 -1
0.0494131810 -0.0707860880 1 -1
0.0492955890 -0.0676529180 1 -1
0.0490890950 -0.0638324240 1 -1
0.0488265780 -0.0596755570 1 -1
0.0485412140 -0.0555596590 1 -1
0.0482615570 -0.0518412760 1 -1
0.0480097900 -0.0488177250 1 -1
0.0478022550 -0.0467039680 1 -1
0.0476511360 -0.0456253800 1 -1
0.0475663890 -0.0456226040 1 -1
0.0475571560 -0.0466604020 1 -1
0.0476321810 -0.0486328150 1 -1
0.0477988390 -0.0513655990 1 -1
0.0480604960 -0.0546226790 1 -1
0.0484131160 -0.0581203330 1 -1
0.0488428560 -0.0615491010 1 -1
0.0493254140 -0.0646017950 1 -1
0.0498274850 -0.0670037740 1 -1
0.0503111130 -0.0685410220 1 -1
0.0507403710 -0.0690819800 1 -1
0.0510871470 -0.0685891980 1 -1
0.0513330870 -0.0671202980 1 -1
0.0514688640 -0.0648220760 1 -1
0.0514948410 -0.0619194030 1 -1
0.0514247270 -0.0586954880 1 -1
0.0512893910 -0.0554619130 1 -1
0.0511373070 -0.0525248000 1 -1
0.0510302860 -0.0501564840 1 -1
0.0510354420 -0.0485761410 1 -1
0.0512164300 -0.0479359900 1 -1
0.0516278670 -0.0483086470 1 -1
0.0523140130 -0.0496755070 1 -1
0.0533087380 -0.0519221140 1 -1
0.0546337630 -0.0548470610 1 -1
0.0562954140 -0.0581837390 1 -1
0.0582818010 -0.0616288630 1 -1
0.0605617180 -0.0648736070 1 -1
0.0630860540 -0.0676348350 1 -1
0.0657916860 -0.0696826020 1 -1
0.0686063800 -0.0708616060 1 -1
0.0714533390 -0.0711068190 1 -1
0.0742561540 -0.0704527350 1 -1
0.0769457600 -0.0690331420 1 -1
0.0794687240 -0.0670676940 1 -1
0.0817931320 -0.0648368980 1 -1
0.0839086420 -0.0626531330 1 -1
0.0858214220 -0.0608314220 1 -1
0.0875485910 -0.0596576640 1 -1
0.0891160580 -0.0593557280 1 -1
0.0905593570 -0.0600603190 1 -1
0.0919232460 -0.0618005150 1 -1
0.0932559650 -0.0644951920 1 -1
0.0945988920 -0.0679601870 1 -1
0.0959767870 -0.0719252520 1 -1
0.0973921120 -0.0760573420 1 -1
0.0988231720 -0.0799884650 1 -1
0.1002269590 -0.0833490690 1 -1
0.1015489610 -0.0858078980 1 -1
0.1027373930 -0.0871153070 1 -1
0.1037548690 -0.0871409780 1 -1
0.1045837800 -0.0858945190 1 -1
0.1052265480 -0.0835235380 1 -1
0.1057020050 -0.0802930730 1 -1
0.1060379680 -0.0765525330 1 -1
0.1062622800 -0.0726945650 1 -1
0.1063972320 -0.0691120190 1 -1
0.1064600290 -0.0661597420 1 -1
0.1064668520 -0.0641228390 1 -1
0.1064359800 -0.0631902330 1 -1
0.1063874980 -0.0634360650 1 -1
0.1063405680 -0.0648137190 1 -1
0.1063111180 -0.0671636520 1 -1
0.1063112700 -0.0702323100 1 -1
0.1063495650 -0.0736992800 1 -1
0.1064310570 -0.0772111960 1 -1
0.1065387100 -0.0804085270 1 -1
0.1065420430 -0.0829066800 1 -1
0.1060317090 -0.0842234450 1 -1
0.1042179730 -0.0837335850 1 -1
0.1000232080 -0.0807341990 1 -1
0.0923226520 -0.0745981760 1 -1
0.0801998280 -0.0649306920 1 -1
0.0631336860 -0.0516698480 1 -1
0.0410920900 -0.0351152220 1 -1
0.0145326970 -0.0158939890 0 0
-0.0156721940 0.0051176610 0 0
-0.0483608560 0.0269026590 -1 0
-0.0822284250 0.0484241760 -1 1
-0.1159675520 0.0687376650 -1 1
-0.1483838840 0.0870752260 -1 1
-0.1784781570 0.1028962320 -1 1
-0.2054967200 0.1159064880 -1 1
-0.2289543080 0.1260504390 -1 1
-0.2486299000 0.1334831520 -1 1
-0.2645380580 0.1385287610 -1 1
-0.2768842990 0.1416289200 -1 1
-0.2860152930 0.1432858250 -1 1
-0.2923704010 0.1440083200 -1 1
-0.2964371310 0.1442677730 -1 1
-0.2987122880 0.1444643130 -1 1
-0.2996699960 0.1449026770 -1 1
-0.2997368740 0.1457783750 -1 1
-0.2992749650 0.1471723190 -1 1
-0.2985734050 0.1490512780 -1 1
-0.2978482000 0.1512773500 -1 1
-0.2972463590 0.1536307620 -1 1
-0.2968505110 0.1558423490 -1 1
-0.2966848130 0.1576293730 -1 1
-0.2967262320 0.1587343570 -1 1
-0.2969221680 0.1589661000 -1 1
-0.2972095460 0.1582329340 -1 1
-0.2975292240 0.1565567480 -1 1
-0.2978329540 0.1540671440 -1 1
-0.2980831770 0.1509843560 -1 1
-0.2982478550 0.1475974100 -1 1
-0.2982963540 0.1442375160 -1 1
-0.2982028560 0.1412446050 -1 1
-0.2979557890 0.1389263840 -1 1
-0.2975635830 0.1375143840 -1 1
-0.2970502350 0.1371294580 -1 1
-0.2964455650 0.1377696910 -1 1
-0.2957804080 0.1393211660 -1 1
-0.2950901540 0.1415805390 -1 1
-0.2944201730 0.1442803390 -1 1
-0.2938249620 0.1471150480 -1 1
-0.2933595590 0.1497685280 -1 1
-0.2930681320 0.1519429180 -1 1
-0.2929749860 0.1533875430 -1 1
-0.2930811030 0.1539245530 -1 1
-0.2933680960 0.1534685710 -1 1
-0.2938074950 0.1520377580 -1 1
-0.2943675280 0.1497513020 -1 1
-0.2950108640 0.1468108170 -1 1
-0.2956866020 0.1434724200 -1 1
-0.2963275390 0.1400189920 -1 1
-0.2968601930 0.1367348840 -1 1
-0.2972240930 0.1338828180 -1 1
-0.2973897160 0.1316866780 -1 1
-0.2973661180 0.1303217380 -1 1
-0.2971956180 0.1299067330 -1 1
-0.2969389540 0.1304926430 -1 1
-0.2966578490 0.1320513400 -1 1
-0.2964023350 0.1344710070 -1 1
-0.2962068060 0.1375613150 -1 1
-0.2960933800 0.1410674010 -1 1
-0.2960783510 0.1446900780 -1 1
-0.2961782890 0.1481086990 -1 1
-0.2964124310 0.1510064220 -1 1
-0.2967976740 0.1531035590 -1 1
-0.2973357940 0.1541993220 -1 1
-0.2979987680 0.1542060970 -1 1
-0.2987226190 0.1531589990 -1 1
-0.2994176900 0.1512028400 -1 1
-0.2999916270 0.1485688580 -1 1
-0.3003701910 0.1455446380 -1 1
-0.3005042880 0.1424372680 -1 1
-0.3003661050 0.1395383000 -1 1
-0.2999457540 0.1370994760 -1 1
-0.2992549250 0.1353167430 -1 1
-0.2983345710 0.1343158950 -1 1
-0.2972589730 0.1341412010 -1 1
-0.2961304150 0.1347529060 -1 1
-0.2950644680 0.1360353940 -1 1
-0.2941703940 0.1378142910 -1 1
-0.2935315380 0.1398785690 -1 1
-0.2931893960 0.1420005130 -1 1
-0.2931354980 0.1439492240 -1 1
-0.2933148860 0.1455021030 -1 1
-0.2936408530 0.1464621580 -1 1
-0.2940158610 0.1466824690 -1 1
-0.2943523150 0.1460911000 -1 1
-0.2945875770 0.1447075920 -1 1
-0.2946888110 0.1426459490 -1 1
-0.2946467810 0.1401035840 -1 1
-0.2944635460 0.1373382170 -1 1
-0.2941426900 0.1346368310 -1 1
-0.2936877380 0.1322830280 -1 1
-0.2931065820 0.1305283250 -1 1
-0.2924155860 0.1295694050 -1 1
-0.2916405720 0.1295315130 -1 1
-0.2908165490 0.1304579680 -1 1
-0.2899876480 0.1323047110 -1 1
-0.2892055150 0.1349381850 -1 1
-0.2885243910 0.1381378970 -1 1
-0.2879945650 0.1416091620 -1 1
-0.2876577130 0.1450103610 -1 1
-0.2875452970 0.1479924610 -1 1
-0.2876788070 0.1502433240 -1 1
-0.2880708650 0.1515281420 -1 1
-0.2887258190 0.1517172140 -1 1
-0.2896371800 0.1507950360 -1 1
-0.2907813130 0.1488536560 -1 1
-0.2921112530 0.1460803500 -1 1
-0.2935559640 0.1427452320 -1 1
-0.2950269610 0.1391835640 -1 1
-0.2964297220 0.1357634160 -1 1
-0.2976752380 0.1328371830 -1 1
-0.2986883240 0.1306886820 -1 1
-0.2994124660 0.1294941720 -1 1
