-0.0134838830 0.0098482260 0 0
-0.0133903190 0.0090255340 0 0
-0.0132504830 0.0078535450 0 0
-0.0130705990 0.0064486290 0 0
-0.0128520570 0.0049560400 0 0
-0.0125919410 0.0035340710 0 0
-0.0122879250 0.0023367510 0 0
-0.0119449720 0.0014979050 0 0
-0.0115801400 0.0011186150 0 0
-0.0112222080 0.0012578990 0 0
-0.0109052130 0.0019252100 0 0
-0.0106587100 0.0030754340 0 0
-0.0105000860 0.0046088830 0 0
-0.0104326150 0.0063782110 0 0
-0.0104488440 0.0082032120 0 0
-0.0105361700 0.0098920850 0 0
-0.0106812100 0.0112649750 0 0
-0.0108716020 0.0121760630 0 0
-0.0110969460 0.0125325620 0 0
-0.0113506030 0.0123076930 0 0
-0.0116303980 0.0115418960 0 0
-0.0119356100 0.0103309450 0 0
-0.0122621600 0.0088083610 0 0
-0.0126000950 0.0071294630 0 0
-0.0129339480 0.0054573080 0 0
-0.0132435930 0.0039487320 0 0
-0.0135046970 0.0027412080 0 0
-0.0136902360 0.0019413000 0 0
-0.0137744720 0.0016155540 0 0
-0.0137389380 0.0017858650 0 0
-0.0135782340 0.0024297250 0 0
-0.0133034190 0.0034838670 0 0
-0.0129422000 0.0048500260 0 0
-0.0125360110 0.0064018940 0 0
-0.0121343730 0.0079939910 0 0
-0.0117876580 0.0094746630 0 0
-0.0115397590 0.0107022430 0 0
-0.0114212610 0.0115599240 0 0
-0.0114433340 0.0119668550 0 0
-0.0115943170 0.0118859410 0 0
-0.0118421200 0.0113280440 0 0
-0.0121426160 0.0103512050 0 0
-0.0124502110 0.0090549630 0 0
-0.0127265140 0.0075709330 0 0
-0.0129448450 0.0060502460 0 0
-0.0130896180 0.0046480710 0 0
-0.0131520500 0.0035064210 0 0
-0.0131265690 0.0027386520 0 0
-0.0130115220 0.0024195180 0 0
-0.0128135240 0.0025812450 0 0
-0.0125513880 0.0032127140 0 0
-0.0122555370 0.0042596850 0 0
-0.0119618080 0.0056269610 0 0
-0.0117029330 0.0071846700 0 0
-0.0115026740 0.0087799680 0 0
-0.0113744290 0.0102534480 0 0
-0.0113224650 0.0114569210 0 0
-0.0113435380 0.0122688190 0 0
-0.0114283160 0.0126061440 0 0
-0.0115630780 0.0124338050 0 0
-0.0117319650 0.0117702730 0 0
-0.0119189630 0.0106864160 0 0
-0.0121085110 0.0092954520 0 0
-0.0122850080 0.0077354990 0 0
-0.0124332450 0.0061500640 0 0
-0.0125410210 0.0046733540 0 0
-0.0126019630 0.0034230140 0 0
-0.0126153000 0.0024960120 0 0
-0.0125827200 0.0019631690 0 0
-0.0125059640 0.0018624880 0 0
-0.0123872180 0.0021933310 0 0
-0.0122304690 0.0029136640 0 0
-0.0120418700 0.0039424910 0 0
-0.0118296740 0.0051669420 0 0
-0.0116050580 0.0064517770 0 0
-0.0113837280 0.0076511740 0 0
-0.0111865010 0.0086239910 0 0
-0.0110368970 0.0092505310 0 0
-0.0109554980 0.0094464050 0 0
-0.0109527960 0.0091711910 0 0
-0.0110235890 0.0084329700 0 0
-0.0111462470 0.0072902690 0 0
-0.0112881550 0.0058503060 0 0
-0.0114145640 0.0042601010 0 0
-0.0114962200 0.0026891680 0 0
-0.0115137000 0.0013072900 0 0
-0.0114595250 0.0002627430 0 0
-0.0113390550 -0.0003345350 0 0
-0.0111691980 -0.0004219300 0 0
-0.0109737330 0.0000139092 0 0
-0.0107761860 0.0009374790 0 0
-0.0105935670 0.0022649560 0 0
-0.0104339840 0.0038690450 0 0
-0.0102982950 0.0055921430 0 0
-0.0101835880 0.0072646680 0 0
-0.0100861760 0.0087230210 0 0
-0.0100032660 0.0098259480 0 0
-0.0099337670 0.0104692170 0 0
-0.0098787050 0.0105956900 0 0
-0.0098413940 0.0101983150 0 0
-0.0098275170 0.0093169090 0 0
-0.0098443370 0.0080311580 0 0
-0.0098978710 0.0064521580 0 0
-0.0099890690 0.0047135700 0 0
-0.0101126870 0.0029617920 0 0
-0.0102610770 0.0013439840 0 0
-0.0104305510 -0.0000060191 0 0
-0.0106250560 -0.0009820330 0 0
-0.0108539610 -0.0015171900 0 0
-0.0111258700 -0.0015908750 0 0
-0.0114432840 -0.0012302440 0 0
-0.0118001470 -0.0005065220 0 0
-0.0121804800 0.0004735990 0 0
-0.0125573170 0.0015805560 0 0
-0.0128939180 0.0026762840 0 0
-0.0131484180 0.0036278640 0 0
-0.0132805260 0.0043193750 0 0
-0.0132581420 0.0046617590 0 0
-0.0130619170 0.0045993340 0 0
-0.0126867040 0.0041109940 0 0
-0.0121405470 0.0032067350 0 0
-0.0114426590 0.0019229430 0 0
-0.0106203890 0.0003197400 0 0
-0.0097038460 -0.0015188770 0 0
-0.0087186860 -0.0034845280 0 0
-0.0076812070 -0.0054476130 0 0
-0.0065996040 -0.0072670170 0 0
-0.0054800620 -0.0088063520 0 0
-0.0043331560 -0.0099541440 0 0
-0.0031782400 -0.0106440700 0 0
-0.0020460080 -0.0108701750 0 0
-0.0009789460 -0.0106912930 0 0
-0.0000287486 -0.0102215140 0 0
0.0007498000 -0.0096095900 0 0
0.0013081130 -0.0090141560 0 0
0.0016145960 -0.0085809860 0 0
0.0016641160 -0.0084259230 0 0
0.0014830200 -0.0086248710 0 0
0.0011275510 -0.0092106130 0 0
0.0006757730 -0.0101755050 0 0
0.0002152790 -0.0114781640 0 0
-0.0001710870 -0.0130512070 0 0
-0.0004192820 -0.0148073210 0 0
-0.0004940090 -0.0166430880 0 0
-0.0003905480 -0.0184429620 0 0
-0.0001284400 -0.0200866800 0 0
0.0002586910 -0.0214606210 0 0
0.0007321900 -0.0224701340 0 0
0.0012533720 -0.0230488800 0 0
0.0017846280 -0.0231637570 0 0
0.0022892270 -0.0228183320 0 0
0.0027321330 -0.0220577820 0 0
0.0030821850 -0.0209723750 0 0
0.0033150430 -0.0196929770 0 0
0.0034165250 -0.0183763130 0 0
0.0033854110 -0.0171840550 0 0
0.0032338800 -0.0162617540 0 0
0.0029845180 -0.0157216050 0 0
0.0026655960 -0.0156307040 0 0
0.0023074730 -0.0160054930 0 0
0.0019405620 -0.0168122980 0 0
0.0015932390 -0.0179730440 0 0
0.0012890270 -0.0193748280 0 0
0.0010444090 -0.0208814590 0 0
0.0008688460 -0.0223450530 0 0
0.0007672360 -0.0236175600 0 0
0.0007428040 -0.0245632150 0 0
0.0007971670 -0.0250713430 0 0
0.0009267630 -0.0250680240 0 0
0.0011189850 -0.0245258400 0 0
0.0013517410 -0.0234704470 0 0
0.0015963420 -0.0219816000 0 0
0.0018213330 -0.0201870900 0 0
0.0019966780 -0.0182503090 0 0
0.0020992130 -0.0163531980 0 0
0.0021181470 -0.0146765550 0 0
0.0020576730 -0.0133805130 0 0
0.0019357420 -0.0125878340 0 0
0.0017806580 -0.0123711410 0 0
0.0016266990 -0.0127447130 0 0
0.0015085630 -0.0136621390 0 0
0.0014548060 -0.0150214110 0 0
0.0014826900 -0.0166776020 0 0
0.0015977300 -0.0184606290 0 0
0.0017981450 -0.0201940110 0 0
0.0020798170 -0.0217111190 0 0
0.0024368090 -0.0228675310 0 0
0.0028571220 -0.0235503890 0 0
0.0033183880 -0.0236860060 0 0
0.0037884780 -0.0232459310 0 0
0.0042318500 -0.0222510920 0 0
0.0046179960 -0.0207727080 0 0
0.0049274000 -0.0189283430 0 0
0.0051533680 -0.0168732610 0 0
0.0053010770 -0.0147878030 0 0
0.0053847750 -0.0128604020 0 0
0.0054227680 -0.0112670430 0 0
0.0054317000 -0.0101502470 0 0
0.0054237670 -0.0096024040 0 0
0.0054081290 -0.0096579370 0 0
0.0053938800 -0.0102943440 0 0
0.0053921510 -0.0114379980 0 0
0.0054170070 -0.0129718420 0 0
0.0054848140 -0.0147452040 0 0
0.0056114330 -0.0165873310 0 0
0.0058079440 -0.0183248810 0 0
0.0060759250 -0.0198003970 0 0
0.0064025850 -0.0208873840 0 0
0.0067576850 -0.0215002660 0 0
0.0070958380 -0.0216003900 0 0
0.0073657220 -0.0211982450 0 0
0.0075231720 -0.0203504130 0 0
0.0075419790 -0.0191519820 0 0
0.0074178780 -0.0177269910 0 0
0.0071667740 -0.0162177080 0 0
0.0068212200 -0.0147723980 0 0
0.0064262100 -0.0135323220 0 0
0.0060320010 -0.0126188400 0 0
0.0056833490 -0.0121212620 0 0
0.0054090290 -0.0120866010 0 0
0.0052166390 -0.0125122310 0 0
0.0050944140 -0.0133428750 0 0
0.0050179220 -0.0144743830 0 0
0.0049585850 -0.0157657920 0 0
0.0048920390 -0.0170579140 0 0
0.0048049350 -0.0181940850 0 0
0.0046982640 -0.0190382690 0 0
0.0045860620 -0.0194873280 0 0
0.0044905040 -0.0194770700 0 0
0.0044352740 -0.0189844420 0 0
0.0044388680 -0.0180285470 0 0
0.0045093370 -0.0166701810 0 0
0.0046416790 -0.0150081650 0 0
0.0048184740 -0.0131728940 0 0
0.0050136390 -0.0113181990 0 0
0.0051983450 -0.0096094660 0 0
0.0053474590 -0.0082057970 0 0
0.0054442860 -0.0072395080 0 0
0.0054818380 -0.0067999830 0 0
0.0054608790 -0.0069256360 0 0
0.0053867740 -0.0076026330 0 0
0.0052670020 -0.0087680920 0 0
0.0051097330 -0.0103168500 0 0
0.0049234170 -0.0121111060 0 0
0.0047183420 -0.0139923680 0 0
0.0045107680 -0.0157957630 0 0
0.0043268080 -0.0173661510 0 0
0.0042011090 -0.0185740000 0 0
0.0041688360 -0.0193287660 0 0
0.0042550760 -0.0195876910 0 0
0.0044673080 -0.0193584150 0 0
0.0047935250 -0.0186958960 0 0
0.0052046200 -0.0176956120 0 0
0.0056585330 -0.0164842200 0 0
0.0061054570 -0.0152078020 0 0
0.0064945910 -0.0140181750 0 0
0.0067814620 -0.0130580570 0 0
0.0069335420 -0.0124460000 0 0
0.0069331600 -0.0122631450 0 0
0.0067788300 -0.0125438490 0 0
0.0064858780 -0.0132705070 0 0
0.0060852440 -0.0143730700 0 0
0.0056191910 -0.0157351940 0 0
0.0051345590 -0.0172079040 0 0
0.0046754640 -0.0186285000 0 0
0.0042772020 -0.0198403650 0 0
0.0039620960 -0.0207101820 0 0
0.0037367100 -0.0211408260 0 0
0.0035898390 -0.0210792310 0 0
0.0034931060 -0.0205197880 0 0
0.0034075050 -0.0195040860 0 0
0.0032954040 -0.0181161020 0 0
0.0031318060 -0.0164721930 0 0
0.0029087130 -0.0147090230 0 0
0.0026325630 -0.0129734220 0 0
0.0023192400 -0.0114140330 0 0
0.0019903030 -0.0101715300 0 0
0.0016714270 -0.0093656180 0 0
0.0013919430 -0.0090797950 0 0
0.0011829360 -0.0093468020 0 0
0.0010720030 -0.0101397650 0 0
0.0010765200 -0.0113735920 0 0
0.0011991820 -0.0129163770 0 0
0.0014271310 -0.0146065430 0 0
0.0017339390 -0.0162711180 0 0
0.0020846200 -0.0177416050 0 0
0.0024429490 -0.0188668830 0 0
0.0027777870 -0.0195256790 0 0
0.0030657370 -0.0196396420 0 0
0.0032908940 -0.0191842290 0 0
0.0034438320 -0.0181938890 0 0
0.0035214090 -0.0167593380 0 0
0.0035278690 -0.0150162760 0 0
0.0034758080 -0.0131282420 0 0
0.0033843330 -0.0112688440 0 0
0.0032737830 -0.0096064530 0 0
0.0031593550 -0.0082899580 0 0
0.0030468810 -0.0074340270 0 0
0.0029329980 -0.0071072630 0 0
0.0028100350 -0.0073281540 0 0
0.0026732310 -0.0080681020 0 0
0.0025263130 -0.0092564920 0 0
0.0023827430 -0.0107848750 0 0
0.0022624180 -0.0125114960 0 0
0.0021855180 -0.0142699310 0 0
0.0021665780 -0.0158846530 0 0
0.0022112940 -0.0171917510 0 0
0.0023162350 -0.0180596410 0 0
0.0024703690 -0.0184049150 0 0
0.0026577910 -0.0182006190 0 0
0.0028610830 -0.0174769050 0 0
0.0030641700 -0.0163157970 0 0
0.0032536340 -0.0148414320 0 0
0.0034185560 -0.0132065670 0 0
0.0035497510 -0.0115766530 0 0
0.0036392110 -0.0101131230 0 0
0.0036800100 -0.0089568290 0 0
0.0036661140 -0.0082131660 0 0
0.0035918780 -0.0079423630 0 0
0.0034523290 -0.0081573190 0 0
0.0032453530 -0.0088272960 0 0
0.0029749910 -0.0098838910 0 0
0.0026537710 -0.0112270150 0 0
0.0023030690 -0.0127314670 0 0
0.0019515790 -0.0142561680 0 0
0.0016317730 -0.0156561420 0 0
0.0013743080 -0.0167942530 0 0
0.0012016400 -0.0175506650 0 0
0.0011225600 -0.0178321170 0 0
0.0011284570 -0.0175834240 0 0
0.0011923850 -0.0167990680 0 0
0.0012731540 -0.0155297440 0 0
0.0013254920 -0.0138804980 0 0
0.0013138050 -0.0120006850 0 0
0.0012240240 -0.0100683310 0 0
0.0010679430 -0.0082710810 0 0
0.0008778270 -0.0067851030 0 0
0.0006943320 -0.0057545540 0 0
0.0005542290 -0.0052753670 0 0
0.0004829160 -0.0053857410 0 0
0.0004927120 -0.0060636190 0 0
0.0005852120 -0.0072304870 0 0
0.0007547570 -0.0087611930 0 0
0.0009904940 -0.0104995560 0 0
0.0012771860 -0.0122770960 0 0
0.0015965100 -0.0139298200 0 0
0.0019290400 -0.0153108030 0 0
0.0022557080 -0.0163009580 0 0
0.0025581730 -0.0168189250 0 0
0.0028189880 -0.0168270800 0 0
0.0030229850 -0.0163324040 0 0
0.0031595930 -0.0153840230 0 0
0.0032241670 -0.0140679300 0 0
0.0032168330 -0.0124989090 0 0
0.0031393060 -0.0108115060 0 0
0.0029922150 -0.0091507450 0 0
0.0027753200 -0.0076610720 0 0
0.0024905230 -0.0064732410 0 0
0.0021458040 -0.0056906830 0 0
0.0017576030 -0.0053763900 0 0
0.0013496800 -0.0055420050 0 0
0.0009488420 -0.0061430930 0 0
0.0005806000 -0.0070837850 0 0
0.0002678520 -0.0082299180 0 0
0.0000332407 -0.0094265750 0 0
-0.0000976311 -0.0105156750 0 0
-0.0000971212 -0.0113514470 0 0
0.0000569950 -0.0118133610 0 0
0.0003711460 -0.0118171050 0 0
0.0008294300 -0.0113253270 0 0
0.0013946160 -0.0103569560 0 0
0.0020147880 -0.0089888340 0 0
0.0026311670 -0.0073454230 0 0
0.0031846280 -0.0055799660 0 0
0.0036212960 -0.0038537900 0 0
0.0038980600 -0.0023183950 0 0
0.0039870960 -0.0011027300 0 0
0.0038772670 -0.0003055940 0 0
0.0035721120 0.0000096709 0 0
0.0030874350 -0.0001793610 0 0
0.0024516460 -0.0008499730 0 0
0.0017079080 -0.0019349510 0 0
0.0009140130 -0.0033300110 0 0
0.0001376070 -0.0049060170 0 0
-0.0005517880 -0.0065214450 0 0
-0.0010914800 -0.0080322430 0 0
-0.0014344820 -0.0093002840 0 0
-0.0015582330 -0.0102025200 0 0
-0.0014703520 -0.0106411930 0 0
-0.0012077940 -0.0105545340 0 0
-0.0008290970 -0.0099263150 0 0
-0.0004029710 -0.0087916400 0 0
0.0000033509 -0.0072380720 0 0
0.0003340370 -0.0054026000 0 0
0.0005514100 -0.0034624570 0 0
0.0006385720 -0.0016164390 0 0
0.0005984670 -0.0000579496 0 0
0.0004503540 0.0010530100 0 0
0.0002235220 0.0016109570 0 0
-0.0000510378 0.0015755550 0 0
-0.0003471560 0.0009725020 0 0
-0.0006441660 -0.0001138250 0 0
-0.0009223720 -0.0015544700 0 0
-0.0011585810 -0.0031935740 0 0
-0.0013267880 -0.0048654030 0 0
-0.0014042220 -0.0064078640 0 0
-0.0013780650 -0.0076729220 0 0
-0.0012483100 -0.0085370200 0 0
-0.0010263390 -0.0089131020 0 0
-0.0007319280 -0.0087617220 0 0
-0.0003909650 -0.0080973990 0 0
-0.0000333503 -0.0069882380 0 0
0.0003111150 -0.0055478830 0 0
0.0006189210 -0.0039207300 0 0
0.0008781120 -0.0022654780 0 0
0.0010896680 -0.0007420880 0 0
0.0012649420 0.0004989370 0 0
0.0014215070 0.0013288000 0 0
0.0015795070 0.0016540380 0 0
0.0017583170 0.0014280040 0 0
0.0019721940 0.0006580420 0 0
0.0022253470 -0.0005918900 0 0
0.0025091600 -0.0022041310 0 0
0.0028038980 -0.0040173670 0 0
0.0030842220 -0.0058435130 0 0
0.0033257100 -0.0074892270 0 0
0.0035099520 -0.0087786600 0 0
0.0036270050 -0.0095737890 0 0
0.0036751270 -0.0097899320 0 0
0.0036587350 -0.0094047330 0 0
0.0035856520 -0.0084590170 0 0
0.0034641600 -0.0070497810 0 0
0.0033003820 -0.0053183820 0 0
0.0030972780 -0.0034373370 0 0
0.0028564870 -0.0015965640 0 0
0.0025823510 0.0000123203 0 0
0.0022850220 0.0012141950 0 0
0.0019795170 0.0018692430 0 0
0.0016811880 0.0018893660 0 0
0.0014016080 0.0012492690 0 0
0.0011480300 -0.0000102580 0 0
0.0009255830 -0.0017876900 0 0
0.0007392460 -0.0039325790 0 0
0.0005941020 -0.0062604180 0 0
0.0004946550 -0.0085694840 0 0
0.0004446800 -0.0106602030 0 0
0.0004480600 -0.0123552700 0 0
0.0005093770 -0.0135169550 0 0
0.0006325110 -0.0140591960 0 0
0.0008176600 -0.0139533940 0 0
0.0010599390 -0.0132280970 0 0
0.0013512620 -0.0119644560 0 0
0.0016824920 -0.0102888350 0 0
0.0020419230 -0.0083621030 0 0
0.0024109100 -0.0063651670 0 0
0.0027611570 -0.0044826940 0 0
0.0030572460 -0.0028882240 0 0
0.0032642500 -0.0017320500 0 0
0.0033568840 -0.0011302890 0 0
0.0033263810 -0.0011534870 0 0
0.0031830110 -0.0018157200 0 0
0.0029533390 -0.0030673780 0 0
0.0026729350 -0.0047952210 0 0
0.0023777600 -0.0068322340 0 0
0.0020976520 -0.0089771680 0 0
0.0018530570 -0.0110197640 0 0
0.0016543210 -0.0127655340 0 0
0.0015027170 -0.0140557680 0 0
0.0013927920 -0.0147819520 0 0
0.0013154500 -0.0148955040 0 0
0.0012610730 -0.0144128300 0 0
0.0012218930 -0.0134135370 0 0
0.0011924700 -0.0120292360 0 0
0.0011684150 -0.0104236680 0 0
0.0011454110 -0.0087695650 0 0
0.0011193440 -0.0072291800 0 0
0.0010861090 -0.0059425750 0 0
0.0010407440 -0.0050222250 0 0
0.0009777290 -0.0045486620 0 0
0.0008934870 -0.0045638470 0 0
0.0007890310 -0.0050638310 0 0
0.0006696600 -0.0059947090 0 0
0.0005413070 -0.0072548120 0 0
0.0004064580 -0.0087034450 0 0
0.0002627870 -0.0101750190 0 0
0.0001051660 -0.0114970330 0 0
-0.0000706272 -0.0125090020 0 0
-0.0002646740 -0.0130794310 0 0
-0.0004717320 -0.0131206130 0 0
-0.0006829600 -0.0126013000 0 0
-0.0008899340 -0.0115542810 0 0
-0.0010884240 -0.0100749280 0 0
-0.0012792660 -0.0083097870 0 0
-0.0014659010 -0.0064385890 0 0
-0.0016506620 -0.0046542650 0 0
-0.0018323770 -0.0031428110 0 0
-0.0020066600 -0.0020630860 0 0
-0.0021682200 -0.0015287120 0 0
-0.0023128140 -0.0015956240 0 0
-0.0024364230 -0.0022574230 0 0
-0.0025316010 -0.0034493990 0 0
-0.0025840860 -0.0050600920 0 0
-0.0025732180 -0.0069464510 0 0
-0.0024763250 -0.0089484880 0 0
-0.0022740580 -0.0109019760 0 0
-0.0019539240 -0.0126496980 0 0
-0.0015117130 -0.0140516410 0 0
-0.0009519610 -0.0149938410 0 0
-0.0002885030 -0.0153962490 0 0
0.0004546830 -0.0152202360 0 0
0.0012434010 -0.0144747200 0 0
0.0020358140 -0.0132189890 0 0
0.0027885660 -0.0115611500 0 0
0.0034646090 -0.0096505460 0 0
0.0040394570 -0.0076628180 0 0
0.0045036280 -0.0057805290 0 0
0.0048613650 -0.0041745510 0 0
0.0051269630 -0.0029883870 0 0
0.0053194740 -0.0023248240 0 0
0.0054564510 -0.0022344650 0 0
0.0055492090 -0.0027077020 0 0
0.0056024960 -0.0036736080 0 0
0.0056179650 -0.0050078930 0 0
0.0055976780 -0.0065482700 0 0
0.0055455200 -0.0081135800 0 0
0.0054678020 -0.0095236290 0 0
0.0053738850 -0.0106180790 0 0
0.0052743760 -0.0112727820 0 0
0.0051754100 -0.0114111260 0 0
0.0050727930 -0.0110091340 0 0
0.0049519260 -0.0100954140 0 0
0.0047948010 -0.0087480750 0 0
0.0045892460 -0.0070897450 0 0
0.0043343940 -0.0052794070 0 0
0.0040404670 -0.0034986910 0 0
0.0037255950 -0.0019323830 0 0
0.0034125070 -0.0007464480 0 0
0.0031244460 -0.0000683382 0 0
0.0028790810 0.0000276973 0 0
0.0026828090 -0.0004697040 0 0
0.0025293790 -0.0015050730 0 0
0.0024039600 -0.0029612470 0 0
0.0022905040 -0.0046751240 0 0
0.0021778650 -0.0064599210 0 0
0.0020604020 -0.0081276930 0 0
0.0019338970 -0.0095086860 0 0
0.0017923490 -0.0104668880 0 0
0.0016290300 -0.0109114900 0 0
0.0014396350 -0.0108034590 0 0
0.0012235800 -0.0101563300 0 0
0.0009819900 -0.0090313830 0 0
0.0007141590 -0.0075289920 0 0
0.0004152940 -0.0057785730 0 0
0.0000768316 -0.0039279480 0 0
-0.0003107710 -0.0021316430 0 0
-0.0007530850 -0.0005386380 0 0
-0.0012460170 0.0007186890 0 0
-0.0017725120 0.0015331250 0 0
-0.0023035490 0.0018294280 0 0
-0.0028020800 0.0015713730 0 0
-0.0032280660 0.0007691660 0 0
-0.0035445480 -0.0005155530 0 0
-0.0037246510 -0.0021695540 0 0
-0.0037565110 -0.0040344510 0 0
-0.0036424910 -0.0059226790 0 0
-0.0033940480 -0.0076428600 0 0
-0.0030281750 -0.0090268270 0 0
-0.0025682220 -0.0099493030 0 0
-0.0020456530 -0.0103379240 0 0
-0.0014984050 -0.0101760870 0 0
-0.0009656130 -0.0095005470 0 0
-0.0004815170 -0.0083948030 0 0
-0.0000707394 -0.0069800960 0 0
0.0002543040 -0.0054054240 0 0
0.0004934860 -0.0038364420 0 0
0.0006563900 -0.0024427290 0 0
0.0007576050 -0.0013833230 0 0
0.0008113940 -0.0007907090 0 0
0.0008283120 -0.0007552250 0 0
0.0008154960 -0.0013133540 0 0
0.0007794170 -0.0024417300 0 0
0.0007282090 -0.0040566770 0 0
0.0006721580 -0.0060202410 0 0
0.0006229000 -0.0081542700 0 0
0.0005925130 -0.0102607460 0 0
0.0005936210 -0.0121437650 0 0
0.0006398350 -0.0136298200 0 0
0.0007436680 -0.0145848870 0 0
0.0009099810 -0.0149267800 0 0
0.0011276840 -0.0146315810 0 0
0.0013661340 -0.0137342860 0 0
0.0015807750 -0.0123244610 0 0
0.0017262100 -0.0105374210 0 0
0.0017698870 -0.0085414070 0 0
0.0016994770 -0.0065219380 0 0
0.0015213490 -0.0046643700 0 0
0.0012536550 -0.0031349230 0 0
0.0009202660 -0.0020625540 0 0
0.0005485320 -0.0015264760 0 0
0.0001690590 -0.0015515970 0 0
-0.0001857780 -0.0021102130 0 0
-0.0004860710 -0.0031277590 0 0
-0.0007096840 -0.0044910640 0 0
-0.0008455670 -0.0060577810 0 0
-0.0008937950 -0.0076670850 0 0
-0.0008632030 -0.0091533500 0 0
-0.0007677670 -0.0103626520 0 0
-0.0006224370 -0.0111692740 0 0
-0.0004398130 -0.0114900460 0 0
-0.0002293690 -0.0112948790 0 0
0.0000009595 -0.0106099100 0 0
0.0002430950 -0.0095112170 0 0
0.0004886270 -0.0081119090 0 0
0.0007296030 -0.0065474510 0 0
0.0009589550 -0.0049623700 0 0
0.0011703790 -0.0034991990 0 0
0.0013588670 -0.0022887490 0 0
0.0015220130 -0.0014401110 0 0
0.0016605060 -0.0010305690 0 0
0.0017775420 -0.0010982630 0 0
0.0018788830 -0.0016397330 0 0
0.0019738960 -0.0026108070 0 0
0.0020757130 -0.0039288550 0 0
0.0021990710 -0.0054772450 0 0
0.0023562630 -0.0071137960 0 0
0.0025527700 -0.0086836960 0 0
0.0027844300 -0.0100354970 0 0
0.0030374650 -0.0110379200 0 0
0.0032911180 -0.0115957100 0 0
0.0035214260 -0.0116620630 0 0
0.0037051710 -0.0112440870 0 0
0.0038233990 -0.0103998450 0 0
0.0038631990 -0.0092287950 0 0
0.0038173750 -0.0078587360 0 0
0.0036840190 -0.0064322710 0 0
0.0034681390 -0.0050946140 0 0
0.0031848010 -0.0039824370 0 0
0.0028603650 -0.0032128730 0 0
0.0025286760 -0.0028728650 0 0
0.0022233340 -0.0030094690 0 0
0.0019706920 -0.0036221220 0 0
0.0017868200 -0.0046587250 0 0
0.0016776110 -0.0060178500 0 0
0.0016398250 -0.0075587930 0 0
0.0016627110 -0.0091189950 0 0
0.0017308370 -0.0105348730 0 0
0.0018277080 -0.0116602430 0 0
0.0019388020 -0.0123792600 0 0
0.0020530450 -0.0126152380 0 0
0.0021631110 -0.0123375630 0 0
0.0022658840 -0.0115667260 0 0
0.0023633350 -0.0103754700 0 0
0.0024620250 -0.0088833780 0 0
0.0025698560 -0.0072442750 0 0
0.0026912180 -0.0056290970 0 0
0.0028232170 -0.0042077660 0 0
0.0029548780 -0.0031322180 0 0
0.0030697610 -0.0025212420 0 0
0.0031512040 -0.0024472680 0 0
0.0031880250 -0.0029264710 0 0
0.0031777160 -0.0039154440 0 0
0.0031257060 -0.0053169750 0 0
0.0030419790 -0.0069942990 0 0
0.0029376220 -0.0087904240 0 0
0.0028232120 -0.0105478200 0 0
0.0027088090 -0.0121241230 0 0
0.0026035710 -0.0134018130 0 0
0.0025140400 -0.0142930650 0 0
0.0024424420 -0.0147424550 0 0
0.0023868700 -0.0147293570 0 0
0.0023440440 -0.0142700940 0 0
0.0023133250 -0.0134187930 0 0
0.0022993840 -0.0122653250 0 0
0.0023114540 -0.0109283240 0 0
0.0023590340 -0.0095428520 0 0
0.0024459510 -0.0082466570 0 0
0.0025658590 -0.0071696280 0 0
0.0027017620 -0.0064257570 0 0
0.0028301070 -0.0061039670 0 0
0.0029279600 -0.0062568850 0 0
0.0029803180 -0.0068900640 0 0
0.0029840010 -0.0079558750 0 0
0.0029467390 -0.0093560490 0 0
0.0028831780 -0.0109537150 0 0
0.0028101850 -0.0125911800 0 0
0.0027425420 -0.0141081230 0 0
0.0026893620 -0.0153573910 0 0
0.0026512460 -0.0162181180 0 0
0.0026188960 -0.0166059530 0 0
0.0025755820 -0.0164798860 0 0
0.0025046400 -0.0158458900 0 0
0.0023979070 -0.0147579100 0 0
0.0022583340 -0.0133152270 0 0
0.0020946940 -0.0116545480 0 0
0.0019137340 -0.0099366090 0 0
0.0017179140 -0.0083287850 0 0
0.0015118070 -0.0069865950 0 0
0.0013107670 -0.0060375690 0 0
0.0011418950 -0.0055696290 0 0
0.0010350830 -0.0056241850 0 0
0.0010117620 -0.0061931810 0 0
0.0010796180 -0.0072189110 0 0
0.0012342660 -0.0085958590 0 0
0.0014629990 -0.0101763520 0 0
0.0017468150 -0.0117833280 0 0
0.0020618730 -0.0132303240 0 0
0.0023830320 -0.0143443760 0 0
0.0026888080 -0.0149870820 0 0
0.0029642820 -0.0150708750 0 0
0.0032000780 -0.0145688680 0 0
0.0033892830 -0.0135178500 0 0
0.0035256620 -0.0120150140 0 0
0.0036040550 -0.0102086930 0 0
0.0036211350 -0.0082828160 0 0
0.0035751480 -0.0064357880 0 0
0.0034652540 -0.0048566310 0 0
0.0032914160 -0.0037032240 0 0
0.0030551250 -0.0030872060 0 0
0.0027610320 -0.0030668280 0 0
0.0024194760 -0.0036457050 0 0
0.0020491440 -0.0047745190 0 0
0.0016784940 -0.0063542760 0 0
0.0013448170 -0.0082427850 0 0
0.0010903340 -0.0102672980 0 0
0.0009554620 -0.0122430610 0 0
0.0009708830 -0.0139935940 0 0
0.0011513360 -0.0153680990 0 0
0.0014936590 -0.0162545160 0 0
0.0019792840 -0.0165889880 0 0
0.0025784970 -0.0163607390 0 0
0.0032530460 -0.0156095380 0 0
0.0039568630 -0.0144165730 0 0
0.0046388650 -0.0128944710 0 0
0.0052507180 -0.0111801990 0 0
0.0057567410 -0.0094282210 0 0
0.0061400300 -0.0077994260 0 0
0.0064016620 -0.0064444600 0 0
0.0065550800 -0.0054850350 0 0
0.0066201920 -0.0049999620 0 0
0.0066195390 -0.0050198980 0 0
0.0065758720 -0.0055287830 0 0
0.0065104460 -0.0064683330 0 0
0.0064421720 -0.0077440610 0 0
0.0063873740 -0.0092324180 0 0
0.0063595070 -0.0107889350 0 0
0.0063681670 -0.0122580950 0 0
0.0064169090 -0.0134862050 0 0
0.0065009120 -0.0143370490 0 0
0.0066068540 -0.0147073680 0 0
0.0067159520 -0.0145392110 0 0
0.0068088520 -0.0138283370 0 0
0.0068703780 -0.0126273080 0 0
0.0068920610 -0.0110408160 0 0
0.0068705790 -0.0092128880 0 0
0.0068030130 -0.0073092130 0 0
0.0066832380 -0.0055001270 0 0
0.0065030260 -0.0039476790 0 0
0.0062568460 -0.0027944300 0 0
0.0059464350 -0.0021502130 0 0
0.0055826170 -0.0020783970 0 0
0.0051846690 -0.0025868700 0 0
0.0047784680 -0.0036268070 0 0
0.0043937220 -0.0050988870 0 0
0.0040600300 -0.0068645750 0 0
0.0038024370 -0.0087597360 0 0
0.0036380950 -0.0106088910 0 0
0.0035749100 -0.0122400670 0 0
0.0036110930 -0.0135012710 0 0
0.0037344500 -0.0142783260 0 0
0.0039224160 -0.0145105360 0 0
0.0041445300 -0.0141986820 0 0
0.0043672630 -0.0134025310 0 0
0.0045590730 -0.0122301930 0 0
0.0046937440 -0.0108237240 0 0
0.0047521470 -0.0093439320 0 0
0.0047239300 -0.0079553410 0 0
0.0046093040 -0.0068110440 0 0
0.0044195050 -0.0060369910 0 0
0.0041752290 -0.0057171710 0 0
0.0039036320 -0.0058834080 0 0
0.0036346670 -0.0065126410 0 0
0.0033965140 -0.0075308250 0 0
0.0032098760 -0.0088206130 0 0
0.0030830470 -0.0102322750 0 0
0.0030107920 -0.0115997230 0 0
0.0029777290 -0.0127614100 0 0
0.0029643770 -0.0135814220 0 0
0.0029535080 -0.0139647400 0 0
0.0029348740 -0.0138642210 0 0
0.0029070560 -0.0132813570 0 0
0.0028764960 -0.0122639720 0 0
0.0028544980 -0.0109016760 0 0
0.0028526840 -0.0093182250 0 0
0.0028771000 -0.0076604680 0 0
0.0029224720 -0.0060845120 0 0
0.0029698120 -0.0047404450 0 0
0.0029899110 -0.0037581590 0 0
0.0029519270 -0.0032364530 0 0
0.0028332610 -0.0032352490 0 0
0.0026271760 -0.0037700750 0 0
0.0023461260 -0.0048096010 0 0
0.0020194950 -0.0062773700 0 0
0.0016857450 -0.0080572330 0 0
0.0013820230 -0.0100012970 0 0
0.0011362660 -0.0119403000 0 0
0.0009649910 -0.0136972840 0 0
0.0008755750 -0.0151044410 0 0
0.0008694600 -0.0160209180 0 0
0.0009439250 -0.0163484260 0 0
0.0010920010 -0.0160425060 0 0
0.0013013890 -0.0151189490 0 0
0.0015543240 -0.0136550470 0 0
0.0018294490 -0.0117839640 0 0
0.0021043200 -0.0096809850 0 0
0.0023571560 -0.0075437130 0 0
0.0025682920 -0.0055707170 0 0
0.0027219420 -0.0039428580 0 0
0.0028075580 -0.0028083630 0 0
0.0028200820 -0.0022696950 0 0
0.0027596720 -0.0023721570 0 0
0.0026322500 -0.0030979660 0 0
0.0024513570 -0.0043685640 0 0
0.0022400570 -0.0060541230 0 0
0.0020301900 -0.0079878390 0 0
0.0018567350 -0.0099829170 0 0
0.0017481440 -0.0118504890 0 0
0.0017179020 -0.0134176060 0 0
0.0017632990 -0.0145447770 0 0
0.0018719130 -0.0151405070 0 0
0.0020298080 -0.0151692350 0 0
0.0022251470 -0.0146520000 0 0
0.0024467560 -0.0136622020 0 0
0.0026812490 -0.0123184690 0 0
0.0029114560 -0.0107745050 0 0
0.0031167310 -0.0092047060 0 0
0.0032749570 -0.0077858130 0 0
0.0033653210 -0.0066775760 0 0
0.0033707230 -0.0060059990 0 0
0.0032800430 -0.0058509330 0 0
0.0030908600 -0.0062385800 0 0
0.0028114650 -0.0071396570 0 0
0.0024599430 -0.0084731100 0 0
0.0020597500 -0.0101141720 0 0
0.0016342310 -0.0119060400 0 0
0.0012038220 -0.0136750440 0 0
0.0007872570 -0.0152481760 0 0
0.0004042570 -0.0164702250 0 0
0.0000755836 -0.0172187080 0 0
-0.0001808080 -0.0174167640 0 0
-0.0003545490 -0.0170425890 0 0
-0.0004447810 -0.0161317010 0 0
-0.0004578200 -0.0147710780 0 0
-0.0004016480 -0.0130883030 0 0
-0.0002806630 -0.0112387690 0 0
-0.0000952066 -0.0093924860 0 0
0.0001530050 -0.0077211290 0 0
0.0004535630 -0.0063847520 0 0
0.0007838360 -0.0055170370 0 0
0.0011119780 -0.0052097390 0 0
0.0014046240 -0.0054987100 0 0
0.0016347790 -0.0063546590 0 0
0.0017866140 -0.0076828630 0 0
0.0018570250 -0.0093346340 0 0
0.0018548740 -0.0111273850 0 0
0.0017979030 -0.0128666980 0 0
0.0017076910 -0.0143669800 0 0
0.0016048730 -0.0154703190 0 0
0.0015070340 -0.0160622430 0 0
0.0014292990 -0.0160823860 0 0
0.0013855840 -0.0155296200 0 0
0.0013883370 -0.0144611060 0 0
0.0014461270 -0.0129837600 0 0
0.0015607750 -0.0112387040 0 0
0.0017267090 -0.0093830680 0 0
0.0019331760 -0.0075749330 0 0
0.0021671780 -0.0059644690 0 0
0.0024145550 -0.0046882340 0 0
0.0026590480 -0.0038603490 0 0
0.0028814090 -0.0035587610 0 0
0.0030609330 -0.0038115040 0 0
0.0031800150 -0.0045896990 0 0
0.0032299250 -0.0058104630 0 0
0.0032150420 -0.0073476230 0 0
0.0031535590 -0.0090461400 0 0
0.0030739550 -0.0107377270 0 0
0.0030083170 -0.0122566240 0 0
0.0029847990 -0.0134540650 0 0
0.0030209090 -0.0142100410 0 0
0.0031188540 -0.0144429120 0 0
0.0032648300 -0.0141184680 0 0
0.0034334090 -0.0132574650 0 0
0.0035957450 -0.0119375110 0 0
0.0037283870 -0.0102862240 0 0
0.0038194600 -0.0084668770 0 0
0.0038703130 -0.0066606810 0 0
0.0038924560 -0.0050493900 0 0
0.0039016620 -0.0037990830 0 0
0.0039125510 -0.0030440480 0 0
0.0039356620 -0.0028713910 0 0
0.0039766220 -0.0033095870 0 0
0.0040369290 -0.0043237080 0 0
0.0041170130 -0.0058182420 0 0
0.0042211350 -0.0076467550 0 0
0.0043607120 -0.0096256260 0 0
0.0045524160 -0.0115499060 0 0
0.0048113790 -0.0132127820 0 0
0.0051435380 -0.0144292880 0 0
0.0055411790 -0.0150600400 0 0
0.0059831960 -0.0150290440 0 0
0.0064385320 -0.0143315270 0 0
0.0068695750 -0.0130307870 0 0
0.0072340080 -0.0112468080 0 0
0.0074874510 -0.0091415610 0 0
0.0075896600 -0.0069034280 0 0
0.0075129760 -0.0047300110 0 0
0.0072488650 -0.0028095180 0 0
0.0068095670 -0.0013032440 0 0
0.0062252850 -0.0003320150 0 0
0.0055404420 0.0000311632 0 0
0.0048122570 -0.0002374010 0 0
0.0041101750 -0.0011132310 0 0
0.0035110260 -0.0025255350 0 0
0.0030873520 -0.0043609720 0 0
0.0028925340 -0.0064708440 0 0
0.0029495520 -0.0086818160 0 0
0.0032479770 -0.0108091340 0 0
0.0037488070 -0.0126710550 0 0
0.0043933770 -0.0141044500 0 0
0.0051121830 -0.0149826570 0 0
0.0058313440 -0.0152336100 0 0
0.0064777510 -0.0148517680 0 0
0.0069856940 -0.0138987100 0 0
0.0073056560 -0.0124932670 0 0
0.0074122300 -0.0107947210 0 0
0.0073067030 -0.0089819710 0 0
0.0070126160 -0.0072325140 0 0
0.0065670590 -0.0057064910 0 0
0.0060123800 -0.0045375360 0 0
0.0053911600 -0.0038263520 0 0
0.0047439960 -0.0036332110 0 0
0.0041080470 -0.0039701600 0 0
0.0035154650 -0.0047961360 0 0
0.0029930370 -0.0060178160 0 0
0.0025643610 -0.0074975080 0 0
0.0022528030 -0.0090668890 0 0
0.0020814670 -0.0105438000 0 0
0.0020688360 -0.0117504630 0 0
0.0022226340 -0.0125330070 0 0
0.0025348410 -0.0127807250 0 0
0.0029788290 -0.0124406810 0 0
0.0035093520 -0.0115237680 0 0
0.0040667550 -0.0101021330 0 0
0.0045857540 -0.0083009440 0 0
0.0050068110 -0.0062863970 0 0
0.0052865330 -0.0042488770 0 0
0.0054044960 -0.0023810670 0 0
0.0053657470 -0.0008549600 0 0
0.0051987350 0.0001963110 0 0
0.0049482950 0.0006886750 0 0
0.0046645860 0.0005915470 0 0
0.0043914320 -0.0000693969 0 0
0.0041587660 -0.0012123540 0 0
0.0039817390 -0.0027074990 0 0
0.0038646770 -0.0043924930 0 0
0.0038054070 -0.0060895820 0 0
0.0037971220 -0.0076214930 0 0
0.0038285560 -0.0088267860 0 0
0.0038847070 -0.0095744260 0 0
0.0039495190 -0.0097767150 0 0
0.0040100340 -0.0094004600 0 0
0.0040595570 -0.0084751370 0 0
0.0040975920 -0.0070940390 0 0
0.0041268640 -0.0054041160 0 0
0.0041497400 -0.0035853450 0 0
0.0041660480 -0.0018259970 0 0
0.0041726370 -0.0003005200 0 0
0.0041638550 0.0008467800 0 0
0.0041330870 0.0015115880 0 0
0.0040760230 0.0016339800 0 0
0.0039943370 0.0012003070 0 0
0.0038969770 0.0002448760 0 0
0.0037978280 -0.0011499810 0 0
0.0037111500 -0.0028590620 0 0
0.0036474050 -0.0047258870 0 0
0.0036115320 -0.0065782220 0 0
0.0036040960 -0.0082441520 0 0
0.0036239890 -0.0095667240 0 0
0.0036706020 -0.0104172280 0 0
0.0037442800 -0.0107080560 0 0
0.0038454820 -0.0104038530 0 0
0.0039734120 -0.0095277630 0 0
0.0041242520 -0.0081609290 0 0
0.0042897990 -0.0064351030 0 0
0.0044582100 -0.0045180560 0 0
0.0046169160 -0.0025934040 0 0
0.0047556310 -0.0008398170 0 0
0.0048676040 0.0005862150 0 0
0.0049490300 0.0015629520 0 0
0.0049977200 0.0020114890 0 0
0.0050119560 0.0019005420 0 0
0.0049900440 0.0012499420 0 0
0.0049312370 0.0001320920 0 0
0.0048381780 -0.0013324420 0 0
0.0047195330 -0.0029870090 0 0
0.0045905510 -0.0046563260 0 0
0.0044697030 -0.0061657320 0 0
0.0043718680 -0.0073594700 0 0
0.0043016110 -0.0081160920 0 0
0.0042512470 -0.0083596780 0 0
0.0042054190 -0.0080658250 0 0
0.0041486580 -0.0072619560 0 0
0.0040698580 -0.0060222670 0 0
0.0039611750 -0.0044586010 0 0
0.0038145280 -0.0027093090 0 0
0.0036205140 -0.0009275900 0 0
0.0033712270 0.0007309120 0 0
0.0030649260 0.0021223930 0 0
0.0027098540 0.0031305500 0 0
0.0023259220 0.0036798110 0 0
0.0019440880 0.0037413130 0 0
0.0016031270 0.0033314010 0 0
0.0013431690 0.0025068450 0 0
0.0011968790 0.0013591490 0 0
0.0011816460 0.0000063990 0 0
0.0012960390 -0.0014183270 0 0
0.0015204720 -0.0027796940 0 0
0.0018197580 -0.0039509080 0 0
0.0021459440 -0.0048215030 0 0
0.0024418080 -0.0053039290 0 0
0.0026469920 -0.0053421410 0 0
0.0027082560 -0.0049226030 0 0
0.0025915970 -0.0040830340 0 0
0.0022904870 -0.0029131260 0 0
0.0018258760 -0.0015454320 0 0
0.0012385470 -0.0001390130 0 0
0.0005782140 0.0011398810 0 0
-0.0001057980 0.0021367290 0 0
-0.0007695760 0.0027256930 0 0
-0.0013758670 0.0028239470 0 0
-0.0018935380 0.0024019090 0 0
-0.0022963310 0.0014869220 0 0
-0.0025615240 0.0001589200 0 0
-0.0026698610 -0.0014609890 0 0
-0.0026076290 -0.0032261660 0 0
-0.0023698990 -0.0049805540 0 0
-0.0019631690 -0.0065725210 0 0
-0.0014062640 -0.0078665520 0 0
-0.0007291600 -0.0087541050 0 0
0.0000302804 -0.0091635310 0 0
0.0008311230 -0.0090676120 0 0
0.0016342670 -0.0084875470 0 0
0.0024055020 -0.0074926860 0 0
0.0031157990 -0.0061954420 0 0
0.0037404010 -0.0047416480 0 0
0.0042595730 -0.0032971280 0 0
0.0046618530 -0.0020312070 0 0
0.0049472310 -0.0010986830 0 0
0.0051269310 -0.0006231570 0 0
0.0052195890 -0.0006842040 0 0
0.0052463380 -0.0013089920 0 0
0.0052273120 -0.0024684300 0 0
0.0051809990 -0.0040790430 0 0
0.0051260450 -0.0060114300 0 0
0.0050826840 -0.0081045230 0 0
0.0050710660 -0.0101826150 0 0
0.0051067380 -0.0120709080 0 0
0.0051955410 -0.0136080980 0 0
0.0053299480 -0.0146581420 0 0
0.0054881350 -0.0151227630 0 0
0.0056371490 -0.0149536880 0 0
0.0057412250 -0.0141624510 0 0
0.0057736130 -0.0128244770 0 0
0.0057261130 -0.0110736400 0 0
0.0056103600 -0.0090866460 0 0
0.0054509280 -0.0070616070 0 0
0.0052767900 -0.0051964120 0 0
0.0051169880 -0.0036695300 0 0
0.0049995430 -0.0026238230 0 0
0.0049489750 -0.0021540960 0 0
0.0049814840 -0.0022991410 0 0
0.0051008280 -0.0030387140 0 0
0.0052973630 -0.0042953920 0 0
0.0055501680 -0.0059415790 0 0
0.0058305920 -0.0078127390 0 0
0.0061057620 -0.0097260850 0 0
0.0063420090 -0.0115009930 0 0
0.0065087350 -0.0129771720 0 0
0.0065823470 -0.0140286500 0 0
0.0065489910 -0.0145733950 0 0
0.0064051880 -0.0145787660 0 0
0.0061568630 -0.0140627990 0 0
0.0058180490 -0.0130919830 0 0
0.0054098400 -0.0117760210 0 0
0.0049590020 -0.0102582390 0 0
0.0044951000 -0.0087006780 0 0
0.0040464550 -0.0072666300 0 0
0.0036374380 -0.0061049290 0 0
0.0032891760 -0.0053369940 0 0
0.0030216410 -0.0050450510 0 0
0.0028529190 -0.0052621980 0 0
0.0027954670 -0.0059672470 0 0
0.0028533950 -0.0070855200 0 0
0.0030228780 -0.0084954310 0 0
0.0032939170 -0.0100417360 0 0
0.0036513420 -0.0115550990 0 0
0.0040748990 -0.0128734720 0 0
0.0045401380 -0.0138591970 0 0
0.0050212750 -0.0144086850 0 0
0.0054944830 -0.0144561960 0 0
0.0059387020 -0.0139770250 0 0
0.0063336530 -0.0129937730 0 0
0.0066580430 -0.0115822480 0 0
0.0068907910 -0.0098705490 0 0
0.0070149190 -0.0080289790 0 0
0.0070216500 -0.0062517730 0 0
0.0069120670 -0.0047324150 0 0
0.0066950630 -0.0036366630 0 0
0.0063832980 -0.0030798780 0 0
0.0059906830 -0.0031137320 0 0
0.0055328120 -0.0037236310 0 0
0.0050288060 -0.0048351420 0 0
0.0045026300 -0.0063258810 0 0
0.0039827570 -0.0080402020 0 0
0.0034994940 -0.0098061380 0 0
0.0030808400 -0.0114534110 0 0
0.0027493800 -0.0128291560 0 0
0.0025214140 -0.0138091940 0 0
0.0024069070 -0.0143056230 0 0
0.0024080800 -0.0142718290 0 0
0.0025153250 -0.0137050340 0 0
0.0027017350 -0.0126462380 0 0
0.0029212450 -0.0111774960 0 0
0.0031151080 -0.0094167360 0 0
0.0032256250 -0.0075103270 0 0
0.0032110100 -0.0056230810 0 0
0.0030552060 -0.0039251190 0 0
0.0027692440 -0.0025746050 0 0
0.0023844790 -0.0016959940 0 0
0.0019416670 -0.0013585340 0 0
0.0014809150 -0.0015650210 0 0
0.0010350800 -0.0022562750 0 0
0.0006266180 -0.0033259390 0 0
0.0002670430 -0.0046372080 0 0
-0.0000416579 -0.0060386790 0 0
-0.0003038260 -0.0073789490 0 0
-0.0005254880 -0.0085178980 0 0
-0.0007098280 -0.0093350470 0 0
-0.0008547920 -0.0097388650 0 0
-0.0009534310 -0.0096773550 0 0
-0.0009961970 -0.0091447860 0 0
-0.0009737730 -0.0081814660 0 0
-0.0008789560 -0.0068685510 0 0
-0.0007074400 -0.0053204040 0 0
-0.0004590070 -0.0036748370 0 0
-0.0001400520 -0.0020816530 0 0
0.0002343420 -0.0006909200 0 0
0.0006412440 0.0003589980 0 0
0.0010534020 0.0009550420 0 0
0.0014430760 0.0010240720 0 0
0.0017850760 0.0005451370 0 0
0.0020595410 -0.0004444180 0 0
0.0022546530 -0.0018515230 0 0
0.0023682030 -0.0035383540 0 0
0.0024067710 -0.0053383950 0 0
0.0023828860 -0.0070745720 0 0
0.0023120120 -0.0085781950 0 0
0.0022104840 -0.0097064400 0 0
0.0020940280 -0.0103556860 0 0
0.0019770260 -0.0104706760 0 0
0.0018737670 -0.0100496020 0 0
0.0018010250 -0.0091430630 0 0
0.0017785270 -0.0078468290 0 0
0.0018249360 -0.0062918340 0 0
0.0019507410 -0.0046336450 0 0
0.0021518500 -0.0030407360 0 0
0.0024075580 -0.0016807460 0 0
0.0026846470 -0.0007045220 0 0
0.0029463800 -0.0002289500 0 0
0.0031628730 -0.0003220500 0 0
0.0033188110 -0.0009940990 0 0
0.0034156380 -0.0021957750 0 0
0.0034684170 -0.0038226460 0 0
0.0035001650 -0.0057261530 0 0
0.0035355710 -0.0077311460 0 0
0.0035947720 -0.0096568350 0 0
0.0036896640 -0.0113356190 0 0
0.0038247720 -0.0126270760 0 0
0.0039995160 -0.0134285570 0 0
0.0042065140 -0.0136836670 0 0
0.0044255640 -0.0133874930 0 0
0.0046193600 -0.0125872160 0 0
0.0047376820 -0.0113774600 0 0
0.0047303880 -0.0098898290 0 0
0.0045622360 -0.0082776370 0 0
0.0042216600 -0.0067000020 0 0
0.0037204060 -0.0053094140 0 0
0.0030863250 -0.0042423240 0 0
0.0023541290 -0.0036091310 0 0
0.0015583960 -0.0034825680 0 0
0.0007311440 -0.0038873460 0 0
-0.0000959473 -0.0047939830 0 0
-0.0008870690 -0.0061177610 0 0
-0.0015993840 -0.0077238590 0 0
-0.0021843990 -0.0094410410 0 0
-0.0025939200 -0.0110843270 0 0
-0.0027890450 -0.0124812130 0 0
-0.0027496720 -0.0134936760 0 0
-0.0024811560 -0.0140318710 0 0
-0.0020150020 -0.0140589760 0 0
-0.0014031970 -0.0135880210 0 0
-0.0007089710 -0.0126732680 0 0
0.0000028116 -0.0114001140 0 0
0.0006742970 -0.0098762960 0 0
0.0012617690 -0.0082252580 0 0
0.0017399290 -0.0065813930 0 0
0.0021023020 -0.0050851420 0 0
0.0023579350 -0.0038746030 0 0
0.0025246950 -0.0030722600 0 0
0.0026204880 -0.0027690710 0 0
0.0026556670 -0.0030103120 0 0
0.0026300030 -0.0037874410 0 0
0.0025352440 -0.0050376000 0 0
0.0023612870 -0.0066497490 0 0
0.0021024600 -0.0084764340 0 0
0.0017615520 -0.0103504670 0 0
0.0013514810 -0.0121034850 0 0
0.0008950610 -0.0135821430 0 0
0.0004217220 -0.0146603440 0 0
-0.0000398736 -0.0152485570 0 0
-0.0004698750 -0.0153015810 0 0
-0.0008595010 -0.0148251380 0 0
-0.0012058210 -0.0138792040 0 0
-0.0015041070 -0.0125743480 0 0
-0.0017434990 -0.0110601090 0 0
-0.0019083220 -0.0095078410 0 0
-0.0019838380 -0.0080910010 0 0
-0.0019622900 -0.0069657600 0 0
-0.0018454490 -0.0062549570 0 0
-0.0016435750 -0.0060372860 0 0
-0.0013732980 -0.0063416210 0 0
-0.0010560020 -0.0071451860 0 0
-0.0007162360 -0.0083746640 0 0
-0.0003788120 -0.0099108610 0 0
-0.0000647253 -0.0115987160 0 0
0.0002115280 -0.0132629910 0 0
0.0004412630 -0.0147272460 0 0
0.0006193170 -0.0158331730 0 0
0.0007436660 -0.0164583480 0 0
0.0008176580 -0.0165299480 0 0
0.0008519370 -0.0160315510 0 0
0.0008623910 -0.0150021980 0 0
0.0008639370 -0.0135296620 0 0
0.0008642870 -0.0117409330 0 0
0.0008613070 -0.0097915680 0 0
0.0008439420 -0.0078529520 0 0
0.0007953820 -0.0060963210 0 0
0.0006975700 -0.0046758480 0 0
0.0005363190 -0.0037141670 0 0
0.0003062550 -0.0032910580 0 0
0.0000138579 -0.0034349350 0 0
-0.0003240710 -0.0041183600 0 0
-0.0006871300 -0.0052594030 0 0
-0.0010598850 -0.0067297930 0 0
-0.0014367950 -0.0083689190 0 0
-0.0018200480 -0.0100015600 0 0
-0.0022120400 -0.0114576460 0 0
-0.0026081930 -0.0125912380 0 0
-0.0029950280 -0.0132940840 0 0
-0.0033537250 -0.0135019720 0 0
-0.0036655680 -0.0131969530 0 0
-0.0039158280 -0.0124078790 0 0
-0.0040958780 -0.0112077590 0 0
-0.0042050030 -0.0097073760 0 0
-0.0042517980 -0.0080471380 0 0
-0.0042534710 -0.0063863240 0 0
-0.0042333230 -0.0048863950 0 0
-0.0042183270 -0.0036901910 0 0
-0.0042363540 -0.0029054390 0 0
-0.0043105600 -0.0025980490 0 0
-0.0044517460 -0.0027914960 0 0
-0.0046531910 -0.0034661380 0 0
-0.0048907500 -0.0045579690 0 0
-0.0051275460 -0.0059608650 0 0
-0.0053218250 -0.0075353080 0 0
-0.0054363860 -0.0091226120 0 0
-0.0054466720 -0.0105612620 0 0
-0.0053447210 -0.0117031510 0 0
-0.0051379140 -0.0124295120 0 0
-0.0048432820 -0.0126653410 0 0
-0.0044799070 -0.0123886110 0 0
-0.0040632950 -0.0116316500 0 0
-0.0036043000 -0.0104755950 0 0
-0.0031116070 -0.0090406450 0 0
-0.0025946540 -0.0074741210 0 0
-0.0020659150 -0.0059372020 0 0
-0.0015437280 -0.0045907080 0 0
-0.0010547280 -0.0035806120 0 0
-0.0006320970 -0.0030238630 0 0
-0.0003085020 -0.0029952270 0 0
-0.0001076870 -0.0035174670 0 0
-0.0000393050 -0.0045576840 0 0
-0.0000981695 -0.0060305560 0 0
-0.0002665440 -0.0078077910 0 0
-0.0005179020 -0.0097330940 0 0
-0.0008208980 -0.0116405380 0 0
-0.0011425650 -0.0133718640 0 0
-0.0014502940 -0.0147881730 0 0
-0.0017131290 -0.0157757190 0 0
-0.0019036170 -0.0162504580 0 0
-0.0020004960 -0.0161652350 0 0
-0.0019911430 -0.0155183330 0 0
-0.0018731930 -0.0143589640 0 0
-0.0016556860 -0.0127865640 0 0
-0.0013592010 -0.0109436790 0 0
-0.0010134520 -0.0090033730 0 0
-0.0006525240 -0.0071515720 0 0
-0.0003099570 -0.0055661830 0 0
-0.0000149192 -0.0043965610 0 0
0.0002114580 -0.0037461820 0 0
0.0003597170 -0.0036601440 0 0
0.0004336640 -0.0041193760 0 0
0.0004486440 -0.0050437270 0 0
0.0004279310 -0.0063041600 0 0
0.0003990290 -0.0077409160 0 0
0.0003892200 -0.0091824080 0 0
0.0004194610 -0.0104615470 0 0
0.0004991080 -0.0114301940 0 0
0.0006254850 -0.0119732370 0 0
0.0007887590 -0.0120205570 0 0
0.0009784240 -0.0115534110 0 0
0.0011877350 -0.0106040440 0 0
0.0014145750 -0.0092503260 0 0
0.0016581950 -0.0076077820 0 0
0.0019127110 -0.0058203230 0 0
0.0021616040 -0.0040491220 0 0
0.0023784130 -0.0024587820 0 0
0.0025342340 -0.0012015000 0 0
0.0026076360 -0.0004008130 0 0
0.0025920530 -0.0001365780 0 0
0.0024977640 -0.0004336470 0 0
0.0023483080 -0.0012574350 0 0
0.0021741240 -0.0025180810 0 0
0.0020066590 -0.0040814580 0 0
0.0018734680 -0.0057839090 0 0
0.0017930720 -0.0074492350 0 0
0.0017697780 -0.0089074060 0 0
0.0017909190 -0.0100133430 0 0
0.0018290190 -0.0106630990 0 0
0.0018494370 -0.0108044360 0 0
0.0018210290 -0.0104395320 0 0
0.0017250360 -0.0096199150 0 0
0.0015581620 -0.0084373510 0 0
0.0013295720 -0.0070162470 0 0
0.0010549730 -0.0055082580 0 0
0.0007514930 -0.0040822350 0 0
0.0004350820 -0.0029045920 0 0
0.0001194610 -0.0021157750 0 0
-0.0001847790 -0.0018128590 0 0
-0.0004705640 -0.0020423810 0 0
-0.0007333510 -0.0028008740 0 0
-0.0009695150 -0.0040384300 0 0
-0.0011754530 -0.0056621110 0 0
-0.0013477450 -0.0075404740 0 0
-0.0014835630 -0.0095129830 0 0
-0.0015805150 -0.0114052160 0 0
-0.0016361160 -0.0130471010 0 0
-0.0016479670 -0.0142905080 0 0
-0.0016155970 -0.0150229730 0 0
-0.0015436500 -0.0151767170 0 0
-0.0014443900 -0.0147343700 0 0
-0.0013371190 -0.0137311680 0 0
-0.0012439260 -0.0122525700 0 0
-0.0011838050 -0.0104279760 0 0
-0.0011680950 -0.0084202060 0 0
-0.0011994210 -0.0064095680 0 0
-0.0012742760 -0.0045753050 0 0
-0.0013869570 -0.0030797690 0 0
-0.0015315900 -0.0020565710 0 0
-0.0017006010 -0.0015996560 0 0
-0.0018813730 -0.0017520780 0 0
-0.0020546350 -0.0024979550 0 0
-0.0021965770 -0.0037620830 0 0
-0.0022838280 -0.0054184800 0 0
-0.0022986340 -0.0073056980 0 0
-0.0022316660 -0.0092453790 0 0
-0.0020822890 -0.0110604600 0 0
-0.0018583530 -0.0125905870 0 0
-0.0015761270 -0.0137048060 0 0
-0.0012581880 -0.0143126550 0 0
-0.0009283080 -0.0143726840 0 0
-0.0006061750 -0.0138961520 0 0
-0.0003053810 -0.0129452500 0 0
-0.0000347346 -0.0116267890 0 0
0.0001994090 -0.0100823820 0 0
0.0003914970 -0.0084755620 0 0
0.0005359310 -0.0069758360 0 0
0.0006265390 -0.0057403670 0 0
0.0006565260 -0.0048960700 0 0
0.0006197660 -0.0045259640 0 0
0.0005135130 -0.0046615510 0 0
0.0003412080 -0.0052801870 0 0
0.0001134740 -0.0063065090 0 0
-0.0001539440 -0.0076186470 0 0
-0.0004443670 -0.0090600310 0 0
-0.0007433080 -0.0104566160 0 0
-0.0010376040 -0.0116377100 0 0
-0.0013116810 -0.0124564080 0 0
-0.0015457410 -0.0128056460 0 0
-0.0017187710 -0.0126282920 0 0
-0.0018142850 -0.0119211950 0 0
-0.0018249580 -0.0107333740 0 0
-0.0017544140 -0.0091591740 0 0
-0.0016164470 -0.0073277780 0 0
-0.0014331050 -0.0053896490 0 0
-0.0012330410 -0.0035004180 0 0
-0.0010493330 -0.0018057630 0 0
-0.0009144960 -0.0004315200 0 0
-0.0008527080 0.0005219870 0 0
-0.0008728300 0.0009853540 0 0
-0.0009664080 0.0009259280 0 0
-0.0011117420 0.0003526800 0 0
-0.0012811410 -0.0006803570 0 0
-0.0014474160 -0.0020737140 0 0
-0.0015879230 -0.0036887150 0 0
-0.0016866390 -0.0053617210 0 0
-0.0017347970 -0.0069229250 0 0
-0.0017299780 -0.0082144900 0 0
-0.0016739710 -0.0091053020 0 0
-0.0015708450 -0.0095026460 0 0
-0.0014264950 -0.0093617460 0 0
-0.0012490500 -0.0086924190 0 0
-0.0010487090 -0.0075605270 0 0
-0.0008370330 -0.0060822300 0 0
-0.0006270500 -0.0044105530 0 0
-0.0004343810 -0.0027163250 0 0
-0.0002775060 -0.0011682250 0 0
-0.0001755430 0.0000832465 0 0
-0.0001446490 0.0009169860 0 0
-0.0001952860 0.0012502080 0 0
-0.0003309290 0.0010466340 0 0
-0.0005474070 0.0003229560 0 0
-0.0008327700 -0.0008494680 0 0
-0.0011683980 -0.0023513360 0 0
-0.0015310130 -0.0040309880 0 0
-0.0018945410 -0.0057242340 0 0
-0.0022317630 -0.0072727100 0 0
-0.0025163660 -0.0085382760 0 0
-0.0027254650 -0.0094133220 0 0
-0.0028425160 -0.0098272080 0 0
-0.0028604890 -0.0097501920 0 0
-0.0027844120 -0.0091961800 0 0
-0.0026319310 -0.0082235910 0 0
-0.0024309540 -0.0069328360 0 0
-0.0022140020 -0.0054601330 0 0
-0.0020104600 -0.0039674360 0 0
-0.0018402970 -0.0026272200 0 0
-0.0017125390 -0.0016021880 0 0
-0.0016279720 -0.0010233790 0 0
-0.0015827250 -0.0009716200 0 0
-0.0015706870 -0.0014661040 0 0
-0.0015851280 -0.0024617000 0 0
-0.0016197150 -0.0038545020 0 0
-0.0016684090 -0.0054944420 0 0
-0.0017249160 -0.0072041710 0 0
-0.0017832500 -0.0088027240 0 0
-0.0018395090 -0.0101300330 0 0
-0.0018932120 -0.0110662320 0 0
-0.0019470540 -0.0115414570 0 0
-0.0020057780 -0.0115367140 0 0
-0.0020752420 -0.0110795220 0 0
-0.0021617270 -0.0102371680 0 0
-0.0022717260 -0.0091081420 0 0
-0.0024130220 -0.0078115440 0 0
-0.0025965890 -0.0064750950 0 0
-0.0028376310 -0.0052230390 0 0
-0.0031549310 -0.0041658860 0 0
-0.0035682110 -0.0033940050 0 0
-0.0040925500 -0.0029748170 0 0
-0.0047297830 -0.0029508190 0 0
-0.0054597700 -0.0033361420 0 0
-0.0062369420 -0.0041117290 0 0
-0.0069961460 -0.0052211900 0 0
-0.0076663770 -0.0065704290 0 0
-0.0081862150 -0.0080333790 0 0
-0.0085148750 -0.0094638310 0 0
-0.0086366490 -0.0107114630 0 0
-0.0085600870 -0.0116391290 0 0
-0.0083141080 -0.0121384240 0 0
-0.0079423150 -0.0121414570 0 0
-0.0074958570 -0.0116278390 0 0
-0.0070258150 -0.0106266230 0 0
-0.0065771160 -0.0092132610 0 0
-0.0061850090 -0.0075017770 0 0
-0.0058737860 -0.0056332040 0 0
-0.0056571900 -0.0037621710 0 0
-0.0055401280 -0.0020435350 0 0
-0.0055210240 -0.0006199270 0 0
-0.0055935330 0.0003895160 0 0
-0.0057463610 0.0008988860 0 0
-0.0059618170 0.0008640020 0 0
-0.0062151800 0.0002905410 0 0
-0.0064760930 -0.0007602390 0 0
-0.0067121130 -0.0021738080 0 0
-0.0068942700 -0.0037953960 0 0
-0.0070031010 -0.0054493680 0 0
-0.0070317600 -0.0069592130 0 0
-0.0069841090 -0.0081657140 0 0
-0.0068698400 -0.0089423850 0 0
-0.0067007440 -0.0092075380 0 0
-0.0064902770 -0.0089326230 0 0
-0.0062559590 -0.0081459110 0 0
-0.0060226120 -0.0069301620 0 0
-0.0058232080 -0.0054141600 0 0
-0.0056943340 -0.0037596710 0 0
-0.0056665750 -0.0021452630 0 0
-0.0057544580 -0.0007471980 0 0
-0.0059519480 0.0002813270 0 0
-0.0062359480 0.0008285180 0 0
-0.0065748520 0.0008362800 0 0
-0.0069369130 0.0003053370 0 0
-0.0072948360 -0.0007069980 0 0
-0.0076257900 -0.0020954360 0 0
-0.0079086880 -0.0037194220 0 0
-0.0081223860 -0.0054184260 0 0
-0.0082475000 -0.0070284680 0 0
-0.0082715980 -0.0083967810 0 0
-0.0081953310 -0.0093926390 0 0
-0.0080360320 -0.0099159370 0 0
-0.0078256980 -0.0099057830 0 0
-0.0076036260 -0.0093491740 0 0
-0.0074077730 -0.0082872880 0 0
-0.0072690310 -0.0068147370 0 0
-0.0072095220 -0.0050691660 0 0
-0.0072430540 -0.0032143690 0 0
-0.0073751710 -0.0014226170 0 0
-0.0076021210 0.0001407130 0 0
-0.0079103360 0.0013300570 0 0
-0.0082776980 0.0020312790 0 0
-0.0086759360 0.0021724900 0 0
-0.0090732690 0.0017326240 0 0
-0.0094377580 0.0007454830 0 0
-0.0097418100 -0.0007022240 0 0
-0.0099665330 -0.0024792160 0 0
-0.0101034230 -0.0044233190 0 0
-0.0101521410 -0.0063579680 0 0
-0.0101165890 -0.0081093680 0 0
-0.0100032710 -0.0095232480 0 0
-0.0098228210 -0.0104795580 0 0
-0.0095910340 -0.0109031410 0 0
-0.0093261030 -0.0107706470 0 0
-0.0090434220 -0.0101143280 0 0
-0.0087519750 -0.0090203090 0 0
-0.0084543540 -0.0076192210 0 0
-0.0081494050 -0.0060713130 0 0
-0.0078358650 -0.0045491580 0 0
-0.0075165170 -0.0032195760 0 0
-0.0072021410 -0.0022272310 0 0
-0.0069130970 -0.0016817310 0 0
-0.0066766170 -0.0016471350 0 0
-0.0065202400 -0.0021339150 0 0
-0.0064637170 -0.0030970930 0 0
-0.0065124790 -0.0044418820 0 0
-0.0066549060 -0.0060328550 0 0
-0.0068637020 -0.0077048430 0 0
-0.0071002800 -0.0092792830 0 0
-0.0073206970 -0.0105877380 0 0
-0.0074816460 -0.0114966010 0 0
-0.0075456940 -0.0119244500 0 0
-0.0074858980 -0.0118482400 0 0
-0.0072894610 -0.0112997370 0 0
-0.0069591450 -0.0103553800 0 0
-0.0065122260 -0.0091226630 0 0
-0.0059780980 -0.0077260090 0 0
-0.0053949720 -0.0062948990 0 0
-0.0048056340 -0.0049552710 0 0
-0.0042528000 -0.0038226630 0 0
-0.0037743450 -0.0029949690 0 0
-0.0033982200 -0.0025449520 0 0
-0.0031381720 -0.0025143130 0 0
-0.0029923830 -0.0029095830 0 0
-0.0029458860 -0.0036987440 0 0
-0.0029756140 -0.0048099960 0 0
-0.0030559390 -0.0061364250 0 0
-0.0031626150 -0.0075468490 0 0
-0.0032743290 -0.0088987960 0 0
-0.0033730540 -0.0100511270 0 0
-0.0034451750 -0.0108775430 0 0
-0.0034835600 -0.0112817320 0 0
-0.0034884690 -0.0112109920 0 0
-0.0034653580 -0.0106633580 0 0
-0.0034206510 -0.0096864960 0 0
-0.0033590390 -0.0083710220 0 0
-0.0032848890 -0.0068411990 0 0
-0.0032064880 -0.0052430820 0 0
-0.0031390390 -0.0037291470 0 0
-0.0031028090 -0.0024410040 0 0
-0.0031159500 -0.0014938160 0 0
-0.0031852700 -0.0009651960 0 0
-0.0032998570 -0.0008900920 0 0
-0.0034308670 -0.0012615450 0 0
-0.0035377900 -0.0020341150 0 0
-0.0035789060 -0.0031271040 0 0
-0.0035222960 -0.0044294600 0 0
-0.0033537470 -0.0058091340 0 0
-0.0030791930 -0.0071256960 0 0
-0.0027219810 -0.0082437560 0 0
-0.0023171310 -0.0090456660 0 0
-0.0019043910 -0.0094421240 0 0
-0.0015211660 -0.0093802260 0 0
-0.0011971150 -0.0088489360 0 0
-0.0009520290 -0.0078809370 0 0
-0.0007964430 -0.0065498370 0 0
-0.0007328920 -0.0049628590 0 0
-0.0007559070 -0.0032500730 0 0
-0.0008501280 -0.0015524970 0 0
-0.0009883510 -0.0000113570 0 0
-0.0011335780 0.0012422880 0 0
-0.0012476380 0.0021002420 0 0
-0.0013032550 0.0024911340 0 0
-0.0012927610 0.0023899000 0 0
-0.0012290420 0.0018188870 0 0
-0.0011390610 0.0008432870 0 0
-0.0010536500 -0.0004343650 0 0
-0.0009981880 -0.0018806400 0 0
-0.0009870360 -0.0033418850 0 0
-0.0010217830 -0.0046599280 0 0
-0.0010924210 -0.0056905580 0 0
-0.0011808210 -0.0063220820 0 0
-0.0012655010 -0.0064905760 0 0
-0.0013269230 -0.0061875470 0 0
-0.0013528990 -0.0054582070 0 0
-0.0013425970 -0.0043924820 0 0
-0.0013073050 -0.0031122630 0 0
-0.0012678310 -0.0017579960 0 0
-0.0012500300 -0.0004761840 0 0
-0.0012802210 0.0005930560 0 0
-0.0013816520 0.0013294160 0 0
-0.0015719130 0.0016451450 0 0
-0.0018599700 0.0014939910 0 0
-0.0022421240 0.0008749300 0 0
-0.0026990650 -0.0001680570 0 0
-0.0031978040 -0.0015485440 0 0
-0.0036991760 -0.0031429850 0 0
-0.0041668550 -0.0048006110 0 0
-0.0045729910 -0.0063581740 0 0
-0.0048994980 -0.0076573860 0 0
-0.0051373810 -0.0085630510 0 0
-0.0052861990 -0.0089805980 0 0
-0.0053539690 -0.0088693970 0 0
-0.0053570190 -0.0082470360 0 0
-0.0053193770 -0.0071836630 0 0
-0.0052711820 -0.0057903440 0 0
-0.0052449890 -0.0042058120 0 0
-0.0052693170 -0.0025829790 0 0
-0.0053610870 -0.0010751820 0 0
-0.0055202610 0.0001765310 0 0
-0.0057292250 0.0010539770 0 0
-0.0059574130 0.0014714090 0 0
-0.0061693450 0.0013854040 0 0
-0.0063327420 0.0008039350 0 0
-0.0064242900 -0.0002090010 0 0
-0.0064325040 -0.0015375040 0 0
-0.0063577420 -0.0030287630 0 0
-0.0062097550 -0.0045158600 0 0
-0.0060039780 -0.0058409470 0 0
-0.0057581000 -0.0068721180 0 0
-0.0054898190 -0.0075124720 0 0
-0.0052158890 -0.0077040850 0 0
-0.0049515680 -0.0074296090 0 0
-0.0047095400 -0.0067117940 0 0
-0.0044985280 -0.0056101300 0 0
-0.0043219640 -0.0042145710 0 0
-0.0041770750 -0.0026373980 0 0
-0.0040559680 -0.0010042590 0 0
-0.0039501490 0.0005554350 0 0
-0.0038562650 0.0019185900 0 0
-0.0037782510 0.0029778850 0 0
-0.0037237490 0.0036502220 0 0
-0.0036976230 0.0038854000 0 0
-0.0036968990 0.0036742460 0 0
-0.0037094830 0.0030521530 0 0
-0.0037166760 0.0020955270 0 0
-0.0036982350 0.0009132440 0 0
-0.0036386380 -0.0003633070 0 0
-0.0035330410 -0.0015907940 0 0
-0.0033903360 -0.0026262810 0 0
-0.0032308780 -0.0033408010 0 0
-0.0030795020 -0.0036320220 0 0
-0.0029577320 -0.0034351340 0 0
-0.0028790350 -0.0027312780 0 0
-0.0028483310 -0.0015517860 0 0
-0.0028647000 0.0000225851 0 0
-0.0029255220 0.0018668980 0 0
-0.0030303260 0.0038221080 0 0
-0.0031830730 0.0057107370 0 0
-0.0033918840 0.0073567620 0 0
-0.0036658040 0.0086061430 0 0
-0.0040100790 0.0093449320 0 0
-0.0044226170 0.0095123890 0 0
-0.0048925930 0.0091061730 0 0
-0.0054001080 0.0081787350 0 0
-0.0059164120 0.0068276010 0 0
-0.0064057650 0.0051831220 0 0
-0.0068296250 0.0033961000 0 0
-0.0071526340 0.0016264970 0 0
-0.0073492280 0.0000329292 0 0
-0.0074090380 -0.0012391960 0 0
-0.0073388090 -0.0020722950 0 0
-0.0071592690 -0.0023912970 0 0
-0.0068978770 -0.0021727690 0 0
-0.0065814340 -0.0014453270 0 0
-0.0062325280 -0.0002842560 0 0
-0.0058700380 0.0011950430 0 0
-0.0055109810 0.0028447110 0 0
-0.0051718380 0.0044961380 0 0
-0.0048694310 0.0059765090 0 0
-0.0046213490 0.0071281470 0 0
-0.0044448810 0.0078268910 0 0
-0.0043534730 0.0079952790 0 0
-0.0043515360 0.0076087030 0 0
-0.0044304880 0.0066959810 0 0
-0.0045685690 0.0053359810 0 0
-0.0047343580 0.0036499460 0 0
-0.0048924790 0.0017891790 0 0
-0.0050100630 -0.0000793878 0 0
-0.0050625450 -0.0017859920 0 0
-0.0050371980 -0.0031684570 0 0
-0.0049335850 -0.0040834780 0 0
-0.0047614640 -0.0044222420 0 0
-0.0045381740 -0.0041290720 0 0
-0.0042874400 -0.0032165530 0 0
-0.0040389270 -0.0017705250 0 0
-0.0038251510 0.0000580756 0 0
-0.0036743270 0.0020735530 0 0
-0.0036025200 0.0040623350 0 0
-0.0036102780 0.0058188630 0 0
-0.0036855670 0.0071667630 0 0
-0.0038098650 0.0079757200 0 0
-0.0039623960 0.0081742800 0 0
-0.0041207510 0.0077568420 0 0
-0.0042606840 0.0067832020 0 0
-0.0043579570 0.0053703620 0 0
-0.0043914820 0.0036776590 0 0
-0.0043454010 0.0018878700 0 0
-0.0042097000 0.0001879620 0 0
-0.0039809190 -0.0012481210 0 0
-0.0036639300 -0.0022746150 0 0
-0.0032735620 -0.0027877490 0 0
-0.0028340730 -0.0027369080 0 0
-0.0023760710 -0.0021295110 0 0
-0.0019320880 -0.0010278010 0 0
-0.0015324500 0.0004600150 0 0
-0.0012027320 0.0021915530 0 0
-0.0009625680 0.0040047150 0 0
-0.0008242780 0.0057341990 0 0
-0.0007910310 0.0072270540 0 0
-0.0008563640 0.0083543690 0 0
-0.0010059460 0.0090197460 0 0
-0.0012199160 0.0091679700 0 0
-0.0014743430 0.0087947840 0 0
-0.0017427350 0.0079532940 0 0
-0.0019986390 0.0067513290 0 0
-0.0022183450 0.0053382950 0 0
-0.0023826320 0.0038850060 0 0
-0.0024783600 0.0025619840 0 0
-0.0025007530 0.0015209370 0 0
-0.0024556420 0.0008809360 0 0
-0.0023595820 0.0007181060 0 0
-0.0022364770 0.0010592610 0 0
-0.0021124310 0.0018819600 0 0
-0.0020122940 0.0031206800 0 0
-0.0019588030 0.0046755830 0 0
-0.0019719920 0.0064210700 0 0
-0.0020668610 0.0082137760 0 0
-0.0022499440 0.0099016740 0 0
-0.0025174690 0.0113356320 0 0
-0.0028568540 0.0123823470 0 0
-0.0032500480 0.0129368650 0 0
-0.0036760060 0.0129338580 0 0
-0.0041118140 0.0123564590 0 0
-0.0045340510 0.0112404830 0 0
-0.0049211420 0.0096729850 0 0
-0.0052557030 0.0077857170 0 0
-0.0055259270 0.0057438730 0 0
-0.0057259420 0.0037305280 0 0
-0.0058554040 0.0019288740 0 0
-0.0059191060 0.0005044030 0 0
-0.0059278480 -0.0004123980 0 0
-0.0059002720 -0.0007414700 0 0
-0.0058630040 -0.0004628960 0 0
-0.0058468870 0.0003818140 0 0
-0.0058803770 0.0016959600 0 0
-0.0059834350 0.0033394580 0 0
-0.0061646770 0.0051443920 0 0
-0.0064224010 0.0069312650 0 0
-0.0067479870 0.0085228720 0 0
-0.0071289840 0.0097562380 0 0
-0.0075493060 0.0104961870 0 0
-0.0079865430 0.0106517080 0 0
-0.0084103110 0.0101902790 0 0
-0.0087856890 0.0091437010 0 0
-0.0090805290 0.0076034350 0 0
-0.0092711190 0.0057084950 0 0
-0.0093425400 0.0036306310 0 0
-0.0092858830 0.0015599180 0 0
-0.0090977800 -0.0003096340 0 0
-0.0087844400 -0.0017975850 0 0
-0.0083661450 -0.0027586550 0 0
-0.0078766450 -0.0031029330 0 0
-0.0073572040 -0.0028071660 0 0
-0.0068501500 -0.0019151480 0 0
-0.0063951600 -0.0005304820 0 0
-0.0060261890 0.0011952130 0 0
-0.0057660700 0.0030780870 0 0
-0.0056205950 0.0049214750 0 0
-0.0055765420 0.0065365730 0 0
-0.0056052850 0.0077614710 0 0
-0.0056698930 0.0084765100 0 0
-0.0057327300 0.0086150680 0 0
-0.0057618140 0.0081696730 0 0
-0.0057351430 0.0071916400 0 0
-0.0056423730 0.0057825670 0 0
-0.0054836400 0.0040811240 0 0
-0.0052660380 0.0022503950 0 0
-0.0049989060 0.0004663940 0 0
-0.0046902210 -0.0010948370 0 0
-0.0043463480 -0.0022735530 0 0
-0.0039746980 -0.0029455270 0 0
-0.0035863760 -0.0030394330 0 0
-0.0031965850 -0.0025462090 0 0
-0.0028229580 -0.0015187300 0 0
-0.0024833750 -0.0000642588 0 0
-0.0021942980 0.0016677870 0 0
-0.0019690080 0.0035011570 0 0
-0.0018144840 0.0052499440 0 0
-0.0017278890 0.0067364770 0 0
-0.0016954890 0.0078086180 0 0
-0.0016951470 0.0083553410 0 0
-0.0017011810 0.0083192460 0 0
-0.0016902870 0.0077036400 0 0
-0.0016469610 0.0065716640 0 0
-0.0015661790 0.0050371990 0 0
-0.0014522740 0.0032504600 0 0
-0.0013151380 0.0013817110 0 0
-0.0011659920 -0.0003951230 0 0
-0.0010149670 -0.0019175020 0 0
-0.0008712870 -0.0030466580 0 0
-0.0007444880 -0.0036778820 0 0
-0.0006446050 -0.0037501670 0 0
-0.0005809170 -0.0032541740 0 0
-0.0005600930 -0.0022350040 0 0
-0.0005843970 -0.0007873780 0 0
-0.0006504220 0.0009554900 0 0
-0.0007491560 0.0028359310 0 0
-0.0008678820 0.0046867120 0 0
-0.0009938570 0.0063460200 0 0
-0.0011189800 0.0076711500 0 0
-0.0012437580 0.0085497880 0 0
-0.0013782830 0.0089089500 0 0
-0.0015384930 0.0087216640 0 0
-0.0017384050 0.0080112770 0 0
-0.0019826550 0.0068527170 0 0
-0.0022643070 0.0053686470 0 0
-0.0025683490 0.0037186540 0 0
-0.0028771060 0.0020818970 0 0
-0.0031744460 0.0006362060 0 0
-0.0034480720 -0.0004617290 0 0
-0.0036900230 -0.0010912540 0 0
-0.0038961650 -0.0011772220 0 0
-0.0040654790 -0.0006960080 0 0
-0.0041990990 0.0003204040 0 0
-0.0042989010 0.0017833020 0 0
-0.0043663060 0.0035525290 0 0
-0.0044024430 0.0054508410 0 0
-0.0044104260 0.0072853100 0 0
-0.0043989990 0.0088695690 0 0
-0.0043847650 0.0100425220 0 0
-0.0043904570 0.0106835270 0 0
-0.0044398020 0.0107246010 0 0
-0.0045517240 0.0101583770 0 0
-0.0047360600 0.0090401310 0 0
-0.0049912870 0.0074830820 0 0
-0.0053038760 0.0056474090 0 0
-0.0056493340 0.0037242160 0 0
-0.0059955560 0.0019150210 0 0
-0.0063081450 0.0004073970 0 0
-0.0065564430 -0.0006493880 0 0
-0.0067187800 -0.0011626100 0 0
-0.0067859450 -0.0011045850 0 0
-0.0067625640 -0.0005111910 0 0
-0.0066659470 0.0005278080 0 0
-0.0065216190 0.0018830770 0 0
-0.0063562710 0.0034015100 0 0
-0.0061910060 0.0049223900 0 0
-0.0060377890 0.0062930530 0 0
-0.0058995760 0.0073818480 0 0
-0.0057727370 0.0080862940 0 0
-0.0056502680 0.0083368900 0 0
-0.0055245550 0.0080989680 0 0
-0.0053887070 0.0073745010 0 0
-0.0052364900 0.0062049080 0 0
-0.0050617750 0.0046744210 0 0
-0.0048584250 0.0029102930 0 0
-0.0046212290 0.0010742550 0 0
-0.0043480410 -0.0006561250 0 0
-0.0040425780 -0.0021103520 0 0
-0.0037168340 -0.0031448250 0 0
-0.0033918130 -0.0036563590 0 0
-0.0030955490 -0.0035903310 0 0
-0.0028588070 -0.0029464570 0 0
-0.0027097460 -0.0017829980 0 0
-0.0026682090 -0.0002147440 0 0
-0.0027401760 0.0016001000 0 0
-0.0029145100 0.0034819740 0 0
-0.0031644630 0.0052535740 0 0
-0.0034534580 0.0067586140 0 0
-0.0037423440 0.0078739380 0 0
-0.0039965720 0.0085165970 0 0
-0.0041928450 0.0086477040 0 0
-0.0043231220 0.0082731900 0 0
-0.0043930640 0.0074410910 0 0
-0.0044150570 0.0062357690 0 0
-0.0043998210 0.0047701600 0 0
-0.0043509870 0.0031776200 0 0
-0.0042644120 0.0016037880 0 0
-0.0041318640 0.0001968030 0 0
-0.0039477200 -0.0009058960 0 0
-0.0037157250 -0.0015935480 0 0
-0.0034519810 -0.0017964340 0 0
-0.0031821760 -0.0014934560 0 0
-0.0029347730 -0.0007123530 0 0
-0.0027339770 0.0004747820 0 0
-0.0025956000 0.0019591240 0 0
-0.0025267020 0.0036057480 0 0
-0.0025279620 0.0052671430 0 0
-0.0025962780 0.0067988130 0 0
-0.0027252590 0.0080741350 0 0
-0.0029034870 0.0089947250 0 0
-0.0031121570 0.0094959050 0 0
-0.0033241220 0.0095506560 0 0
-0.0035061740 0.0091744470 0 0
-0.0036253010 0.0084295920 0 0
-0.0036568460 0.0074250990 0 0
-0.0035904320 0.0063076770 0 0
-0.0034310020 0.0052430780 0 0
-0.0031961490 0.0043921080 0 0
-0.0029124570 0.0038882010 0 0
-0.0026118200 0.0038217000 0 0
-0.0023270410 0.0042326000 0 0
-0.0020873270 0.0051103500 0 0
-0.0019152840 0.0063965970 0 0
-0.0018250730 0.0079880650 0 0
-0.0018202900 0.0097422530 0 0
-0.0018928800 0.0114908680 0 0
-0.0020261090 0.0130603070 0 0
-0.0022017950 0.0142920780 0 0
-0.0024078890 0.0150579600 0 0
-0.0026411470 0.0152715620 0 0
-0.0029025890 0.0148985450 0 0
-0.0031890370 0.0139623980 0 0
-0.0034869420 0.0125406400 0 0
-0.0037721450 0.0107515410 0 0
-0.0040151560 0.0087375820 0 0
-0.0041893070 0.0066518490 0 0
-0.0042790130 0.0046483700 0 0
-0.0042852900 0.0028737910 0 0
-0.0042256820 0.0014581400 0 0
-0.0041283490 0.0005042190 0 0
-0.0040236920 0.0000765425 0 0
-0.0039371700 0.0001914770 0 0
-0.0038843410 0.0008106560 0 0
-0.0038680020 0.0018403450 0 0
-0.0038782110 0.0031394980 0 0
-0.0038963110 0.0045364860 0 0
-0.0039025510 0.0058504470 0 0
-0.0038845720 0.0069125430 0 0
-0.0038429040 0.0075850820 0 0
-0.0037910400 0.0077773270 0 0
-0.0037508510 0.0074555330 0 0
-0.0037466430 0.0066451330 0 0
-0.0038006010 0.0054253130 0 0
-0.0039293520 0.0039176140 0 0
-0.0041399940 0.0022701010 0 0
-0.0044263470 0.0006397190 0 0
-0.0047686100 -0.0008231070 0 0
-0.0051386440 -0.0019852270 0 0
-0.0055094330 -0.0027379270 0 0
-0.0058637390 -0.0030030690 0 0
-0.0061967200 -0.0027397640 0 0
-0.0065114980 -0.0019505510 0 0
-0.0068119390 -0.0006843330 0 0
-0.0070980810 0.0009654380 0 0
-0.0073662550 0.0028669820 0 0
-0.0076126610 0.0048606890 0 0
-0.0078380420 0.0067741780 0 0
-0.0080502890 0.0084404530 0 0
-0.0082618650 0.0097155510 0 0
-0.0084825890 0.0104930900 0 0
-0.0087128540 0.0107157450 0 0
-0.0089422520 0.0103828840 0 0
-0.0091536060 0.0095513600 0 0
-0.0093281900 0.0083279710 0 0
-0.0094488000 0.0068561570 0 0
-0.0095012510 0.0053008630 0 0
-0.0094756990 0.0038329900 0 0
-0.0093678410 0.0026131540 0 0
-0.0091802870 0.0017760060 0 0
-0.0089239510 0.0014173010 0 0
-0.0086174130 0.0015848980 0 0
-0.0082838760 0.0022748510 0 0
-0.0079490430 0.0034337410 0 0
-0.0076410850 0.0049664810 0 0
-0.0073887980 0.0067467520 0 0
-0.0072148630 0.0086273790 0 0
-0.0071271180 0.0104510840 0 0
-0.0071139480 0.0120639420 0 0
-0.0071472200 0.0133309130 0 0
-0.0071912850 0.0141501050 0 0
-0.0072141450 0.0144633250 0 0
-0.0071969410 0.0142615610 0 0
-0.0071388550 0.0135849150 0 0
-0.0070559200 0.0125184810 0 0
-0.0069744200 0.0111861280 0 0
-0.0069216400 0.0097412220 0 0
-0.0069171860 0.0083506600 0 0
-0.0069674980 0.0071723530 0 0
-0.0070654020 0.0063335600 0 0
-0.0071949740 0.0059169700 0 0
-0.0073395590 0.0059543340 0 0
-0.0074894410 0.0064250220 0 0
-0.0076461590 0.0072604140 0 0
-0.0078219360 0.0083555700 0 0
-0.0080346890 0.0095857220 0 0
-0.0083008130 0.0108228120 0 0
-0.0086286280 0.0119482540 0 0
-0.0090147120 0.0128603250 0 0
-0.0094438340 0.0134775020 0 0
-0.0098918150 0.0137407500 0 0
-0.0103298930 0.0136165710 0 0
-0.0107286180 0.0131007310 0 0
-0.0110599450 0.0122218730 0 0
-0.0112983730 0.0110441140 0 0
-0.0114239310 0.0096670600 0 0
-0.0114287840 0.0082207770 0 0
-0.0113245740 0.0068540930 0 0
-0.0111440230 0.0057172300 0 0
-0.0109332590 0.0049426530 0 0
-0.0107380330 0.0046288280 0 0
-0.0105907880 0.0048287920 0 0
-0.0105044950 0.0055431120 0 0
-0.0104747600 0.0067183040 0 0
-0.0104870420 0.0082524100 0 0
-0.0105240100 0.0100063300 0 0
-0.0105690300 0.0118176290 0 0
-0.0106054880 0.0135154410 0 0
-0.0106161090 0.0149367570 0 0
-0.0105859270 0.0159432470 0 0
-0.0105070360 0.0164356150 0 0
-0.0103803380 0.0163625740 0 0
-0.0102131230 0.0157239400 0 0
-0.0100156170 0.0145692350 0 0
-0.0097994400 0.0129929730 0 0
-0.0095776400 0.0111270700 0 0
-0.0093641610 0.0091308390 0 0
-0.0091720220 0.0071786330 0 0
-0.0090113740 0.0054440980 0 0
-0.0088882370 0.0040810850 0 0
-0.0088032680 0.0032049170 0 0
-0.0087506260 0.0028792550 0 0
-0.0087192310 0.0031111020 0 0
-0.0086981080 0.0038529360 0 0
-0.0086823100 0.0050096350 0 0
-0.0086728760 0.0064490630 0 0
-0.0086699610 0.0080158450 0 0
-0.0086663970 0.0095465670 0 0
-0.0086486070 0.0108844580 0 0
-0.0086038880 0.0118935640 0 0
-0.0085277170 0.0124722610 0 0
-0.0084259700 0.0125633840 0 0
-0.0083109460 0.0121584430 0 0
-0.0081939250 0.0112964890 0 0
-0.0080792230 0.0100596950 0 0
-0.0079634930 0.0085663590 0 0
-0.0078399500 0.0069602120 0 0
-0.0077038160 0.0053953370 0 0
-0.0075554680 0.0040186170 0 0
-0.0074007320 0.0029536360 0 0
-0.0072501160 0.0022891600 0 0
-0.0071184620 0.0020732520 0 0
-0.0070242240 0.0023120620 0 0
-0.0069859760 0.0029708260 0 0
-0.0070158060 0.0039755560 0 0
-0.0071126720 0.0052173220 0 0
-0.0072600490 0.0065618210 0 0
-0.0074301720 0.0078641340 0 0
-0.0075931630 0.0089860410 0 0
-0.0077262490 0.0098116170 0 0
-0.0078188370 0.0102569910 0 0
-0.0078721280 0.0102743740 0 0
-0.0078940760 0.0098546920 0 0
-0.0078919800 0.0090309530 0 0
-0.0078666340 0.0078792610 0 0
-0.0078110600 0.0065134820 0 0
-0.0077130550 0.0050722900 0 0
-0.0075587540 0.0037011080 0 0
-0.0073359600 0.0025344950 0 0
-0.0070374130 0.0016837680 0 0
-0.0066632210 0.0012299250 0 0
-0.0062212090 0.0012189760 0 0
-0.0057254570 0.0016585220 0 0
-0.0051944230 0.0025168910 0 0
-0.0046497530 0.0037252250 0 0
-0.0041157720 0.0051814540 0 0
-0.0036188220 0.0067565470 0 0
-0.0031864110 0.0083047980 0 0
-0.0028467050 0.0096780780 0 0
-0.0026274150 0.0107416550 0 0
-0.0025526980 0.0113893340 0 0
-0.0026387910 0.0115564540 0 0
-0.0028905600 0.0112284640 0 0
-0.0033002950 0.0104425740 0 0
-0.0038487780 0.0092822730 0 0
-0.0045076110 0.0078669660 0 0
-0.0052416120 0.0063390370 0 0
-0.0060111140 0.0048496640 0 0
-0.0067747680 0.0035451420 0 0
-0.0074935220 0.0025557560 0 0
-0.0081357510 0.0019873230 0 0
-0.0086818910 0.0019137820 0 0
-0.0091257260 0.0023693500 0 0
-0.0094711280 0.0033406250 0 0
-0.0097261430 0.0047617230 0 0
-0.0098975290 0.0065170520 0 0
-0.0099884280 0.0084535230 0 0
-0.0100003200 0.0103984850 0 0
-0.0099373470 0.0121784730 0 0
-0.0098093340 0.0136371480 0 0
-0.0096316860 0.0146516990 0 0
-0.0094230060 0.0151455260 0 0
-0.0092019360 0.0150961690 0 0
-0.0089841120 0.0145386240 0 0
-0.0087794730 0.0135618910 0 0
-0.0085902440 0.0122964080 0 0
-0.0084105330 0.0108950550 0 0
-0.0082284610 0.0095143640 0 0
-0.0080306910 0.0083003550 0 0
-0.0078081290 0.0073786070 0 0
-0.0075607150 0.0068458870 0 0
-0.0072996050 0.0067615820 0 0
-0.0070468030 0.0071396600 0 0
-0.0068331580 0.0079444270 0 0
-0.0066942700 0.0090934410 0 0
-0.0066635290 0.0104679260 0 0
-0.0067639060 0.0119275730 0 0
-0.0070017330 0.0133258480 0 0
-0.0073645720 0.0145233410 0 0
-0.0078238200 0.0153987840 0 0
-0.0083414030 0.0158586540 0 0
-0.0088781500 0.0158457100 0 0
-0.0094006690 0.0153460990 0 0
-0.0098847130 0.0143942960 0 0
-0.0103145460 0.0130732020 0 0
-0.0106787120 0.0115067190 0 0
-0.0109638660 0.0098468620 0 0
-0.0111504710 0.0082599620 0 0
-0.0112138730 0.0069120140 0 0
-0.0111302520 0.0059505100 0 0
-0.0108838650 0.0054852240 0 0
-0.0104732480 0.0055745640 0 0
-0.0099160390 0.0062202110 0 0
-0.0092514540 0.0073679280 0 0
-0.0085381510 0.0089129210 0 0
-0.0078462230 0.0107090800 0 0
-0.0072452490 0.0125810060 0 0
-0.0067925870 0.0143398480 0 0
-0.0065250370 0.0158045550 0 0
-0.0064543860 0.0168246610 0 0
-0.0065668280 0.0172974460 0 0
-0.0068270180 0.0171766430 0 0
-0.0071862520 0.0164747120 0 0
-0.0075919770 0.0152601260 0 0
-0.0079958500 0.0136492380 0 0
-0.0083595330 0.0117938540 0 0
-0.0086584630 0.0098664960 0 0
-0.0088829320 0.0080435010 0 0
-0.0090351900 0.0064869830 0 0
-0.0091233790 0.0053287030 0 0
-0.0091556660 0.0046577830 0 0
-0.0091368950 0.0045127970 0 0
-0.0090673880 0.0048795250 0 0
-0.0089433490 0.0056955740 0 0
-0.0087595730 0.0068607450 0 0
-0.0085144860 0.0082501700 0 0
-0.0082152970 0.0097275210 0 0
-0.0078802730 0.0111566290 0 0
-0.0075366280 0.0124112860 0 0
-0.0072148410 0.0133843300 0 0
-0.0069422860 0.0139963950 0 0
-0.0067390340 0.0142025190 0 0
-0.0066163550 0.0139953980 0 0
-0.0065768330 0.0134063100 0 0
-0.0066153890 0.0125035120 0 0
-0.0067207260 0.0113861700 0 0
-0.0068770090 0.0101744530 0 0
-0.0070657950 0.0089985030 0 0
-0.0072676050 0.0079876350 0 0
-0.0074627810 0.0072601700 0 0
-0.0076324290 0.0069137270 0 0
-0.0077601730 0.0070146260 0 0
-0.0078344400 0.0075861770 0 0
-0.0078504710 0.0085990980 0 0
-0.0078112980 0.0099690110 0 0
-0.0077276420 0.0115633100 0 0
-0.0076169690 0.0132157210 0 0
-0.0075019770 0.0147457340 0 0
-0.0074086770 0.0159803860 0 0
-0.0073636680 0.0167750510 0 0
-0.0073901670 0.0170300830 0 0
-0.0075035330 0.0167023920 0 0
-0.0077080400 0.0158113210 0 0
-0.0079962170 0.0144360230 0 0
-0.0083508230 0.0127026820 0 0
-0.0087480920 0.0107656250 0 0
-0.0091596780 0.0087890510 0 0
-0.0095517410 0.0069323630 0 0
-0.0098838610 0.0053382290 0 0
-0.0101130780 0.0041229120 0 0
-0.0102042200 0.0033695630 0 0
-0.0101414300 0.0031235690 0 0
-0.0099348260 0.0033882450 0 0
-0.0096196880 0.0041214890 0 0
-0.0092483820 0.0052356780 0 0
-0.0088764960 0.0066026550 0 0
-0.0085472410 0.0080657680 0 0
-0.0082811380 0.0094587010 0 0
-0.0080768480 0.0106263340 0 0
-0.0079218960 0.0114421770 0 0
-0.0078048560 0.0118197630 0 0
-0.0077208100 0.0117177370 0 0
-0.0076687250 0.0111404060 0 0
-0.0076452730 0.0101361680 0 0
-0.0076408440 0.0087944410 0 0
-0.0076406670 0.0072394000 0 0
-0.0076295940 0.0056187690 0 0
-0.0075968140 0.0040887070 0 0
-0.0075381440 0.0027974700 0 0
-0.0074560680 0.0018695990 0 0
-0.0073588920 0.0013919240 0 0
-0.0072597860 0.0014030860 0 0
-0.0071751120 0.0018885070 0 0
-0.0071214910 0.0027821880 0 0
-0.0071125920 0.0039752040 0 0
-0.0071572710 0.0053289330 0 0
-0.0072594530 0.0066907590 0 0
-0.0074187120 0.0079107670 0 0
-0.0076307150 0.0088579210 0 0
-0.0078876860 0.0094335560 0 0
-0.0081791590 0.0095804400 0 0
-0.0084927920 0.0092865330 0 0
-0.0088146260 0.0085833870 0 0
-0.0091288280 0.0075406090 0 0
-0.0094183380 0.0062587580 0 0
-0.0096673540 0.0048618520 0 0
-0.0098643620 0.0034887480 0 0
-0.0100037790 0.0022821390 0 0
-0.0100859800 0.0013749010 0 0
-0.0101164240 0.0008754260 0 0
-0.0101043350 0.0008552770 0 0
-0.0100615150 0.0013416460 0 0
-0.0100020440 0.0023140390 0 0
-0.0099426290 0.0037039120 0 0
-0.0099018150 0.0053982890 0 0
-0.0098967140 0.0072487800 0 0
-0.0099385310 0.0090855350 0 0
-0.0100298160 0.0107349890 0 0
-0.0101649430 0.0120393620 0 0
-0.0103326610 0.0128742840 0 0
-0.0105182990 0.0131614430 0 0
-0.0107043660 0.0128747940 0 0
-0.0108702860 0.0120401980 0 0
-0.0109928330 0.0107300020 0 0
-0.0110480360 0.0090555270 0 0
-0.0110145770 0.0071594180 0 0
-0.0108786520 0.0052064670 0 0
-0.0106394030 0.0033698690 0 0
-0.0103122380 0.0018132600 0 0
-0.0099277000 0.0006732860 0 0
-0.0095260230 0.0000466223 0 0
-0.0091493900 -0.0000182905 0 0
-0.0088340380 0.0004747780 0 0
-0.0086043930 0.0014708100 0 0
-0.0084716870 0.0028689540 0 0
-0.0084380440 0.0045310000 0 0
-0.0085033880 0.0062930820 0 0
-0.0086702630 0.0079814020 0 0
-0.0089433220 0.0094306490 0 0
-0.0093240210 0.0105017270 0 0
-0.0098038120 0.0110956980 0 0
-0.0103594590 0.0111626780 0 0
-0.0109521820 0.0107058650 0 0
-0.0115303380 0.0097811080 0 0
-0.0120350510 0.0084919670 0 0
-0.0124080120 0.0069798380 0 0
-0.0125995270 0.0054091440 0 0
-0.0125755760 0.0039496280 0 0
-0.0123246280 0.0027588940 0 0
-0.0118636410 0.0019669950 0 0
-0.0112392060 0.0016637570 0 0
-0.0105209150 0.0018903010 0 0
-0.0097896130 0.0026364860 0 0
-0.0091249630 0.0038440960 0 0
-0.0085939130 0.0054133720 0 0
-0.0082408330 0.0072107350 0 0
-0.0080821370 0.0090779470 0 0
-0.0081081740 0.0108446340 0 0
-0.0082913290 0.0123452600 0 0
-0.0085949170 0.0134383210 0 0
-0.0089775530 0.0140233540 0 0
-0.0093936630 0.0140528350 0 0
-0.0097956680 0.0135379170 0 0
-0.0101411830 0.0125465430 0 0
-0.0104025120 0.0111927610 0 0
-0.0105726130 0.0096194730 0 0
-0.0106642490 0.0079802340 0 0
-0.0107046040 0.0064250890 0 0
-0.0107296840 0.0050912360 0 0
-0.0107790510 0.0040955610 0 0
-0.0108881860 0.0035260000 0 0
-0.0110783170 0.0034320310 0 0
-0.0113481670 0.0038177420 0 0
-0.0116726690 0.0046398100 0 0
-0.0120095400 0.0058091690 0 0
-0.0123103160 0.0071958520 0 0
-0.0125316860 0.0086400590 0 0
-0.0126442280 0.0099712530 0 0
-0.0126368520 0.0110313740 0 0
-0.0125163210 0.0116955860 0 0
-0.0123029290 0.0118859200 0 0
-0.0120249300 0.0115764640 0 0
-0.0117135960 0.0107913250 0 0
-0.0113986520 0.0095978250 0 0
-0.0111038260 0.0080972910 0 0
-0.0108438120 0.0064153390 0 0
-0.0106239730 0.0046926660 0 0
-0.0104430730 0.0030767540 0 0
-0.0102980640 0.0017144200 0 0
-0.0101881230 0.0007429290 0 0
-0.0101149950 0.0002764400 0 0
-0.0100803700 0.0003887660 0 0
-0.0100835570 0.0010982820 0 0
-0.0101206160 0.0023600400 0 0
-0.0101840700 0.0040668020 0 0
-0.0102632520 0.0060594570 0 0
-0.0103460990 0.0081461590 0 0
-0.0104219180 0.0101267450 0 0
-0.0104834020 0.0118167550 0 0
-0.0105264060 0.0130663110 0 0
-0.0105478590 0.0137721900 0 0
-0.0105441030 0.0138843820 0 0
-0.0105114380 0.0134093890 0 0
-0.0104478910 0.0124104850 0 0
-0.0103539420 0.0110023550 0 0
-0.0102312280 0.0093384470 0 0
-0.0100800720 0.0075932000 0 0
-0.0098977240 0.0059427270 0 0
-0.0096788820 0.0045467610 0 0
-0.0094182250 0.0035344110 0 0
-0.0091132220 0.0029946870 0 0
-0.0087659510 0.0029701880 0 0
-0.0083843780 0.0034532600 0 0
-0.0079838560 0.0043866470 0 0
-0.0075878590 0.0056699300 0 0
-0.0072263020 0.0071703510 0 0
-0.0069314810 0.0087366260 0 0
-0.0067329950 0.0102148030 0 0
-0.0066527940 0.0114636080 0 0
-0.0067012980 0.0123664460 0 0
-0.0068757340 0.0128399150 0 0
-0.0071607040 0.0128400270 0 0
-0.0075294890 0.0123663630 0 0
-0.0079450210 0.0114632620 0 0
-0.0083616220 0.0102164080 0 0
-0.0087297980 0.0087439970 0 0
-0.0090047830 0.0071847030 0 0
-0.0091566810 0.0056854770 0 0
-0.0091781730 0.0043896190 0 0
-0.0090856230 0.0034234140 0 0
-0.0089116680 0.0028816620 0 0
-0.0086920350 0.0028160400 0 0
-0.0084528300 0.0032298190 0 0
-0.0082043830 0.0040786980 0 0
-0.0079447600 0.0052758830 0 0
-0.0076706250 0.0067006900 0 0
-0.0073883760 0.0082107800 0 0
-0.0071189420 0.0096573050 0 0
-0.0068942340 0.0109008530 0 0
-0.0067474760 0.0118252500 0 0
-0.0067024410 0.0123470000 0 0
-0.0067664750 0.0124201270 0 0
-0.0069286800 0.0120376220 0 0
-0.0071619760 0.0112306010 0 0
-0.0074286640 0.0100658320 0 0
-0.0076899200 0.0086420290 0 0
-0.0079173870 0.0070844410 0 0
-0.0081022580 0.0055363610 0 0
-0.0082572600 0.0041468000 0 0
-0.0084107400 0.0030552920 0 0
-0.0085964180 0.0023759250 0 0
-0.0088431890 0.0021829890 0 0
-0.0091671410 0.0025006580 0 0
-0.0095669130 0.0032985500 0 0
-0.0100237020 0.0044941390 0 0
-0.0105061130 0.0059623070 0 0
-0.0109778490 0.0075508520 0 0
-0.0114054700 0.0090989280 0 0
-0.0117639930 0.0104548840 0 0
-0.0120394140 0.0114911880 0 0
-0.0122285460 0.0121155330 0 0
-0.0123369720 0.0122777920 0 0
-0.0123754870 0.0119724810 0 0
-0.0123557050 0.0112369660 0 0
-0.0122864540 0.0101465540 0 0
-0.0121726900 0.0088074230 0 0
-0.0120175370 0.0073476330 0 0
-0.0118265750 0.0059063610 0 0
-0.0116123960 0.0046223270 0 0
-0.0113969800 0.0036226090 0 0
-0.0112102200 0.0030120820 0 0
-0.0110846920 0.0028628990 0 0
-0.0110486060 0.0032044870 0 0
-0.0111201520 0.0040166900 0 0
-0.0113053970 0.0052290920 0 0
-0.0115992980 0.0067269800 0 0
-0.0119875580 0.0083620060 0 0
-0.0124481400 0.0099662980 0 0
-0.0129535760 0.0113704090 0 0
-0.0134747100 0.0124243800 0 0
-0.0139833050 0.0130180030 0 0
-0.0144506600 0.0130941260 0 0
-0.0148440930 0.0126517530 0 0
-0.0151265960 0.0117421160 0 0
-0.0152621430 0.0104627340 0 0
-0.0152235880 0.0089507080 0 0
-0.0149994400 0.0073736640 0 0
-0.0145989460 0.0059162430 0 0
-0.0140552060 0.0047600310 0 0
-0.0134235600 0.0040580540 0 0
-0.0127724870 0.0039105460 0 0
-0.0121687870 0.0043495700 0 0
-0.0116634930 0.0053360570 0 0
-0.0112849990 0.0067689070 0 0
-0.0110415140 0.0085025210 0 0
-0.0109294630 0.0103669490 0 0
-0.0109418580 0.0121864840 0 0
-0.0110724630 0.0137958610 0 0
-0.0113151720 0.0150541860 0 0
-0.0116607850 0.0158557270 0 0
-0.0120943630 0.0161362760 0 0
-0.0125948120 0.0158749270 0 0
-0.0131352180 0.0150923070 0 0
-0.0136817810 0.0138469730 0 0
-0.0141919900 0.0122314540 0 0
-0.0146152300 0.0103679490 0 0
-0.0148985970 0.0084022480 0 0
-0.0149973330 0.0064945710 0 0
-0.0148848020 0.0048072460 0 0
-0.0145564490 0.0034907410 0 0
-0.0140271520 0.0026694220 0 0
-0.0133265530 0.0024268750 0 0
-0.0124963290 0.0027921150 0 0
-0.0115885560 0.0037315980 0 0
-0.0106620340 0.0051505690 0 0
-0.0097760420 0.0069024770 0 0
-0.0089840860 0.0088043010 0 0
-0.0083301500 0.0106571120 0 0
-0.0078471400 0.0122694420 0 0
-0.0075548730 0.0134787820 0 0
-0.0074564230 0.0141676780 0 0
-0.0075352450 0.0142730240 0 0
-0.0077563150 0.0137892580 0 0
-0.0080722690 0.0127672500 0 0
-0.0084330930 0.0113090670 0 0
-0.0087962850 0.0095577000 0 0
-0.0091340130 0.0076831600 0 0
-0.0094351780 0.0058677000 0 0
-0.0097024050 0.0042900930 0 0
-0.0099456830 0.0031073750 0 0
-0.0101753870 0.0024355030 0 0
-0.0103976280 0.0023338310 0 0
-0.0106134110 0.0027981130 0 0
-0.0108205880 0.0037637010 0 0
-0.0110158620 0.0051171310 0 0
-0.0111952740 0.0067121320 0 0
-0.0113543450 0.0083858280 0 0
-0.0114894440 0.0099730380 0 0
-0.0115992850 0.0113196620 0 0
-0.0116845400 0.0122964560 0 0
-0.0117458470 0.0128113800 0 0
-0.0117823000 0.0128172230 0 0
-0.0117915220 0.0123137060 0 0
-0.0117706730 0.0113459080 0 0
-0.0117174150 0.0100006590 0 0
-0.0116305680 0.0084003360 0 0
-0.0115109360 0.0066922880 0 0
-0.0113627570 0.0050334280 0 0
-0.0111953840 0.0035726630 0 0
-0.0110240540 0.0024357830 0 0
-0.0108688790 0.0017154840 0 0
-0.0107517610 0.0014654730 0 0
-0.0106915990 0.0016971350 0 0
-0.0106996300 0.0023788530 0 0
-0.0107780110 0.0034382320 0 0
-0.0109229290 0.0047669580 0 0
-0.0111294120 0.0062284520 0 0
-0.0113931810 0.0076687720 0 0
-0.0117079740 0.0089304070 0 0
-0.0120610480 0.0098682000 0 0
-0.0124311880 0.0103667190 0 0
-0.0127916040 0.0103565350 0 0
-0.0131157400 0.0098243550 0 0
-0.0133811470 0.0088137580 0 0
-0.0135693370 0.0074186930 0 0
-0.0136644010 0.0057737260 0 0
-0.0136534900 0.0040421420 0 0
-0.0135293230 0.0024008880 0 0
-0.0132931730 0.0010221050 0 0
-0.0129566410 0.0000531221 0 0
-0.0125409310 -0.0004014390 0 0
-0.0120737360 -0.0002915800 0 0
-0.0115849990 0.0003741150 0 0
-0.0111025940 0.0015314130 0 0
-0.0106489490 0.0030671630 0 0
-0.0102401870 0.0048289800 0 0
-0.0098883240 0.0066404360 0 0
-0.0096045810 0.0083226170 0 0
-0.0094007600 0.0097166170 0 0
-0.0092873540 0.0106989550 0 0
-0.0092694950 0.0111879760 0 0
-0.0093423990 0.0111464830 0 0
-0.0094875060 0.0105840660 0 0
-0.0096706900 0.0095566580 0 0
-0.0098451000 0.0081609470 0 0
-0.0099605800 0.0065247670 0 0
-0.0099775480 0.0047952350 0 0
-0.0098787960 0.0031256610 0 0
-0.0096726520 0.0016622610 0 0
-0.0093863120 0.0005315230 0 0
-0.0090548170 -0.0001714290 0 0
-0.0087126400 -0.0003929530 0 0
-0.0083902300 -0.0001282880 0 0
-0.0081135710 0.0005758620 0 0
-0.0079043830 0.0016254480 0 0
-0.0077799510 0.0028906200 0 0
-0.0077521720 0.0042240920 0 0
-0.0078256850 0.0054825010 0 0
-0.0079957560 0.0065433910 0 0
-0.0082475600 0.0073135270 0 0
-0.0085578630 0.0077317310 0 0
-0.0088984320 0.0077706960 0 0
-0.0092394150 0.0074375320 0 0
-0.0095513490 0.0067714190 0 0
-0.0098068450 0.0058391850 0 0
-0.0099849240 0.0047305700 0 0
-0.0100782910 0.0035536970 0 0
-0.0100980910 0.0024291690 0 0
-0.0100700910 0.0014804480 0 0
-0.0100234770 0.0008211360 0 0
-0.0099799060 0.0005422860 0 0
-0.0099488590 0.0007008570 0 0
-0.0099292500 0.0013091810 0 0
-0.0099140430 0.0023282820 0 0
-0.0098950980 0.0036690550 0 0
-0.0098665750 0.0052023740 0 0
-0.0098259510 0.0067760340 0 0
-0.0097730410 0.0082340440 0 0
-0.0097086570 0.0094337660 0 0
-0.0096342650 0.0102596560 0 0
-0.0095528320 0.0106337950 0 0
-0.0094702270 0.0105220740 0 0
-0.0093962470 0.0099353620 0 0
-0.0093441990 0.0089270040 0 0
-0.0093284070 0.0075881830 0 0
-0.0093602900 0.0060414200 0 0
-0.0094442210 0.0044317340 0 0
-0.0095742740 0.0029153400 0 0
-0.0097335230 0.0016460370 0 0
-0.0098975040 0.0007589550 0 0
-0.0100418300 0.0003523920 0 0
-0.0101514830 0.0004721470 0 0
-0.0102276970 0.0011045040 0 0
-0.0102889930 0.0021796260 0 0
-0.0103656800 0.0035818330 0 0
-0.0104904690 0.0051631870 0 0
-0.0106893590 0.0067591450 0 0
-0.0109754170 0.0082058160 0 0
-0.0113460190 0.0093580020 0 0
-0.0117833990 0.0101056720 0 0
-0.0122579210 0.0103849880 0 0
-0.0127326570 0.0101814000 0 0
-0.0131679620 0.0095262540 0 0
-0.0135255300 0.0084903390 0 0
-0.0137722710 0.0071767060 0 0
-0.0138847290 0.0057132250 0 0
-0.0138536870 0.0042437130 0 0
-0.0136867100 0.0029158660 0 0
-0.0134063880 0.0018663540 0 0
-0.0130445780 0.0012060910 0 0
-0.0126354690 0.0010086110 0 0
-0.0122107540 0.0013027100 0 0
-0.0117980570 0.0020701290 0 0
-0.0114215530 0.0032490900 0 0
-0.0111028710 0.0047426430 0 0
-0.0108601900 0.0064286780 0 0
-0.0107040810 0.0081686310 0 0
-0.0106313140 0.0098146170 0 0
-0.0106210850 0.0112175790 0 0
-0.0106378550 0.0122389960 0 0
-0.0106404850 0.0127668450 0 0
-0.0105924750 0.0127340340 0 0
-0.0104679160 0.0121337320 0 0
-0.0102526120 0.0110246900 0 0
-0.0099443610 0.0095241670 0 0
-0.0095549060 0.0077918900 0 0
-0.0091110680 0.0060098240 0 0
-0.0086511860 0.0043611280 0 0
-0.0082167780 0.0030110420 0 0
-0.0078432580 0.0020915090 0 0
-0.0075537440 0.0016898300 0 0
-0.0073573600 0.0018420940 0 0
-0.0072511380 0.0025328550 0 0
-0.0072236070 0.0036999660 0 0
-0.0072586580 0.0052413580 0 0
-0.0073395150 0.0070226330 0 0
-0.0074522230 0.0088867000 0 0
-0.0075868020 0.0106657310 0 0
-0.0077354020 0.0121944350 0 0
-0.0078896360 0.0133244080 0 0
-0.0080398450 0.0139398660 0 0
-0.0081771130 0.0139732900 0 0
-0.0082966180 0.0134173560 0 0
-0.0083995730 0.0123289510 0 0
-0.0084914250 0.0108220570 0 0
-0.0085767830 0.0090502010 0 0
-0.0086545560 0.0071839340 0 0
-0.0087171890 0.0053904320 0 0
-0.0087548740 0.0038194810 0 0
-0.0087614230 0.0025947010 0 0
-0.0087371140 0.0018055220 0 0
-0.0086868270 0.0014977920 0 0
-0.0086160090 0.0016661610 0 0
-0.0085286590 0.0022533120 0 0
-0.0084290010 0.0031585240 0 0
-0.0083246610 0.0042536320 0 0
-0.0082285830 0.0054012640 0 0
-0.0081587290 0.0064703810 0 0
-0.0081354190 0.0073471160 0 0
-0.0081765850 0.0079416620 0 0
-0.0082925640 0.0081926700 0 0
-0.0084826480 0.0080700800 0 0
-0.0087349280 0.0075769390 0 0
-0.0090297950 0.0067509000 0 0
-0.0093456770 0.0056644020 0 0
-0.0096640290 0.0044198530 0 0
-0.0099713350 0.0031381370 0 0
-0.0102586350 0.0019446410 0 0
-0.0105203440 0.0009580850 0 0
-0.0107525200 0.0002823790 0 0
-0.0109500230 -0.0000015195 0 0
-0.0111037580 0.0001552340 0 0
-0.0112003230 0.0007610090 0 0
-0.0112249450 0.0017787030 0 0
-0.0111661610 0.0031265870 0 0
-0.0110197760 0.0046861390 0 0
-0.0107907870 0.0063152350 0 0
-0.0104930980 0.0078635980 0 0
-0.0101472690 0.0091882860 0 0
-0.0097777390 0.0101677800 0 0
-0.0094111510 0.0107131570 0 0
-0.0090748430 0.0107754750 0 0
-0.0087930780 0.0103496320 0 0
-0.0085812300 0.0094754220 0 0
-0.0084416170 0.0082357670 0 0
-0.0083642000 0.0067509510 0 0
-0.0083316410 0.0051681360 0 0
-0.0083255720 0.0036477760 0 0
-0.0083309280 0.0023495350 0 0
-0.0083370430 0.0014182250 0 0
-0.0083361530 0.0009684020 0 0
-0.0083212020 0.0010682820 0 0
-0.0082854650 0.0017275710 0 0
-0.0082250930 0.0028941380 0 0
-0.0081426520 0.0044603460 0 0
-0.0080490440 0.0062761470 0 0
-0.0079631780 0.0081655820 0 0
-0.0079089630 0.0099450100 0 0
-0.0079090990 0.0114422260 0 0
-0.0079779940 0.0125147810 0 0
-0.0081180130 0.0130650120 0 0
-0.0083201360 0.0130493040 0 0
-0.0085664680 0.0124798990 0 0
-0.0088317000 0.0114203860 0 0
-0.0090826060 0.0099783440 0 0
-0.0092777670 0.0082969200 0 0
-0.0093720010 0.0065442080 0 0
-0.0093270220 0.0048993600 0 0
-0.0091231780 0.0035354860 0 0
-0.0087645680 0.0026002450 0 0
-0.0082751600 0.0021970060 0 0
-0.0076906310 0.0023710130 0 0
-0.0070520180 0.0031041690 0 0
-0.0064034020 0.0043189320 0 0
-0.0057919190 0.0058875530 0 0
-0.0052666030 0.0076425940 0 0
-0.0048735310 0.0093898810 0 0
-0.0046479320 0.0109280920 0 0
-0.0046068970 0.0120749560 0 0
-0.0047466310 0.0126933430 0 0
-0.0050454680 0.0127086040 0 0
-0.0054700410 0.0121135780 0 0
-0.0059808420 0.0109637850 0 0
-0.0065354760 0.0093670390 0 0
-0.0070904410 0.0074705670 0 0
-0.0076030640 0.0054472430 0 0
-0.0080344770 0.0034805840 0 0
-0.0083533310 0.0017478220 0 0
-0.0085398370 0.0004023900 0 0
-0.0085898830 -0.0004414570 0 0
-0.0085179880 -0.0007193590 0 0
-0.0083567810 -0.0004212430 0 0
-0.0081514290 0.0004103580 0 0
-0.0079504560 0.0016866290 0 0
-0.0077969100 0.0032825620 0 0
-0.0077226840 0.0050497430 0 0
-0.0077464400 0.0068300680 0 0
-0.0078748400 0.0084693110 0 0
-0.0081055110 0.0098297610 0 0
-0.0084282280 0.0108007100 0 0
-0.0088224880 0.0113064080 0 0
-0.0092548670 0.0113120790 0 0
-0.0096814710 0.0108272820 0 0
-0.0100563490 0.0099048640 0 0
-0.0103417140 0.0086358080 0 0
-0.0105152000 0.0071421680 0 0
-0.0105723920 0.0055688300 0 0
-0.0105260960 0.0040723440 0 0
-0.0104038460 0.0028055700 0 0
-0.0102429570 0.0019001680 0 0
-0.0100825240 0.0014510600 0 0
-0.0099544300 0.0015058940 0 0
-0.0098769440 0.0020601520 0 0
-0.0098535250 0.0030577480 0 0
-0.0098766480 0.0043977580 0 0
-0.0099334860 0.0059468680 0 0
-0.0100107540 0.0075544360 0 0
-0.0100990100 0.0090670770 0 0
-0.0101961720 0.0103419010 0 0
-0.0103074340 0.0112577250 0 0
-0.0104404820 0.0117237090 0 0
-0.0105990830 0.0116865800 0 0
-0.0107789580 0.0111370600 0 0
-0.0109674490 0.0101124580 0 0
-0.0111461080 0.0086924290 0 0
-0.0112939620 0.0069903300 0 0
-0.0113893560 0.0051443500 0 0
-0.0114099860 0.0033081700 0 0
-0.0113326630 0.0016387540 0 0
-0.0111348930 0.0002819110 0 0
-0.0107999720 -0.0006416460 0 0
-0.0103253730 -0.0010481930 0 0
-0.0097302530 -0.0009009080 0 0
-0.0090566620 -0.0002177620 0 0
-0.0083629950 0.0009250740 0 0
-0.0077126820 0.0023991020 0 0
-0.0071624240 0.0040401970 0 0
-0.0067529670 0.0056706440 0 0
-0.0065036900 0.0071194320 0 0
-0.0064116380 0.0082387490 0 0
-0.0064551700 0.0089175510 0 0
-0.0066005230 0.0090915380 0 0
-0.0068081240 0.0087481420 0 0
-0.0070366650 0.0079265690 0 0
-0.0072455980 0.0067145060 0 0
-0.0073975210 0.0052423160 0 0
-0.0074604790 0.0036732290 0 0
-0.0074095810 0.0021875600 0 0
-0.0072285610 0.0009613990 0 0
-0.0069117050 0.0001431150 0 0
-0.0064648260 -0.0001671460 0 0
-0.0059045250 0.0000699595 0 0
-0.0052570470 0.0008308700 0 0
-0.0045573770 0.0020365880 0 0
-0.0038470840 0.0035657340 0 0
-0.0031701380 0.0052686250 0 0
-0.0025683860 0.0069811500 0 0
-0.0020786210 0.0085401130 0 0
-0.0017310150 0.0097997240 0 0
-0.0015468590 0.0106454070 0 0
-0.0015342880 0.0110021510 0 0
-0.0016839500 0.0108386180 0 0
-0.0019688970 0.0101690610 0 0
-0.0023505400 0.0090531610 0 0
-0.0027877780 0.0075924740 0 0
-0.0032449030 0.0059224100 0 0
-0.0036956980 0.0042000030 0 0
-0.0041233750 0.0025890640 0 0
-0.0045175070 0.0012447260 0 0
-0.0048701190 0.0002989880 0 0
-0.0051720860 -0.0001511740 0 0
-0.0054101900 -0.0000515894 0 0
-0.0055669000 0.0006058350 0 0
-0.0056252120 0.0017828260 0 0
-0.0055760830 0.0033957560 0 0
-0.0054225550 0.0053187760 0 0
-0.0051778350 0.0073917310 0 0
-0.0048600220 0.0094343080 0 0
-0.0044884050 0.0112649400 0 0
-0.0040839530 0.0127208290 0 0
-0.0036716840 0.0136757620 0 0
-0.0032804470 0.0140539670 0 0
-0.0029385550 0.0138387200 0 0
-0.0026673870 0.0130747510 0 0
-0.0024758770 0.0118643240 0 0
-0.0023579960 0.0103567620 0 0
-0.0022941040 0.0087307410 0 0
-0.0022559250 0.0071707960 0 0
-0.0022140890 0.0058435170 0 0
-0.0021460820 0.0048799550 0 0
-0.0020414840 0.0043671290 0 0
-0.0019029260 0.0043469650 0 0
-0.0017445220 0.0048184020 0 0
-0.0015903850 0.0057386970 0 0
-0.0014727570 0.0070238250 0 0
-0.0014268860 0.0085516140 0 0
-0.0014820470 0.0101704370 0 0
-0.0016519530 0.0117138420 0 0
-0.0019288290 0.0130195970 0 0
-0.0022843620 0.0139493970 0 0
-0.0026776910 0.0144044690 0 0
-0.0030662060 0.0143343850 0 0
-0.0034139630 0.0137395590 0 0
-0.0036963220 0.0126698710 0 0
-0.0039020540 0.0112209630 0 0
-0.0040334140 0.0095270820 0 0
-0.0041041810 0.0077489100 0 0
-0.0041362990 0.0060571520 0 0
-0.0041560020 0.0046145540 0 0
-0.0041901380 0.0035588950 0 0
-0.0042632200 0.0029887140 0 0
-0.0043956890 0.0029536480 0 0
-0.0046037950 0.0034514100 0 0
-0.0049000410 0.0044319220 0 0
-0.0052920750 0.0058059430 0 0
-0.0057798550 0.0074535350 0 0
-0.0063537840 0.0092297850 0 0
-0.0069961600 0.0109705430 0 0
-0.0076852040 0.0125030150 0 0
-0.0083984830 0.0136619240 0 0
-0.0091138580 0.0143082260 0 0
-0.0098094230 0.0143480120 0 0
-0.0104645120 0.0137492140 0 0
-0.0110613680 0.0125520880 0 0
-0.0115863160 0.0108696440 0 0
-0.0120305280 0.0088758320 0 0
-0.0123898140 0.0067821680 0 0
-0.0126623840 0.0048077910 0 0
-0.0128465360 0.0031504640 0 0
-0.0129418460 0.0019649130 0 0
-0.0129540040 0.0013514890 0 0
-0.0128990010 0.0013535150 0 0
-0.0128015080 0.0019587060 0 0
-0.0126866320 0.0031017340 0 0
-0.0125706690 0.0046695210 0 0
-0.0124577760 0.0065123890 0 0
-0.0123440270 0.0084602940 0 0
-0.0122246320 0.0103395140 0 0
-0.0120994250 0.0119867450 0 0
-0.0119744960 0.0132614590 0 0
-0.0118598480 0.0140574230 0 0
-0.0117638140 0.0143126830 0 0
-0.0116864250 0.0140171770 0 0
-0.0116155060 0.0132170440 0 0
-0.0115284630 0.0120132330 0 0
-0.0113985520 0.0105514690 0 0
-0.0112012830 0.0090037310 0 0
-0.0109186450 0.0075461150 0 0
-0.0105421910 0.0063391370 0 0
-0.0100760430 0.0055132820 0 0
-0.0095392040 0.0051592500 0 0
-0.0089656360 0.0053213330 0 0
-0.0084006200 0.0059933870 0 0
-0.0078937900 0.0071179460 0 0
-0.0074912100 0.0085887250 0 0
-0.0072281530 0.0102567810 0 0
-0.0071223750 0.0119429060 0 0
-0.0071685230 0.0134585320 0 0
-0.0073369600 0.0146311150 0 0
-0.0075796830 0.0153258920 0 0
-0.0078418550 0.0154594400 0 0
-0.0080744680 0.0150051490 0 0
-0.0082444630 0.0139921250 0 0
-0.0083404740 0.0124994340 0 0
-0.0083726580 0.0106471110 0 0
-0.0083661080 0.0085846400 0 0
-0.0083508560 0.0064781730 0 0
-0.0083530580 0.0044981470 0 0
-0.0083895690 0.0028070670 0 0
-0.0084657820 0.0015457140 0 0
-0.0085762750 0.0008177190 0 0
-0.0087081080 0.0006759200 0 0
-0.0088465420 0.0011154040 0 0
-0.0089818800 0.0020753330 0 0
-0.0091146850 0.0034470360 0 0
-0.0092568200 0.0050848050 0 0
-0.0094276280 0.0068186500 0 0
-0.0096462750 0.0084701550 0 0
-0.0099232160 0.0098705530 0 0
-0.0102549090 0.0108776270 0 0
-0.0106241140 0.0113890000 0 0
-0.0110043260 0.0113516220 0 0
-0.0113651060 0.0107670000 0 0
-0.0116772630 0.0096909410 0 0
-0.0119186860 0.0082273390 0 0
-0.0120795520 0.0065169840 0 0
-0.0121632430 0.0047236030 0 0
-0.0121818770 0.0030190660 0 0
-0.0121498820 0.0015679070 0 0
-0.0120792010 0.0005107430 0 0
-0.0119773540 -0.0000517487 0 0
-0.0118486210 -0.0000697389 0 0
-0.0116977280 0.0004535880 0 0
-0.0115334430 0.0014663600 0 0
-0.0113694820 0.0028736990 0 0
-0.0112230460 0.0045436180 0 0
-0.0111128940 0.0063154130 0 0
-0.0110568070 0.0080116850 0 0
-0.0110668950 0.0094537000 0 0
-0.0111440810 0.0104797140 0 0
-0.0112761260 0.0109645150 0 0
-0.0114413030 0.0108364510 0 0
-0.0116151590 0.0100883250 0 0
-0.0117762810 0.0087804380 0 0
-0.0119091170 0.0070352510 0 0
-0.0120038620 0.0050236680 0 0
-0.0120544920 0.0029450700 0 0
-0.0120573820 0.0010049480 0 0
-0.0120128330 -0.0006076340 0 0
-0.0119286660 -0.0017416420 0 0
-0.0118220940 -0.0023017000 0 0
-0.0117166330 -0.0022574430 0 0
-0.0116343460 -0.0016424820 0 0
-0.0115880180 -0.0005442770 0 0
-0.0115786660 0.0009114380 0 0
-0.0115998790 0.0025769880 0 0
-0.0116453460 0.0042966490 0 0
-0.0117143020 0.0059184970 0 0
-0.0118119260 0.0073057100 0 0
-0.0119451230 0.0083471350 0 0
-0.0121167620 0.0089666430 0 0
-0.0123225260 0.0091307950 0 0
-0.0125513930 0.0088528450 0 0
-0.0127856640 0.0081915630 0 0
-0.0129984130 0.0072454830 0 0
-0.0131534810 0.0061426680 0 0
-0.0132130920 0.0050251380 0 0
-0.0131501960 0.0040302920 0 0
-0.0129575750 0.0032751950 0 0
-0.0126486580 0.0028472670 0 0
-0.0122516200 0.0027995430 0 0
-0.0118020780 0.0031481640 0 0
-0.0113379670 0.0038729000 0 0
-0.0108967230 0.0049208890 0 0
-0.0105128820 0.0062107870 0 0
-0.0102147640 0.0076363520 0 0
-0.0100213740 0.0090717970 0 0
-0.0099417260 0.0103802180 0 0
-0.0099767700 0.0114245970 0 0
-0.0101219160 0.0120809620 0 0
-0.0103686260 0.0122526030 0 0
-0.0107047600 0.0118834620 0 0
-0.0111139130 0.0109690200 0 0
-0.0115743030 0.0095626610 0 0
-0.0120580620 0.0077750620 0 0
-0.0125318470 0.0057650690 0 0
-0.0129594790 0.0037224950 0 0
-0.0133065280 0.0018459030 0 0
-0.0135453560 0.0003197260 0 0
-0.0136585120 -0.0007059260 0 0
-0.0136389910 -0.0011310070 0 0
-0.0134870890 -0.0009155970 0 0
-0.0132058220 -0.0000831358 0 0
-0.0127992080 0.0012834430 0 0
-0.0122758580 0.0030512880 0 0
-0.0116549320 0.0050503650 0 0
-0.0109697140 0.0070876040 0 0
-0.0102666900 0.0089627740 0 0
-0.0096004680 0.0104874500 0 0
-0.0090258780 0.0115068500 0 0
-0.0085894550 0.0119207100 0 0
-0.0083228680 0.0116970210 0 0
-0.0082396830 0.0108741470 0 0
-0.0083345810 0.0095517800 0 0
-0.0085834560 0.0078750590 0 0
-0.0089441640 0.0060159770 0 0
-0.0093588280 0.0041543930 0 0
-0.0097590710 0.0024605280 0 0
-0.0100756580 0.0010808420 0 0
-0.0102515750 0.0001282500 0 0
-0.0102538810 -0.0003237010 0 0
-0.0100796570 -0.0002438440 0 0
-0.0097551490 0.0003555530 0 0
-0.0093298890 0.0014198480 0 0
-0.0088673250 0.0028560430 0 0
-0.0084327850 0.0045401320 0 0
-0.0080804970 0.0063270150 0 0
-0.0078435530 0.0080614350 0 0
-0.0077305470 0.0095883260 0 0
-0.0077292670 0.0107629890 0 0
-0.0078148420 0.0114641600 0 0
-0.0079591270 0.0116104600 0 0
-0.0081389680 0.0111752680 0 0
-0.0083419630 0.0101945840 0 0
-0.0085690360 0.0087658160 0 0
-0.0088333390 0.0070377610 0 0
-0.0091550780 0.0051935940 0 0
-0.0095528720 0.0034299220 0 0
-0.0100340240 0.0019343310 0 0
-0.0105870040 0.0008624670 0 0
-0.0111803520 0.0003168770 0 0
-0.0117717250 0.0003319730 0 0
-0.0123254480 0.0008692140 0 0
-0.0128303080 0.0018236720 0 0
-0.0133094980 0.0030402180 0 0
-0.0138199440 0.0043362120 0 0
-0.0144423370 0.0055266080 0 0
-0.0152651670 0.0064463960 0 0
-0.0163676550 0.0069664690 0 0
-0.0178069400 0.0070028020 0 0
-0.0196125810 0.0065213490 0 0
-0.0217878310 0.0055403490 0 0
-0.0243154760 0.0041293060 0 0
-0.0271655990 0.0024026250 0 0
-0.0303024880 0.0005071110 -1 0
-0.0336901290 -0.0013954280 -1 0
-0.0372978410 -0.0031473930 -1 0
-0.0411055700 -0.0046121830 -1 0
-0.0451058430 -0.0056850900 -1 0
-0.0493010170 -0.0062977170 -1 0
-0.0536975100 -0.0064184730 -1 0
-0.0583005170 -0.0060525510 -1 0
-0.0631127410 -0.0052432280 -1 0
-0.0681377130 -0.0040733770 -1 0
-0.0733831550 -0.0026632890 -1 0
-0.0788576840 -0.0011610070 -1 0
-0.0845589460 0.0002742960 -1 0
-0.0904605370 0.0014902570 -1 0
-0.0965091260 0.0023546010 -1 0
-0.1026356940 0.0027624420 -1 0
-0.1087736740 0.0026407720 -1 0
-0.1148738950 0.0019528950 -1 0
-0.1209111390 0.0007018750 -1 0
-0.1268825190 -0.0010691560 -1 0
-0.1328005110 -0.0032798720 -1 0
-0.1386832910 -0.0058176140 -1 0
-0.1445452120 -0.0085437270 -1 0
-0.1503908350 -0.0113014110 -1 0
-0.1562137390 -0.0139259970 -1 0
-0.1619983090 -0.0162591800 -1 0
-0.1677234750 -0.0181665290 -1 0
-0.1733686960 -0.0195540080 -1 0
-0.1789202900 -0.0203797730 -1 0
-0.1843742480 -0.0206609260 -1 0
-0.1897346440 -0.0204749390 -1 0
-0.1950108020 -0.0199538580 -1 0
-0.2002155420 -0.0192706140 -1 0
-0.2053626760 -0.0186187220 -1 0
-0.2104616550 -0.0181874170 -1 0
-0.2155118820 -0.0181357330 -1 0
-0.2205017460 -0.0185710680 -1 0
-0.2254140520 -0.0195372410 -1 0
-0.2302340030 -0.0210136940 -1 0
-0.2349533310 -0.0229233970 -1 0
-0.2395669670 -0.0251444160 -1 0
-0.2440661170 -0.0275218920 -1 0
-0.2484359010 -0.0298820330 -1 0
-0.2526604250 -0.0320503870 -1 -1
-0.2567293520 -0.0338719490 -1 -1
-0.2606382230 -0.0352277090 -1 -1
-0.2643826010 -0.0360450670 -1 -1
-0.2679541230 -0.0363030150 -1 -1
-0.2713435820 -0.0360324320 -1 -1
-0.2745461070 -0.0353109130 -1 -1
-0.2775612420 -0.0342531260 -1 -1
-0.2803887830 -0.0329991350 -1 -1
-0.2830270400 -0.0317021620 -1 -1
-0.2854760590 -0.0305154210 -1 -1
-0.2877417140 -0.0295781130 -1 0
-0.2898367170 -0.0290027320 -1 0
-0.2917790500 -0.0288657870 -1 0
-0.2935894110 -0.0292017860 -1 0
-0.2952875060 -0.0299995170 -1 0
-0.2968872040 -0.0312014430 -1 -1
-0.2983926870 -0.0327084130 -1 -1
-0.2997986710 -0.0343901130 -1 -1
-0.3010953870 -0.0360987670 -1 -1
-0.3022749460 -0.0376830760 -1 -1
-0.3033347570 -0.0390009820 -1 -1
-0.3042767600 -0.0399316760 -1 -1
-0.3051042800 -0.0403875800 -1 -1
-0.3058191090 -0.0403246770 -1 -1
-0.3064201900 -0.0397477610 -1 -1
-0.3069038370 -0.0387091850 -1 -1
-0.3072648950 -0.0373030430 -1 -1
-0.3074989080 -0.0356570790 -1 -1
-0.3076059190 -0.0339223760 -1 -1
-0.3075949760 -0.0322599040 -1 -1
-0.3074865300 -0.0308247610 -1 -1
-0.3073110560 -0.0297505980 -1 0
-0.3071054330 -0.0291365790 -1 0
-0.3069090590 -0.0290382980 -1 0
-0.3067593900 -0.0294635270 -1 0
-0.3066862270 -0.0303730660 -1 -1
-0.3067064760 -0.0316853390 -1 -1
-0.3068221680 -0.0332827670 -1 -1
-0.3070224870 -0.0350197590 -1 -1
-0.3072880070 -0.0367337490 -1 -1
-0.3075948660 -0.0382601840 -1 -1
-0.3079181660 -0.0394503250 -1 -1
-0.3082351890 -0.0401884580 -1 -1
-0.3085289790 -0.0404047120 -1 -1
-0.3087919560 -0.0400818470 -1 -1
-0.3090275630 -0.0392564660 -1 -1
-0.3092472510 -0.0380151080 -1 -1
-0.3094629160 -0.0364851440 -1 -1
-0.3096797540 -0.0348213150 -1 -1
-0.3098949810 -0.0331897600 -1 -1
-0.3101022650 -0.0317518240 -1 -1
-0.3102968230 -0.0306493490 -1 -1
-0.3104771900 -0.0299918370 -1 0
-0.3106441520 -0.0298456780 -1 0
-0.3107992840 -0.0302267660 -1 -1
-0.3109436910 -0.0310976040 -1 -1
-0.3110765780 -0.0323687970 -1 -1
-0.3111948830 -0.0339053440 -1 -1
-0.3112952060 -0.0355394700 -1 -1
-0.3113768130 -0.0370901330 -1 -1
-0.3114428900 -0.0383852390 -1 -1
-0.3114981710 -0.0392811140 -1 -1
-0.3115436090 -0.0396763210 -1 -1
-0.3115709320 -0.0395199360 -1 -1
-0.3115600350 -0.0388155580 -1 -1
-0.3114815530 -0.0376218290 -1 -1
-0.3113063590 -0.0360485250 -1 -1
-0.3110199520 -0.0342473360 -1 -1
-0.3106335620 -0.0323977510 -1 -1
-0.3101841090 -0.0306885970 -1 -1
-0.3097235570 -0.0292969630 -1 0
-0.3093048160 -0.0283688260 -1 0
-0.3089700720 -0.0280040450 -1 0
-0.3087432500 -0.0282449300 -1 0
-0.3086274550 -0.0290701290 -1 0
-0.3086085710 -0.0303983520 -1 -1
-0.3086633110 -0.0321013290 -1 -1
-0.3087669840 -0.0340198740 -1 -1
-0.3088975650 -0.0359783370 -1 -1
-0.3090369180 -0.0377976080 -1 -1
-0.3091720710 -0.0393093440 -1 -1
-0.3092970990 -0.0403720540 -1 -1
-0.3094129370 -0.0408861290 -1 -1
-0.3095233520 -0.0408046130 -1 -1
-0.3096289880 -0.0401381140 -1 -1
-0.3097230240 -0.0389531320 -1 -1
-0.3097908080 -0.0373648770 -1 -1
-0.3098137020 -0.0355270820 -1 -1
-0.3097748320 -0.0336195170 -1 -1
-0.3096625570 -0.0318314610 -1 -1
-0.3094687060 -0.0303410990 -1 -1
-0.3091833200 -0.0292946910 -1 0
-0.3087908280 -0.0287904790 -1 0
-0.3082704980 -0.0288698080 -1 0
-0.3076002220 -0.0295150780 -1 0
-0.3067624600 -0.0306537640 -1 -1
-0.3057526930 -0.0321681280 -1 -1
-0.3045890790 -0.0339091270 -1 -1
-0.3033173660 -0.0357117880 -1 -1
-0.3020055080 -0.0374099890 -1 -1
-0.3007296550 -0.0388505370 -1 -1
-0.2995585960 -0.0399071540 -1 -1
-0.2985427390 -0.0404935570 -1 -1
-0.2977098380 -0.0405726420 -1 -1
-0.2970662390 -0.0401589620 -1 -1
-0.2966006050 -0.0393144740 -1 -1
-0.2962876000 -0.0381395820 -1 -1
-0.2960915970 -0.0367617420 -1 -1
-0.2959728200 -0.0353237710 -1 -1
-0.2958968780 -0.0339731160 -1 -1
-0.2958439770 -0.0328515320 -1 -1
-0.2958122890 -0.0320837850 -1 -1
-0.2958137470 -0.0317647790 -1 -1
-0.2958643980 -0.0319464740 -1 -1
-0.2959722340 -0.0326282750 -1 -1
-0.2961273250 -0.0337549020 -1 -1
-0.2963015680 -0.0352228280 -1 -1
-0.2964606140 -0.0368927490 -1 -1
-0.2965802050 -0.0386046740 -1 -1
-0.2966554340 -0.0401939210 -1 -1
-0.2966983600 -0.0415074650 -1 -1
-0.2967281330 -0.0424191260 -1 -1
-0.2967606350 -0.0428412290 -1 -1
-0.2968024910 -0.0427319960 -1 -1
-0.2968510970 -0.0420998050 -1 -1
-0.2968996850 -0.0410041220 -1 -1
-0.2969441470 -0.0395516850 -1 -1
-0.2969867320 -0.0378878280 -1 -1
-0.2970325780 -0.0361836000 -1 -1
-0.2970803780 -0.0346191490 -1 -1
-0.2971150570 -0.0333650700 -1 -1
-0.2971104240 -0.0325642960 -1 -1
-0.2970412380 -0.0323167790 -1 -1
-0.2968956220 -0.0326685590 -1 -1
-0.2966794270 -0.0336058970 -1 -1
-0.2964122110 -0.0350546480 -1 -1
-0.2961203540 -0.0368856950 -1 -1
-0.2958312680 -0.0389277670 -1 -1
-0.2955684350 -0.0409874840 -1 -1
-0.2953464400 -0.0428730070 -1 -1
-0.2951673570 -0.0444152370 -1 -1
-0.2950207490 -0.0454829310 -1 -1
-0.2948885790 -0.0459929180 -1 -1
-0.2947541270 -0.0459177460 -1 -1
-0.2946108700 -0.0452899490 -1 -1
-0.2944659990 -0.0441993650 -1 -1
-0.2943362830 -0.0427816740 -1 -1
-0.2942391410 -0.0412004460 -1 -1
-0.2941844090 -0.0396272770 -1 -1
-0.2941701300 -0.0382239180 -1 -1
-0.2941822280 -0.0371283650 -1 -1
-0.2941964820 -0.0364449680 -1 -1
-0.2941823490 -0.0362375730 -1 -1
-0.2941091400 -0.0365251680 -1 -1
-0.2939535490 -0.0372797810 -1 -1
-0.2937055150 -0.0384264090 -1 -1
-0.2933704450 -0.0398468930 -1 -1
-0.2929684940 -0.0413910300 -1 -1
-0.2925319580 -0.0428946160 -1 -1
-0.2921005380 -0.0441990260 -1 -1
-0.2917143620 -0.0451668450 -1 -1
-0.2914064420 -0.0456928920 -1 -1
-0.2911968260 -0.0457132030 -1 -1
-0.2910890820 -0.0452126600 -1 -1
-0.2910690940 -0.0442286800 -1 -1
-0.2911076300 -0.0428481160 -1 -1
-0.2911681560 -0.0411971720 -1 -1
-0.2912172780 -0.0394271770 -1 -1
-0.2912314740 -0.0376996110 -1 -1
-0.2911965420 -0.0361711850 -1 -1
-0.2911029820 -0.0349785420 -1 -1
-0.2909438760 -0.0342240980 -1 -1
-0.2907186610 -0.0339653530 -1 -1
-0.2904394930 -0.0342087740 -1 -1
-0.2901332990 -0.0349091390 -1 -1
-0.2898371230 -0.0359756030 -1 -1
-0.2895909180 -0.0372845620 -1 -1
-0.2894320210 -0.0386966450 -1 -1
-0.2893915370 -0.0400721330 -1 -1
-0.2894911980 -0.0412801910 -1 -1
-0.2897400630 -0.0422036690 -1 -1
-0.2901313590 -0.0427449390 -1 -1
-0.2906406590 -0.0428348710 -1 -1
-0.2912269170 -0.0424424620 -1 -1
-0.2918372890 -0.0415820390 -1 -1
-0.2924154480 -0.0403159290 -1 -1
-0.2929109300 -0.0387505410 -1 -1
-0.2932858250 -0.0370250200 -1 -1
-0.2935178950 -0.0352944870 -1 -1
-0.2936027220 -0.0337120530 -1 -1
-0.2935558170 -0.0324143940 -1 -1
-0.2934115840 -0.0315130430 -1 -1
-0.2932171560 -0.0310888510 -1 -1
-0.2930235610 -0.0311851860 -1 -1
-0.2928774050 -0.0317993560 -1 -1
-0.2928132700 -0.0328772620 -1 -1
-0.2928459870 -0.0343159600 -1 -1
-0.2929642100 -0.0359741290 -1 -1
-0.2931294170 -0.0376878400 -1 -1
-0.2932834980 -0.0392892930 -1 -1
-0.2933623050 -0.0406258180 -1 -1
-0.2933085150 -0.0415758320 -1 -1
-0.2930804240 -0.0420597620 -1 -1
-0.2926573980 -0.0420454790 -1 -1
-0.2920416320 -0.0415481140 -1 -1
-0.2912546570 -0.0406254420 -1 -1
-0.2903309620 -0.0393720370 -1 -1
-0.2893146460 -0.0379140080 -1 -1
-0.2882614700 -0.0364019660 -1 -1
-0.2872412360 -0.0349984400 -1 -1
-0.2863330830 -0.0338595830 -1 -1
-0.2856117770 -0.0331159240 -1 -1
-0.2851299630 -0.0328580980 -1 -1
-0.2849042210 -0.0331295120 -1 -1
-0.2849114080 -0.0339237360 -1 -1
-0.2850975590 -0.0351847490 -1 -1
-0.2853956040 -0.0368107330 -1 -1
-0.2857435370 -0.0386626880 -1 -1
-0.2860952290 -0.0405781000 -1 -1
-0.2864212180 -0.0423879210 -1 -1
-0.2867021260 -0.0439341950 -1 -1
-0.2869204920 -0.0450864340 -1 -1
-0.2870576520 -0.0457554770 -1 -1
-0.2870984680 -0.0459028790 -1 -1
-0.2870384220 -0.0455439100 -1 -1
-0.2868846900 -0.0447438910 -1 -1
-0.2866506220 -0.0436096890 -1 -1
-0.2863506870 -0.0422781180 -1 -1
-0.2860002390 -0.0409017360 -1 -1
-0.2856178180 -0.0396331000 -1 -1
-0.2852258750 -0.0386103500 -1 -1
-0.2848482420 -0.0379464640 -1 -1
-0.2845052260 -0.0377219140 -1 -1
-0.2842082930 -0.0379786100 -1 -1
-0.2839564710 -0.0387138950 -1 -1
-0.2837367130 -0.0398762640 -1 -1
-0.2835290930 -0.0413666380 -1 -1
-0.2833146910 -0.0430470740 -1 -1
-0.2830822600 -0.0447546610 -1 -1
-0.2828317180 -0.0463177570 -1 -1
-0.2825749330 -0.0475743110 -1 -1
-0.2823340770 -0.0483912720 -1 -1
-0.2821371950 -0.0486807730 -1 -1
-0.2820114060 -0.0484091060 -1 -1
-0.2819754330 -0.0475979040 -1 -1
-0.2820342650 -0.0463196350 -1 -1
-0.2821784820 -0.0446898540 -1 -1
-0.2823883710 -0.0428565470 -1 -1
-0.2826402830 -0.0409854740 -1 -1
-0.2829117700 -0.0392427150 -1 -1
-0.2831838940 -0.0377782570 -1 -1
-0.2834423030 -0.0367133930 -1 -1
-0.2836788230 -0.0361320440 -1 -1
-0.2838921570 -0.0360754520 -1 -1
-0.2840856450 -0.0365404410 -1 -1
-0.2842634220 -0.0374806140 -1 -1
-0.2844282170 -0.0388087400 -1 -1
-0.2845823390 -0.0404006610 -1 -1
-0.2847298470 -0.0421039220 -1 -1
-0.2848751870 -0.0437524030 -1 -1
-0.2850155880 -0.0451834650 -1 -1
-0.2851319610 -0.0462539560 -1 -1
-0.2851879980 -0.0468550810 -1 -1
-0.2851424090 -0.0469258910 -1 -1
-0.2849683550 -0.0464619860 -1 -1
-0.2846672540 -0.0455164960 -1 -1
-0.2842676840 -0.0441938230 -1 -1
-0.2838119430 -0.0426379540 -1 -1
-0.2833420810 -0.0410165360 -1 -1
-0.2828936410 -0.0395027490 -1 -1
-0.2824949810 -0.0382579000 -1 -1
-0.2821667920 -0.0374162830 -1 -1
-0.2819206140 -0.0370725350 -1 -1
-0.2817575230 -0.0372725170 -1 -1
-0.2816671660 -0.0380090830 -1 -1
-0.2816271140 -0.0392219630 -1 -1
-0.2816032910 -0.0407997960 -1 -1
-0.2815529110 -0.0425860560 -1 -1
-0.2814316220 -0.0443938460 -1 -1
-0.2812047900 -0.0460298980 -1 -1
-0.2808591610 -0.0473203250 -1 -1
-0.2804084920 -0.0481301240 -1 -1
-0.2798892760 -0.0483748910 -1 -1
-0.2793494130 -0.0480270940 -1 -1
-0.2788366510 -0.0471178440 -1 -1
-0.2783904490 -0.0457338490 -1 -1
-0.2780369790 -0.0440093720 -1 -1
-0.2777875410 -0.0421123500 -1 -1
-0.2776417670 -0.0402257700 -1 -1
-0.2775946270 -0.0385290980 -1 -1
-0.2776430830 -0.0371832320 -1 -1
-0.2777874280 -0.0363178120 -1 -1
-0.2780256270 -0.0360192140 -1 -1
-0.2783451000 -0.0363204210 -1 -1
-0.2787187360 -0.0371955820 -1 -1
-0.2791067300 -0.0385619960 -1 -1
-0.2794606790 -0.0402902210 -1 -1
-0.2797280680 -0.0422195910 -1 -1
-0.2798589930 -0.0441748990 -1 -1
-0.2798158910 -0.0459818510 -1 -1
-0.2795829640 -0.0474816970 -1 -1
-0.2791709070 -0.0485458830 -1 -1
-0.2786150510 -0.0490898000 -1 -1
-0.2779674890 -0.0490825270 -1 -1
-0.2772855050 -0.0485488920 -1 -1
-0.2766210870 -0.0475628730 -1 -1
-0.2760168510 -0.0462353040 -1 -1
-0.2755085180 -0.0447004530 -1 -1
-0.2751282260 -0.0431044070 -1 -1
-0.2749042300 -0.0415955380 -1 -1
-0.2748574620 -0.0403159720 -1 -1
-0.2749966730 -0.0393928900 -1 -1
-0.2753126460 -0.0389278210 -1 -1
-0.2757726570 -0.0389831890 -1 -1
-0.2763184480 -0.0395698100 -1 -1
-0.2768717540 -0.0406412040 -1 -1
-0.2773487630 -0.0420972000 -1 -1
-0.2776793410 -0.0437950530 -1 -1
-0.2778230230 -0.0455651290 -1 -1
-0.2777753570 -0.0472288870 -1 -1
-0.2775634090 -0.0486173210 -1 -1
-0.2772341430 -0.0495880790 -1 -1
-0.2768411490 -0.0500394770 -1 -1
-0.2764334490 -0.0499201620 -1 -1
-0.2760484020 -0.0492344020 -1 -1
-0.2757097520 -0.0480432240 -1 -1
-0.2754295890 -0.0464604760 -1 -1
-0.2752116880 -0.0446426590 -1 -1
-0.2750553930 -0.0427727420 -1 -1
-0.2749593040 -0.0410395210 -1 -1
-0.2749218370 -0.0396156190 -1 -1
-0.2749370300 -0.0386383680 -1 -1
-0.2749897930 -0.0381962510 -1 -1
-0.2750560850 -0.0383214920 -1 -1
-0.2751081690 -0.0389888950 -1 -1
-0.2751215740 -0.0401204200 -1 -1
-0.2750817140 -0.0415944340 -1 -1
-0.2749882460 -0.0432593560 -1 -1
-0.2748544500 -0.0449505970 -1 -1
-0.2747012100 -0.0465069890 -1 -1
-0.2745494040 -0.0477833220 -1 -1
-0.2744151740 -0.0486598380 -1 -1
-0.2743088480 -0.0490515620 -1 -1
-0.2742352510 -0.0489177780 -1 -1
-0.2741936620 -0.0482679600 -1 -1
-0.2741778960 -0.0471605360 -1 -1
-0.2741780230 -0.0456953120 -1 -1
-0.2741839290 -0.0440029380 -1 -1
-0.2741885800 -0.0422330660 -1 -1
-0.2741888560 -0.0405418460 -1 -1
-0.2741839880 -0.0390797670 -1 -1
-0.2741725200 -0.0379801420 -1 -1
-0.2741484150 -0.0373478010 -1 -1
-0.2740981290 -0.0372476140 -1 -1
-0.2740017270 -0.0376939130 -1 -1
-0.2738382990 -0.0386437590 -1 -1
-0.2735904640 -0.0399965370 -1 -1
-0.2732428860 -0.0416018760 -1 -1
-0.2727777910 -0.0432773800 -1 -1
-0.2721762880 -0.0448329510 -1 -1
-0.2714295180 -0.0460941020 -1 -1
-0.2705539260 -0.0469198010 -1 -1
-0.2696002010 -0.0472156850 -1 -1
-0.2686491400 -0.0469436220 -1 -1
-0.2677952370 -0.0461261690 -1 -1
-0.2671240010 -0.0448440880 -1 -1
-0.2666902790 -0.0432266050 -1 -1
-0.2665044520 -0.0414358760 -1 -1
-0.2665318390 -0.0396487830 -1 -1
-0.2667062480 -0.0380392020 -1 -1
-0.2669516490 -0.0367621040 -1 -1
-0.2672019390 -0.0359396730 -1 -1
-0.2674119820 -0.0356502470 -1 -1
-0.2675602030 -0.0359210910 -1 -1
-0.2676459570 -0.0367251060 -1 -1
-0.2676818510 -0.0379819560 -1 -1
-0.2676806870 -0.0395647280 -1 -1
-0.2676425790 -0.0413124260 -1 -1
-0.2675504960 -0.0430478460 -1 -1
-0.2673759240 -0.0445984380 -1 -1
-0.2670883260 -0.0458150760 -1 -1
-0.2666619480 -0.0465851160 -1 -1
-0.2660796150 -0.0468403820 -1 -1
-0.2653375360 -0.0465618230 -1 -1
-0.2644531980 -0.0457811960 -1 -1
-0.2634723620 -0.0445787530 -1 -1
-0.2624680960 -0.0430754960 -1 -1
-0.2615293370 -0.0414200940 -1 -1
-0.2607435290 -0.0397728030 -1 -1
-0.2601804080 -0.0382890170 -1 -1
-0.2598815980 -0.0371042500 -1 -1
-0.2598570480 -0.0363221380 -1 -1
-0.2600868500 -0.0360065360 -1 -1
-0.2605265650 -0.0361778980 -1 -1
-0.2611141900 -0.0368131740 -1 -1
-0.2617766690 -0.0378482440 -1 -1
-0.2624350250 -0.0391824350 -1 -1
-0.2630096170 -0.0406856750 -1 -1
-0.2634271730 -0.0422091920 -1 -1
-0.2636290780 -0.0435996160 -1 -1
-0.2635800010 -0.0447148010 -1 -1
-0.2632758660 -0.0454386660 -1 -1
-0.2627479040 -0.0456923650 -1 -1
-0.2620588100 -0.0454407990 -1 -1
-0.2612905830 -0.0446955510 -1 -1
-0.2605277910 -0.0435152070 -1 -1
-0.2598422250 -0.0420023490 -1 -1
-0.2592841580 -0.0402956070 -1 -1
-0.2588813450 -0.0385563240 -1 -1
-0.2586423350 -0.0369515430 -1 -1
-0.2585600070 -0.0356361610 -1 -1
-0.2586141700 -0.0347369180 -1 -1
-0.2587742580 -0.0343402170 -1 -1
-0.2590032920 -0.0344845140 -1 -1
-0.2592636540 -0.0351569370 -1 -1
-0.2595238160 -0.0362940030 -1 -1
-0.2597631580 -0.0377871680 -1 -1
-0.2599724740 -0.0394932510 -1 -1
-0.2601509770 -0.0412485220 -1 -1
-0.2603022010 -0.0428847040 -1 -1
-0.2604295720 -0.0442456190 -1 -1
-0.2605318260 -0.0452036440 -1 -1
-0.2606005520 -0.0456740700 -1 -1
-0.2606227370 -0.0456241600 -1 -1
-0.2605875490 -0.0450752170 -1 -1
-0.2604927130 -0.0440990360 -1 -1
-0.2603467770 -0.0428103620 -1 -1
-0.2601673050 -0.0413554250 -1 -1
-0.2599771130 -0.0398969490 -1 -1
-0.2598000980 -0.0385978290 -1 -1
-0.2596568180 -0.0376062440 -1 -1
-0.2595591940 -0.0370431190 -1 -1
-0.2595042410 -0.0369909790 -1 -1
-0.2594696240 -0.0374838800 -1 -1
-0.2594162760 -0.0385006120 -1 -1
-0.2592996030 -0.0399643590 -1 -1
-0.2590834400 -0.0417500700 -1 -1
-0.2587493690 -0.0436985210 -1 -1
-0.2582995470 -0.0456350600 -1 -1
-0.2577552680 -0.0473899780 -1 -1
-0.2571526390 -0.0488165540 -1 -1
-0.2565355120 -0.0498038040 -1 -1
-0.2559469400 -0.0502830500 -1 -1
-0.2554215170 -0.0502289820 -1 -1
-0.2549804890 -0.0496572270 -1 -1
-0.2546305590 -0.0486214120 -1 -1
-0.2543662140 -0.0472109730 -1 -1
-0.2541738040 -0.0455474680 -1 -1
-0.2540351230 -0.0437768690 -1 -1
-0.2539289130 -0.0420577790 -1 -1
-0.2538305680 -0.0405468240 -1 -1
-0.2537129600 -0.0393829050 -1 -1
-0.2535517310 -0.0386722750 -1 -1
-0.2533339830 -0.0384755130 -1 -1
-0.2530648110 -0.0387980400 -1 -1
-0.2527668380 -0.0395878020 -1 -1
-0.2524718510 -0.0407425010 -1 -1
-0.2522075530 -0.0421245750 -1 -1
-0.2519853760 -0.0435795730 -1 -1
-0.2517957890 -0.0449533010 -1 -1
-0.2516137750 -0.0461048900 -1 -1
-0.2514111430 -0.0469158480 -1 -1
-0.2511682800 -0.0472969890 -1 -1
-0.2508795720 -0.0471950100 -1 -1
-0.2505523910 -0.0465988780 -1 -1
-0.2502027880 -0.0455442540 -1 -1
-0.2498501790 -0.0441137880 -1 -1
-0.2495121270 -0.0424321970 -1 -1
-0.2492006380 -0.0406555420 -1 -1
-0.2489211040 -0.0389547350 -1 -1
-0.2486735080 -0.0374959290 -1 -1
-0.2484546780 -0.0364216040 -1 -1
-0.2482607700 -0.0358339750 -1 -1
-0.2480893550 -0.0357818620 -1 -1
-0.2479397420 -0.0362539350 -1 -1
-0.2478105030 -0.0371806270 -1 -1
-0.2476958010 -0.0384436710 -1 -1
-0.2475839700 -0.0398901400 -1 -1
-0.2474603770 -0.0413496760 -1 -1
-0.2473135790 -0.0426550810 -1 -1
-0.2471419280 -0.0436629190 -1 -1
-0.2469575070 -0.0442678780 -1 -1
-0.2467849890 -0.0444084400 -1 -1
-0.2466555950 -0.0440667550 -1 -1
-0.2465993770 -0.0432669160 -1 -1
-0.2466392590 -0.0420739760 -1 -1
-0.2467872030 -0.0405924460 -1 -1
-0.2470413090 -0.0389599560 -1 -1
-0.2473849770 -0.0373338380 -1 -1
-0.2477906470 -0.0358739240 -1 -1
-0.2482269760 -0.0347256460 -1 -1
-0.2486635810 -0.0340035890 -1 -1
-0.2490685050 -0.0337759460 -1 -1
-0.2494018720 -0.0340546020 -1 -1
-0.2496161850 -0.0347947120 -1 -1
-0.2496693640 -0.0359031650 -1 -1
-0.2495439570 -0.0372535220 -1 -1
-0.2492588400 -0.0387039710 -1 -1
-0.2488653520 -0.0401137040 -1 -1
-0.2484312190 -0.0413547870 -1 -1
-0.2480213790 -0.0423192140 -1 -1
-0.2476830060 -0.0429228750 -1 -1
-0.2474387420 -0.0431092930 -1 -1
-0.2472891840 -0.0428545240 -1 -1
-0.2472218500 -0.0421715130 -1 -1
-0.2472207640 -0.0411114940 -1 -1
-0.2472709140 -0.0397623990 -1 -1
-0.2473561460 -0.0382451170 -1 -1
-0.2474548960 -0.0367056740 -1 -1
-0.2475399120 -0.0353010460 -1 -1
-0.2475840660 -0.0341805610 -1 -1
-0.2475688880 -0.0334677330 -1 -1
-0.2474906600 -0.0332461160 -1 -1
-0.2473614760 -0.0335501240 -1 -1
-0.2472057180 -0.0343603220 -1 -1
-0.2470530880 -0.0356038880 -1 -1
-0.2469292480 -0.0371616550 -1 -1
-0.2468473500 -0.0388813040 -1 -1
-0.2468056980 -0.0405946080 -1 -1
-0.2467928930 -0.0421361200 -1 -1
-0.2467945600 -0.0433600810 -1 -1
-0.2467945860 -0.0441531580 -1 -1
-0.2467708110 -0.0444430790 -1 -1
-0.2466923590 -0.0442044180 -1 -1
-0.2465252650 -0.0434615300 -1 -1
-0.2462455060 -0.0422873860 -1 -1
-0.2458516710 -0.0407974600 -1 -1
-0.2453697800 -0.0391386690 -1 -1
-0.2448485030 -0.0374740860 -1 -1
-0.2443479150 -0.0359655850 -1 -1
-0.2439263780 -0.0347572650 -1 -1
-0.2436294210 -0.0339613600 -1 -1
-0.2434823750 -0.0336471410 -1 -1
-0.2434868760 -0.0338331680 -1 -1
-0.2436216120 -0.0344837660 -1 -1
-0.2438482700 -0.0355113150 -1 -1
-0.2441214350 -0.0367862190 -1 -1
-0.2443977120 -0.0381542230 -1 -1
-0.2446396450 -0.0394562070 -1 -1
-0.2448153790 -0.0405443600 -1 -1
-0.2448987590 -0.0412939360 -1 -1
-0.2448725750 -0.0416140350 -1 -1
-0.2447335890 -0.0414584250 -1 -1
-0.2444966280 -0.0408327060 -1 -1
-0.2441952860 -0.0397929630 -1 -1
-0.2438774800 -0.0384350440 -1 -1
-0.2435960690 -0.0368797270 -1 -1
-0.2433974650 -0.0352603120 -1 -1
-0.2433125460 -0.0337139370 -1 -1
-0.2433526810 -0.0323734750 -1 -1
-0.2435106620 -0.0313580540 -1 -1
-0.2437648830 -0.0307630610 -1 -1
-0.2440853470 -0.0306507100 -1 -1
-0.2444402580 -0.0310416560 -1 -1
-0.2448014420 -0.0319092530 -1 -1
-0.2451469690 -0.0331792340 -1 -1
-0.2454606090 -0.0347362540 -1 -1
-0.2457292040 -0.0364360250 -1 -1
-0.2459395160 -0.0381205020 -1 -1
-0.2460758280 -0.0396334530 -1 -1
-0.2461191920 -0.0408343000 -1 -1
-0.2460490510 -0.0416096900 -1 -1
-0.2458475070 -0.0418835690 -1 -1
-0.2455053360 -0.0416256360 -1 -1
-0.2450277090 -0.0408558740 -1 -1
-0.2444371010 -0.0396422690 -1 -1
-0.2437716520 -0.0380922960 -1 -1
-0.2430789200 -0.0363418490 -1 -1
-0.2424068290 -0.0345433110 -1 -1
-0.2417950240 -0.0328531350 -1 -1
-0.2412694430 -0.0314211310 -1 -1
-0.2408403710 -0.0303821140 -1 -1
-0.2405025430 -0.0298465000 -1 0
-0.2402370680 -0.0298876670 -1 0
-0.2400162820 -0.0305292220 -1 -1
-0.2398110340 -0.0317375630 -1 -1
-0.2395969750 -0.0334226300 -1 -1
-0.2393567640 -0.0354465110 -1 -1
-0.2390792590 -0.0376383120 -1 -1
-0.2387594180 -0.0398129590 -1 -1
-0.2384000450 -0.0417903280 -1 -1
-0.2380130350 -0.0434115240 -1 -1
-0.2376173380 -0.0445519790 -1 -1
-0.2372331310 -0.0451324260 -1 -1
-0.2368746830 -0.0451272170 -1 -1
-0.2365457330 -0.0445682020 -1 -1
-0.2362394600 -0.0435428210 -1 -1
-0.2359424300 -0.0421856690 -1 -1
-0.2356403850 -0.0406638660 -1 -1
-0.2353234930 -0.0391581910 -1 -1
-0.2349892740 -0.0378426120 -1 -1
-0.2346424560 -0.0368645050 -1 -1
-0.2342919900 -0.0363283990 -1 -1
-0.2339469780 -0.0362863570 -1 -1
-0.2336139400 -0.0367355730 -1 -1
-0.2332960990 -0.0376208780 -1 -1
-0.2329937080 -0.0388408380 -1 -1
-0.2327051420 -0.0402586920 -1 -1
-0.2324289410 -0.0417187530 -1 -1
-0.2321653890 -0.0430648080 -1 -1
-0.2319153240 -0.0441553490 -1 -1
-0.2316759580 -0.0448745540 -1 -1
-0.2314365860 -0.0451416310 -1 -1
-0.2311785190 -0.0449193030 -1 -1
-0.2308811040 -0.0442191450 -1 -1
-0.2305302080 -0.0431015590 -1 -1
-0.2301233390 -0.0416696430 -1 -1
-0.2296699010 -0.0400579590 -1 -1
-0.2291897660 -0.0384190390 -1 -1
-0.2287124380 -0.0369101180 -1 -1
-0.2282748120 -0.0356803350 -1 -1
-0.2279146070 -0.0348573700 -1 -1
-0.2276609760 -0.0345333860 -1 -1
-0.2275272480 -0.0347525410 -1 -1
-0.2275084710 -0.0355038510 -1 -1
-0.2275828530 -0.0367217700 -1 -1
-0.2277162440 -0.0382943200 -1 -1
-0.2278691950 -0.0400768890 -1 -1
-0.2280046560 -0.0419084660 -1 -1
-0.2280941340 -0.0436268880 -1 -1
-0.2281216790 -0.0450815620 -1 -1
-0.2280853420 -0.0461446800 -1 -1
-0.2279954620 -0.0467223030 -1 -1
-0.2278705310 -0.0467640780 -1 -1
-0.2277328990 -0.0462686860 -1 -1
-0.2276053230 -0.0452841290 -1 -1
-0.2275073220 -0.0439042770 -1 -1
-0.2274507820 -0.0422629370 -1 -1
-0.2274368130 -0.0405245930 -1 -1
-0.2274563690 -0.0388698940 -1 -1
-0.2274940950 -0.0374761830 -1 -1
-0.2275323210 -0.0364963800 -1 -1
-0.2275535050 -0.0360399160 -1 -1
-0.2275421040 -0.0361591900 -1 -1
-0.2274870520 -0.0368443580 -1 -1
-0.2273841520 -0.0380260390 -1 -1
-0.2272366050 -0.0395829120 -1 -1
-0.2270527570 -0.0413530210 -1 -1
-0.2268417250 -0.0431500110 -1 -1
-0.2266089990 -0.0447836360 -1 -1
-0.2263548410 -0.0460809840 -1 -1
-0.2260771950 -0.0469048150 -1 -1
-0.2257775360 -0.0471672630 -1 -1
-0.2254653860 -0.0468382930 -1 -1
-0.2251582660 -0.0459475980 -1 -1
-0.2248774270 -0.0445789300 -1 -1
-0.2246423550 -0.0428584450 -1 -1
-0.2244669060 -0.0409403610 -1 -1
-0.2243577130 -0.0389922950 -1 -1
-0.2243133020 -0.0371806640 -1 -1
-0.2243229650 -0.0356559510 -1 -1
-0.2243671060 -0.0345389130 -1 -1
-0.2244210150 -0.0339104180 -1 -1
-0.2244611830 -0.0338069080 -1 -1
-0.2244707010 -0.0342204740 -1 -1
-0.2244408950 -0.0351008520 -1 -1
-0.2243702040 -0.0363580860 -1 -1
-0.2242634370 -0.0378665450 -1 -1
-0.2241319680 -0.0394714010 -1 -1
-0.2239922150 -0.0409991510 -1 -1
-0.2238603930 -0.0422744540 -1 -1
-0.2237451640 -0.0431429230 -1 -1
-0.2236430530 -0.0434939130 -1 -1
-0.2235406500 -0.0432753800 -1 -1
-0.2234224350 -0.0424981600 -1 -1
-0.2232788780 -0.0412323910 -1 -1
-0.2231107870 -0.0395983720 -1 -1
-0.2229300510 -0.0377530010 -1 -1
-0.2227580960 -0.0358741000 -1 -1
-0.2226216750 -0.0341440390 -1 -1
-0.2225459820 -0.0327319580 -1 -1
-0.2225476720 -0.0317752630 -1 -1
-0.2226306900 -0.0313634740 -1 -1
-0.2227853150 -0.0315277430 -1 -1
-0.2229893830 -0.0322388490 -1 -1
-0.2232116670 -0.0334144020 -1 -1
-0.2234174400 -0.0349317810 -1 -1
-0.2235741820 -0.0366420840 -1 -1
-0.2236550510 -0.0383836270 -1 -1
-0.2236401150 -0.0399954730 -1 -1
-0.2235171190 -0.0413299900 -1 -1
-0.2232831260 -0.0422632770 -1 -1
-0.2229463760 -0.0427046130 -1 -1
-0.2225259710 -0.0426062260 -1 -1
-0.2220485530 -0.0419714780 -1 -1
-0.2215443960 -0.0408571990 -1 -1
-0.2210447500 -0.0393681460 -1 -1
-0.2205785110 -0.0376458310 -1 -1
-0.2201661740 -0.0358550980 -1 -1
-0.2198137370 -0.0341696410 -1 -1
-0.2195118770 -0.0327559260 -1 -1
-0.2192423410 -0.0317553120 -1 -1
-0.2189874180 -0.0312661500 -1 -1
-0.2187366690 -0.0313296880 -1 -1
-0.2184886730 -0.0319240870 -1 -1
-0.2182489570 -0.0329685180 -1 -1
-0.2180258960 -0.0343356930 -1 -1
-0.2178265580 -0.0358686010 -1 -1
-0.2176543230 -0.0373965740 -1 -1
