-0.0200551100 0.0341458130 0 1
-0.0196184250 0.0358748540 0 1
-0.0193530940 0.0368872660 0 1
-0.0192725370 0.0370582820 0 1
-0.0193846890 0.0363402460 0 1
-0.0196866960 0.0347702690 0 1
-0.0201605770 0.0324687100 0 1
-0.0207715900 0.0296294660 0 0
-0.0214700310 0.0265040500 0 0
-0.0221969630 0.0233795690 0 0
-0.0228933350 0.0205507980 0 0
-0.0235098770 0.0182894790 0 0
-0.0240143320 0.0168152550 0 0
-0.0243938600 0.0162710520 0 0
-0.0246529770 0.0167050920 0 0
-0.0248093430 0.0180626380 0 0
-0.0248894120 0.0201899830 0 0
-0.0249241870 0.0228513530 0 0
-0.0249445890 0.0257570690 0 0
-0.0249769590 0.0285977780 0 0
-0.0250397820 0.0310774570 0 1
-0.0251415670 0.0329404820 0 1
-0.0252795940 0.0339925150 0 1
-0.0254406070 0.0341159500 0 1
-0.0256039370 0.0332788530 0 1
-0.0257449460 0.0315357480 0 1
-0.0258365500 0.0290202720 0 0
-0.0258487900 0.0259319210 0 0
-0.0257482040 0.0225189850 0 0
-0.0254989100 0.0190577620 0 0
-0.0250659780 0.0158280270 0 0
-0.0244200000 0.0130868670 0 0
-0.0235420190 0.0110439610 0 0
-0.0224292580 0.0098413290 0 0
-0.0211008980 0.0095402310 0 0
-0.0196006850 0.0101160800 0 0
-0.0179936330 0.0114602740 0 0
-0.0163573880 0.0133880800 0 0
-0.0147715170 0.0156529820 0 0
-0.0133079000 0.0179678810 0 0
-0.0120233950 0.0200323890 0 0
-0.0109543940 0.0215641170 0 0
-0.0101138080 0.0223302130 0 0
-0.0094916310 0.0221740290 0 0
-0.0090583770 0.0210324250 0 0
-0.0087696170 0.0189422610 0 0
-0.0085715510 0.0160375180 0 0
-0.0084084770 0.0125381990 0 0
-0.0082308150 0.0087293450 0 0
-0.0080007780 0.0049297710 0 0
-0.0076943870 0.0014554230 0 0
-0.0073007990 -0.0014154840 0 0
-0.0068207310 -0.0034708210 0 0
-0.0062650770 -0.0045843800 0 0
-0.0056536000 -0.0047257600 0 0
-0.0050126970 -0.0039590610 0 0
-0.0043717520 -0.0024308210 0 0
-0.0037587560 -0.0003502230 0 0
-0.0031964620 0.0020340890 0 0
-0.0027004220 0.0044567920 0 0
-0.0022798780 0.0066564090 0 0
-0.0019410710 0.0083940930 0 0
-0.0016901630 0.0094722220 0 0
-0.0015322010 0.0097530070 0 0
-0.0014654950 0.0091748340 0 0
-0.0014753670 0.0077624040 0 0
-0.0015326530 0.0056279350 0 0
-0.0015987700 0.0029629280 0 0
-0.0016341520 0.0000211277 0 0
-0.0016058940 -0.0029059560 0 0
-0.0014934350 -0.0055190970 0 0
-0.0012925240 -0.0075448830 0 0
-0.0010161480 -0.0087687340 0 0
-0.0006909140 -0.0090612260 0 0
-0.0003504630 -0.0083923560 0 0
-0.0000293277 -0.0068312270 0 0
0.0002411400 -0.0045323020 0 0
0.0004354250 -0.0017138410 0 0
0.0005359240 0.0013637990 0 0
0.0005341280 0.0044171720 0 0
0.0004304390 0.0071598060 0 0
0.0002329790 0.0093269550 0 0
-0.0000441751 0.0107035080 0 0
-0.0003827540 0.0111494840 0 0
-0.0007604200 0.0106175680 0 0
-0.0011486840 0.0091604840 0 0
-0.0015115480 0.0069279750 0 0
-0.0018085680 0.0041520700 0 0
-0.0020024010 0.0011207410 0 0
-0.0020673100 -0.0018546790 0 0
-0.0019947470 -0.0044714990 0 0
-0.0017942150 -0.0064653470 0 0
-0.0014899100 -0.0076383930 0 0
-0.0011149460 -0.0078829800 0 0
-0.0007051980 -0.0071939040 0 0
-0.0002942340 -0.0056650580 0 0
0.0000898424 -0.0034719030 0 0
0.0004252120 -0.0008463650 0 0
0.0006949090 0.0019483110 0 0
0.0008843610 0.0046394990 0 0
0.0009798430 0.0069651690 0 0
0.0009689560 0.0086934170 0 0
0.0008430790 0.0096421930 0 0
0.0006014610 0.0096983740 0 0
0.0002562390 0.0088307920 0 0
-0.0001637260 0.0070917220 0 0
-0.0006131270 0.0046091100 0 0
-0.0010364000 0.0015750050 0 0
-0.0013787480 -0.0017688270 0 0
-0.0015980730 -0.0051492120 0 0
-0.0016732990 -0.0082833480 0 0
-0.0016064140 -0.0109030500 0 0
-0.0014185500 -0.0127804970 0 0
-0.0011428320 -0.0137527980 0 0
-0.0008172690 -0.0137409260 0 0
-0.0004797790 -0.0127601870 0 0
-0.0001656690 -0.0109217530 0 0
0.0000939511 -0.0084239700 0 0
0.0002749760 -0.0055322850 0 0
0.0003643480 -0.0025503500 0 0
0.0003627770 0.0002124490 0 0
0.0002839590 0.0024730100 0 0
0.0001506450 0.0040040580 0 0
-0.0000104656 0.0046579240 0 0
-0.0001727610 0.0043800740 0 0
-0.0003113630 0.0032114500 0 0
-0.0004030650 0.0012820870 0 0
-0.0004263980 -0.0012024470 0 0
-0.0003626730 -0.0039813100 0 0
-0.0001974080 -0.0067638590 0 0
0.0000783002 -0.0092582130 0 0
0.0004661390 -0.0112009510 0 0
0.0009588480 -0.0123852620 0 0
0.0015395630 -0.0126835580 0 0
0.0021826420 -0.0120611020 0 0
0.0028551250 -0.0105790360 0 0
0.0035183440 -0.0083872030 0 0
0.0041299150 -0.0057077500 0 0
0.0046463220 -0.0028104790 0 0
0.0050263510 0.0000171045 0 0
0.0052357730 0.0024994320 0 0
0.0052528100 0.0043975680 0 0
0.0050726850 0.0055281070 0 0
0.0047097510 0.0057775330 0 0
0.0041969750 0.0051121890 0 0
0.0035827930 0.0035824790 0 0
0.0029255070 0.0013203770 0 0
0.0022867770 -0.0014696060 0 0
0.0017262620 -0.0045261130 0 0
0.0012977890 -0.0075539410 0 0
0.0010459060 -0.0102534430 0 0
0.0010014670 -0.0123523410 0 0
0.0011759540 -0.0136350490 0 0
0.0015560150 -0.0139658310 0 0
0.0021014260 -0.0133029600 0 0
0.0027493190 -0.0117020980 0 0
0.0034244820 -0.0093093760 0 0
0.0040520230 -0.0063458800 0 0
0.0045677170 -0.0030846670 0 0
0.0049234740 0.0001774060 0 0
0.0050891540 0.0031483690 0 0
0.0050535620 0.0055671500 0 0
0.0048252790 0.0072269140 0 0
0.0044313800 0.0079952670 0 0
0.0039130500 0.0078282700 0 0
0.0033194890 0.0067748280 0 0
0.0027021790 0.0049707280 0 0
0.0021104510 0.0026239320 0 0
0.0015880700 -0.0000074165 0 0
0.0011703360 -0.0026410940 0 0
0.0008821180 -0.0049964250 0 0
0.0007375780 -0.0068187890 0 0
0.0007408460 -0.0079048830 0 0
0.0008861890 -0.0081251250 0 0
0.0011572570 -0.0074367680 0 0
0.0015265620 -0.0058873350 0 0
0.0019568750 -0.0036111870 0 0
0.0024051030 -0.0008180850 0 0
0.0028275690 0.0022283570 0 0
0.0031852050 0.0052391520 0 0
0.0034475970 0.0079293540 0 0
0.0035954730 0.0100449310 0 0
0.0036220140 0.0113856860 0 0
0.0035331030 0.0118227660 0 0
0.0033458100 0.0113101020 0 0
0.0030848630 0.0098898570 0 0
0.0027786760 0.0076905370 0 0
0.0024573620 0.0049151190 0 0
0.0021531530 0.0018189390 0 0
0.0019006780 -0.0013180810 0 0
0.0017342140 -0.0042186710 0 0
0.0016816750 -0.0066318780 0 0
0.0017578050 -0.0083534340 0 0
0.0019595220 -0.0092433260 0 0
0.0022650580 -0.0092394240 0 0
0.0026371060 -0.0083656390 0 0
0.0030289730 -0.0067338190 0 0
0.0033920420 -0.0045369180 0 0
0.0036828440 -0.0020301290 0 0
0.0038684700 0.0004982120 0 0
0.0039296520 0.0027591440 0 0
0.0038612700 0.0044938870 0 0
0.0036703450 0.0055013750 0 0
0.0033726520 0.0056615580 0 0
0.0029896870 0.0049514060 0 0
0.0025467710 0.0034488560 0 0
0.0020718490 0.0013224200 0 0
0.0015946480 -0.0011913340 0 0
0.0011462490 -0.0038183640 0 0
0.0007586840 -0.0062807170 0 0
0.0004628890 -0.0083267900 0 0
0.0002838810 -0.0097541400 0 0
0.0002349450 -0.0104245380 0 0
0.0003139820 -0.0102722160 0 0
0.0005032460 -0.0093063580 0 0
0.0007717860 -0.0076093240 0 0
0.0010799450 -0.0053313600 0 0
0.0013857340 -0.0026804700 0 0
0.0016519630 0.0000944204 0 0
0.0018518220 0.0027260700 0 0
0.0019711210 0.0049537960 0 0
0.0020074770 0.0065477120 0 0
0.0019682920 0.0073314080 0 0
0.0018691860 0.0072019320 0 0
0.0017328820 0.0061440540 0 0
0.0015873160 0.0042352980 0 0
0.0014625620 0.0016400260 0 0
0.0013878480 -0.0014070130 0 0
0.0013894420 -0.0046257760 0 0
0.0014883170 -0.0077208720 0 0
0.0016967270 -0.0104113240 0 0
0.0020147150 -0.0124564940 0 0
0.0024283220 -0.0136774090 0 0
0.0029102470 -0.0139732180 0 0
0.0034225740 -0.0133309980 0 0
0.0039209540 -0.0118268440 0 0
0.0043599180 -0.0096176020 0 0
0.0046988560 -0.0069243320 0 0
0.0049073140 -0.0040097770 0 0
0.0049680660 -0.0011525110 0 0
0.0048779310 0.0013793820 0 0
0.0046474720 0.0033516980 0 0
0.0042998320 0.0045822460 0 0
0.0038680040 0.0049543400 0 0
0.0033904250 0.0044271370 0 0
0.0029059040 0.0030418330 0 0
0.0024492910 0.0009212320 0 0
0.0020489070 -0.0017386100 0 0
0.0017258360 -0.0046848320 0 0
0.0014943950 -0.0076312150 0 0
0.0013634640 -0.0102857140 0 0
0.0013380660 -0.0123791360 0 0
0.0014193240 -0.0136929950 0 0
0.0016015120 -0.0140838060 0 0
0.0018677670 -0.0135001540 0 0
0.0021879070 -0.0119899310 0 0
0.0025207480 -0.0096967320 0 0
0.0028200240 -0.0068453280 0 0
0.0030413870 -0.0037175730 0 0
0.0031491960 -0.0006223410 0 0
0.0031222580 0.0021357130 0 0
0.0029570680 0.0042851610 0 0
0.0026677420 0.0056133260 0 0
0.0022831340 0.0059874710 0 0
0.0018425500 0.0053697560 0 0
0.0013913350 0.0038234890 0 0
0.0009764140 0.0015090210 0 0
0.0006414590 -0.0013315690 0 0
0.0004225300 -0.0044009350 0 0
0.0003455410 -0.0073808460 0 0
0.0004255500 -0.0099679030 0 0
0.0006665990 -0.0119047010 0 0
0.0010613890 -0.0130038470 0 0
0.0015911070 -0.0131640760 0 0
0.0022261740 -0.0123777010 0 0
0.0029282550 -0.0107287860 0 0
0.0036535130 -0.0083824940 0 0
0.0043569790 -0.0055671680 0 0
0.0049976960 -0.0025515820 0 0
0.0055439130 0.0003797690 0 0
0.0059774600 0.0029513630 0 0
0.0062959550 0.0049205800 0 0
0.0065114450 0.0060998100 0 0
0.0066458730 0.0063746800 0 0
0.0067256430 0.0057166460 0 0
0.0067766660 0.0041882090 0 0
0.0068196920 0.0019395890 0 0
0.0068660730 -0.0008023820 0 0
0.0069153770 -0.0037534240 0 0
0.0069560780 -0.0065998480 0 0
0.0069692150 -0.0090319970 0 0
0.0069338030 -0.0107776440 0 0
0.0068322870 -0.0116307070 0 0
0.0066538620 -0.0114708010 0 0
0.0063938170 -0.0102726840 0 0
0.0060496540 -0.0081096230 0 0
0.0056175600 -0.0051517120 0 0
0.0050923490 -0.0016537330 0 0
0.0044705880 0.0020710510 0 0
0.0037544670 0.0056868780 0 0
0.0029548820 0.0088738410 0 0
0.0020938780 0.0113625450 0 0
0.0012059600 0.0129596630 0 0
0.0003365060 0.0135607340 0 0
-0.0004630060 0.0131510940 0 0
-0.0011411110 0.0117994810 0 0
-0.0016523390 0.0096485920 0 0
-0.0019624780 0.0069037940 0 0
-0.0020521590 0.0038184390 0 0
-0.0019173190 0.0006742410 0 0
-0.0015662290 -0.0022430080 0 0
-0.0010149050 -0.0046700790 0 0
-0.0002839400 -0.0063914100 0 0
0.0006012240 -0.0072596040 0 0
0.0016069360 -0.0072102780 0 0
0.0026873990 -0.0062701490 0 0
0.0037832500 -0.0045565850 0 0
0.0048245340 -0.0022678510 0 0
0.0057385090 0.0003354910 0 0
0.0064613060 0.0029567970 0 0
0.0069499840 0.0052945840 0 0
0.0071903710 0.0070748360 0 0
0.0071982430 0.0080804930 0 0
0.0070148730 0.0081751970 0 0
0.0067000330 0.0073179780 0 0
0.0063256910 0.0055656650 0 0
0.0059711810 0.0030636020 0 0
0.0057176130 0.0000290645 0 0
0.0056393950 -0.0032693660 0 0
0.0057934090 -0.0065360670 0 0
0.0062080920 -0.0094758140 0 0
0.0068752700 -0.0118228640 0 0
0.0077477800 -0.0133693520 0 0
0.0087449050 -0.0139891810 0 0
0.0097650480 -0.0136524530 0 0
0.0107021950 -0.0124267750 0 0
0.0114612590 -0.0104653850 0 0
0.0119686570 -0.0079859570 0 0
0.0121777470 -0.0052453000 0 0
0.0120712420 -0.0025139350 0 0
0.0116622370 -0.0000534059 0 0
0.0109938100 0.0019026390 0 0
0.0101363320 0.0031650770 0 0
0.0091816390 0.0036044750 0 0
0.0082341430 0.0031627220 0 0
0.0073999320 0.0018586770 0 0
0.0067751740 -0.0002121880 0 0
0.0064353340 -0.0028830480 0 0
0.0064271750 -0.0059266580 0 0
0.0067647760 -0.0090738180 0 0
0.0074287660 -0.0120385680 0 0
0.0083671870 -0.0145467950 0 0
0.0094982930 -0.0163652350 0 0
0.0107174570 -0.0173281570 0 0
0.0119090800 -0.0173574310 0 0
0.0129619200 -0.0164711050 0 0
0.0137850860 -0.0147788240 0 0
0.0143214880 -0.0124669350 0 0
0.0145553620 -0.0097779110 0 0
0.0145114470 -0.0069869350 0 0
0.0142448900 -0.0043764910 0 0
0.0138237730 -0.0022102760 0 0
0.0133108470 -0.0007091220 0 0
0.0127526610 -0.0000310120 0 0
0.0121793350 -0.0002561580 0 0
0.0116112410 -0.0013778200 0 0
0.0110661360 -0.0032998780 0 0
0.0105624910 -0.0058423750 0 0
0.0101185380 -0.0087560560 0 0
0.0097492620 -0.0117466480 0 0
0.0094644220 -0.0145079400 0 0
0.0092692150 -0.0167578760 0 0
0.0091655010 -0.0182691260 0 0
0.0091498230 -0.0188904290 0 0
0.0092084140 -0.0185607250 0 0
0.0093143900 -0.0173163690 0 0
0.0094315920 -0.0152886430 0 0
0.0095238700 -0.0126905610 0 0
0.0095649090 -0.0097944780 0 0
0.0095449330 -0.0069031960 0 0
0.0094730680 -0.0043181480 0 0
0.0093750240 -0.0023079370 0 0
0.0092863480 -0.0010801400 0 0
0.0092434060 -0.0007597670 0 0
0.0092759550 -0.0013772330 0 0
0.0094042440 -0.0028672030 0 0
0.0096404890 -0.0050780580 0 0
0.0099919510 -0.0077895080 0 0
0.0104629130 -0.0107346190 0 0
0.0110547500 -0.0136240820 0 0
0.0117642460 -0.0161732120 0 0
0.0125807440 -0.0181311290 0 0
0.0134833720 -0.0193076030 0 0
0.0144398140 -0.0195920870 0 0
0.0154077580 -0.0189627640 0 0
0.0163393360 -0.0174868480 0 0
0.0171870610 -0.0153140140 0 0
0.0179088150 -0.0126636460 0 0
0.0184709180 -0.0098051000 0 0
0.0188503130 -0.0070308210 0 0
0.0190370110 -0.0046256750 0 0
0.0190365070 -0.0028378810 0 0
0.0188706760 -0.0018546260 0 0
0.0185762690 -0.0017836880 0 0
0.0182014160 -0.0026432820 0 0
0.0178004870 -0.0043613520 0 0
0.0174273330 -0.0067832490 0 0
0.0171280650 -0.0096867210 0 0
0.0169356550 -0.0128037400 0 0
0.0168676320 -0.0158474290 0 0
0.0169259640 -0.0185407520 0 0
0.0170976550 -0.0206432720 0 0
0.0173561110 -0.0219732870 0 0
0.0176642590 -0.0224243410 0 0
0.0179795030 -0.0219752600 0 0
0.0182594300 -0.0206915660 0 0
0.0184673210 -0.0187172410 0 0
0.0185769340 -0.0162593470 0 0
0.0185761380 -0.0135688370 0 0
0.0184683880 -0.0109186130 0 0
0.0182706070 -0.0085792340 0 0
0.0180075440 -0.0067935700 0 0
0.0177055620 -0.0057523120 0 0
0.0173890200 -0.0055732880 0 0
0.0170794010 -0.0062881100 0 0
0.0167951250 -0.0078381150 0 0
0.0165510180 -0.0100796760 0 0
0.0163577390 -0.0127982100 0 0
0.0162212790 -0.0157298230 0 0
0.0161425910 -0.0185887930 0 0
0.0161177510 -0.0210973690 0 0
0.0161388140 -0.0230132470 0 0
0.0161950370 -0.0241516410 0 0
0.0162737230 -0.0244012730 0 0
0.0163602020 -0.0237338590 0 0
0.0164375670 -0.0222062340 0 0
0.0164873050 -0.0199555070 0 0
0.0164911290 -0.0171883830 0 0
0.0164333820 -0.0141643090 0 0
0.0163031600 -0.0111721910 0 0
0.0160958430 -0.0085031490 0 0
0.0158147650 -0.0064227550 0 0
0.0154735540 -0.0051443670 0 0
0.0150980870 -0.0048048840 0 0
0.0147265410 -0.0054467770 0 0
0.0144067440 -0.0070111930 0 0
0.0141904190 -0.0093438510 0 0
0.0141245770 -0.0122117590 0 0
0.0142418120 -0.0153278700 0 0
0.0145525390 -0.0183812380 0 0
0.0150413930 -0.0210694130 0 0
0.0156679160 -0.0231291240 0 0
0.0163710530 -0.0243623930 0 0
0.0170772530 -0.0246564750 0 0
0.0177106910 -0.0239959040 0 0
0.0182032270 -0.0224644520 0 0
0.0185029310 -0.0202352130 0 0
0.0185806150 -0.0175497660 0 0
0.0184331710 -0.0146904160 0 0
0.0180829560 -0.0119500670 0 0
0.0175739990 -0.0096027020 0 0
0.0169663010 -0.0078768800 0 0
0.0163286210 -0.0069356420 0 0
0.0157295540 -0.0068654500 0 0
0.0152282480 -0.0076728840 0 0
0.0148679140 -0.0092862280 0 0
0.0146738060 -0.0115613050 0 0
0.0146542670 -0.0142924160 0 0
0.0148030540 -0.0172287100 0 0
0.0151028030 -0.0200958250 0 0
0.0155294510 -0.0226217330 0 0
0.0160558680 -0.0245638930 0 0
0.0166526400 -0.0257345630 0 0
0.0172858190 -0.0260213580 0 0
0.0179143310 -0.0253994680 0 0
0.0184907450 -0.0239334480 0 0
0.0189662190 -0.0217697920 0 0
0.0192962690 -0.0191225190 0 0
0.0194442260 -0.0162525220 0 0
0.0193832190 -0.0134409710 0 0
0.0190992110 -0.0109601310 0 0
0.0185952480 -0.0090467330 0 0
0.0178949840 -0.0078807920 0 0
0.0170437450 -0.0075706850 0 0
0.0161063640 -0.0081444570 0 0
0.0151612500 -0.0095468030 0 0
0.0142908850 -0.0116424420 0 0
0.0135707750 -0.0142270440 0 0
0.0130602060 -0.0170456710 0 0
0.0127968260 -0.0198180610 0 0
0.0127944570 -0.0222674150 0 0
0.0130428500 -0.0241469630 0 0
0.0135099100 -0.0252620990 0 0
0.0141474800 -0.0254896930 0 0
0.0148997570 -0.0247937440 0 0
0.0157116320 -0.0232323320 0 0
0.0165347610 -0.0209524060 0 0
0.0173307890 -0.0181738030 0 0
0.0180721550 -0.0151657260 0 0
0.0187411730 -0.0122182610 0 0
0.0193281480 -0.0096123320 0 0
0.0198297050 -0.0075922290 0 0
0.0202481930 -0.0063435910 0 0
0.0205913200 -0.0059775880 0 0
0.0208705970 -0.0065212570 0 0
0.0210992040 -0.0079143220 0 0
0.0212912370 -0.0100137900 0 0
0.0214627520 -0.0126074800 0 0
0.0216334260 -0.0154351140 0 0
0.0218275170 -0.0182137910 0 0
0.0220720410 -0.0206652820 0 0
0.0223902280 -0.0225430910 0 0
0.0227921290 -0.0236567090 0 0
0.0232677840 -0.0238906930 0 0
0.0237871810 -0.0232163090 0 0
0.0243066560 -0.0216936730 0 0
0.0247781380 -0.0194639340 0 0
0.0251574670 -0.0167334300 0 0
0.0254096690 -0.0137527910 0 0
0.0255106650 -0.0107933950 0 0
0.0254460620 -0.0081235220 0 0
0.0252090270 -0.0059864890 0 0
0.0248005350 -0.0045810520 0 0
0.0242341430 -0.0040433690 0 0
0.0235431560 -0.0044319550 0 0
0.0227844850 -0.0057183450 0 0
0.0220342680 -0.0077850880 0 0
0.0213747830 -0.0104323970 0 0
0.0208770680 -0.0133949610 0 0
0.0205859610 -0.0163685110 0 0
0.0205124910 -0.0190428090 0 0
0.0206342430 -0.0211356700 0 0
0.0209008120 -0.0224217500 0 0
0.0212416350 -0.0227518950 0 0
0.0215756060 -0.0220634900 0 0
0.0218220620 -0.0203847930 0 0
0.0219117570 -0.0178348660 0 0
0.0217968350 -0.0146175620 0 0
0.0214586530 -0.0110064460 0 0
0.0209108790 -0.0073195510 0 0
0.0201955820 -0.0038871200 0 0
0.0193727280 -0.0010172480 0 0
0.0185069770 0.0010370930 0 0
0.0176572290 0.0021063110 0 0
0.0168719140 0.0021228180 0 0
0.0161889860 0.0011259450 0 0
0.0156381530 -0.0007467950 0 0
0.0152435390 -0.0032780350 0 0
0.0150252530 -0.0061935950 0 0
0.0149985280 -0.0091882450 0 0
0.0151703360 -0.0119546560 0 0
0.0155351600 -0.0142139760 0 0
0.0160715130 -0.0157433190 0 0
0.0167400470 -0.0163957530 0 0
0.0174844140 -0.0161114040 0 0
0.0182364280 -0.0149210340 0 0
0.0189254230 -0.0129436380 0 0
0.0194890230 -0.0103777750 0 0
0.0198822840 -0.0074851730 0 0
0.0200838450 -0.0045661040 0 0
0.0200982630 -0.0019283730 0 0
0.0199536160 0.0001466270 0 0
0.0196947170 0.0014367550 0 0
0.0193741860 0.0018061090 0 0
0.0190437890 0.0012213110 0 0
0.0187473530 -0.0002457820 0 0
0.0185162380 -0.0024286080 0 0
0.0183681550 -0.0050868570 0 0
0.0183086560 -0.0079344480 0 0
0.0183337560 -0.0106719740 0 0
0.0184327160 -0.0130202210 0 0
0.0185903410 -0.0147487190 0 0
0.0187880820 -0.0156944310 0 0
0.0190037320 -0.0157712770 0 0
0.0192107270 -0.0149738070 0 0
0.0193790320 -0.0133756720 0 0
0.0194794440 -0.0111220520 0 0
0.0194909140 -0.0084163020 0 0
0.0194074660 -0.0055014790 0 0
0.0192405050 -0.0026375280 0 0
0.0190147280 -0.0000772351 0 0
0.0187594240 0.0019549510 0 0
0.0184999100 0.0032809750 0 0
0.0182540740 0.0037860650 0 0
0.0180350900 0.0034320410 0 0
0.0178563720 0.0022625870 0 0
0.0177336920 0.0004010360 0 0
0.0176824710 -0.0019568750 0 0
0.0177120400 -0.0045575060 0 0
0.0178202610 -0.0071138570 0 0
0.0179914780 -0.0093376820 0 0
0.0181991340 -0.0109733280 0 0
0.0184119160 -0.0118273350 0 0
0.0186000370 -0.0117886990 0 0
0.0187389750 -0.0108380680 0 0
0.0188105720 -0.0090483050 0 0
0.0188025560 -0.0065783930 0 0
0.0187073480 -0.0036589700 0 0
0.0185215220 -0.0005681550 0 0
0.0182476320 0.0023988780 0 0
0.0178982100 0.0049610850 0 0
0.0174984490 0.0068800040 0 0
0.0170839310 0.0079830310 0 0
0.0166936340 0.0081794190 0 0
0.0163618530 0.0074689320 0 0
0.0161123860 0.0059430850 0 0
0.0159564150 0.0037756090 0 0
0.0158942500 0.0012002360 0 0
0.0159195420 -0.0015189690 0 0
0.0160230240 -0.0041162730 0 0
0.0161936560 -0.0063473210 0 0
0.0164177490 -0.0080069160 0 0
0.0166786250 -0.0089433670 0 0
0.0169583220 -0.0090696100 0 0
0.0172398290 -0.0083702510 0 0
0.0175067110 -0.0069037150 0 0
0.0177395130 -0.0047987320 0 0
0.0179129520 -0.0022446200 0 0
0.0179985420 0.0005244810 0 0
0.0179718220 0.0032500040 0 0
0.0178187400 0.0056721100 0 0
0.0175375960 0.0075542770 0 0
0.0171379590 0.0087072270 0 0
0.0166399170 0.0090093500 0 0
0.0160746220 0.0084209860 0 0
0.0154842690 0.0069907820 0 0
0.0149195170 0.0048535940 0 0
0.0144339840 0.0022189950 0 0
0.0140770830 -0.0006505760 0 0
0.0138872930 -0.0034694490 0 0
0.0138876290 -0.0059599870 0 0
0.0140833540 -0.0078800920 0 0
0.0144601890 -0.0090450480 0 0
0.0149816760 -0.0093436060 0 0
0.0155877670 -0.0087477200 0 0
0.0161989650 -0.0073150500 0 0
0.0167277140 -0.0051835990 0 0
0.0170939260 -0.0025581090 0 0
0.0172390720 0.0003103660 0 0
0.0171345750 0.0031481290 0 0
0.0167833570 0.0056828170 0 0
0.0162164720 0.0076672630 0 0
0.0154878340 0.0089034710 0 0
0.0146683660 0.0092646330 0 0
0.0138390110 0.0087107070 0 0
0.0130822840 0.0072940560 0 0
0.0124731010 0.0051546010 0 0
0.0120697490 0.0025054350 0 0
0.0119057770 -0.0003897650 0 0
0.0119847900 -0.0032448610 0 0
0.0122805020 -0.0057812110 0 0
0.0127420840 -0.0077560050 0 0
0.0133025990 -0.0089861080 0 0
0.0138889930 -0.0093651270 0 0
0.0144328350 -0.0088719900 0 0
0.0148796630 -0.0075700530 0 0
0.0151940300 -0.0055979530 0 0
0.0153593270 -0.0031551030 0 0
0.0153740960 -0.0004837340 0 0
0.0152474640 0.0021522240 0 0
0.0149957030 0.0044907030 0 0
0.0146408360 0.0062956580 0 0
0.0142112200 0.0073798300 0 0
0.0137431600 0.0076239840 0 0
0.0132814450 0.0069909080 0 0
0.0128762360 0.0055327160 0 0
0.0125755330 0.0033887400 0 0
0.0124157760 0.0007712000 0 0
0.0124151930 -0.0020603070 0 0
0.0125728860 -0.0048296210 0 0
0.0128727040 -0.0072727960 0 0
0.0132885280 -0.0091603280 0 0
0.0137884320 -0.0103133920 0 0
0.0143370750 -0.0106175120 0 0
0.0148971130 -0.0100346930 0 0
0.0154307910 -0.0086108260 0 0
0.0159018980 -0.0064746770 0 0
0.0162777100 -0.0038274480 0 0
0.0165312260 -0.0009240600 0 0
0.0166441930 0.0019517360 0 0
0.0166105150 0.0045151350 0 0
0.0164384150 0.0065076590 0 0
0.0161499180 0.0077219840 0 0
0.0157781810 0.0080221230 0 0
0.0153639910 0.0073570320 0 0
0.0149511490 0.0057673280 0 0
0.0145794980 0.0033848530 0 0
0.0142767220 0.0004229150 0 0
0.0140531040 -0.0028438810 0 0
0.0139032370 -0.0061068200 0 0
0.0138138730 -0.0090524970 0 0
0.0137724560 -0.0113928880 0 0
0.0137711400 -0.0128955010 0 0
0.0138053120 -0.0134097120 0 0
0.0138697350 -0.0128838260 0 0
0.0139561260 -0.0113696240 0 0
0.0140528880 -0.0090148190 0 0
0.0141447840 -0.0060462460 0 0
0.0142118350 -0.0027463040 0 0
0.0142301160 0.0005757070 0 0
0.0141762170 0.0036149260 0 0
0.0140331910 0.0061010100 0 0
0.0137949620 0.0078228860 0 0
0.0134683740 0.0086467330 0 0
0.0130735420 0.0085271050 0 0
0.0126432130 0.0075101410 0 0
0.0122209620 0.0057283790 0 0
0.0118569920 0.0033878360 0 0
0.0116011820 0.0007486490 0 0
0.0114954110 -0.0018983690 0 0
0.0115681900 -0.0042577100 0 0
0.0118328890 -0.0060582710 0 0
0.0122881440 -0.0070836770 0 0
0.0129176940 -0.0071971340 0 0
0.0136883670 -0.0063550160 0 0
0.0145483820 -0.0046092970 0 0
0.0154300890 -0.0021013630 0 0
0.0162585630 0.0009521210 0 0
0.0169628290 0.0042806060 0 0
0.0174856120 0.0075854710 0 0
0.0177899210 0.0105679990 0 0
0.0178625930 0.0129583350 0 0
0.0177152510 0.0145424380 0 0
0.0173828640 0.0151829550 0 0
0.0169190570 0.0148322660 0 0
0.0163875020 0.0135376750 0 0
0.0158507830 0.0114392140 0 0
0.0153597200 0.0087593690 0 0
0.0149462850 0.0057809520 0 0
0.0146224140 0.0028122080 0 0
0.0143840290 0.0001479150 0 0
0.0142165910 -0.0019624960 0 0
0.0140992010 -0.0033362620 0 0
0.0140075590 -0.0038699140 0 0
0.0139175360 -0.0035447210 0 0
0.0138095770 -0.0024254560 0 0
0.0136721120 -0.0006527050 0 0
0.0135023350 0.0015712800 0 0
0.0133047350 0.0040027680 0 0
0.0130888350 0.0063810630 0 0
0.0128671900 0.0084547190 0 0
0.0126537550 0.0100065740 0 0
0.0124620440 0.0108746230 0 0
0.0123033350 0.0109662840 0 0
0.0121863530 0.0102656340 0 0
0.0121188750 0.0088343500 0 0
0.0121096940 0.0068064440 0 0
0.0121689140 0.0043764070 0 0
0.0123059780 0.0017809420 0 0
0.0125262690 -0.0007241040 0 0
0.0128274800 -0.0028884440 0 0
0.0131965770 -0.0044907080 0 0
0.0136082050 -0.0053588670 0 0
0.0140257050 -0.0053866480 0 0
0.0144050320 -0.0045443850 0 0
0.0147009810 -0.0028829590 0 0
0.0148748540 -0.0005309350 0 0
0.0149016650 0.0023136100 0 0
0.0147739650 0.0053964890 0 0
0.0145006150 0.0084281400 0 0
0.0141011640 0.0111123650 0 0
0.0135986090 0.0131792140 0 0
0.0130137800 0.0144156400 0 0
0.0123633180 0.0146888810 0 0
0.0116611920 0.0139602390 0 0
0.0109221450 0.0122886580 0 0
0.0101651600 0.0098243790 0 0
0.0094154160 0.0067935180 0 0
0.0087035130 0.0034751710 0 0
0.0080618360 0.0001738830 0 0
0.0075198060 -0.0028093590 0 0
0.0071008180 -0.0052052070 0 0
0.0068219900 -0.0068013080 0 0
0.0066945090 -0.0074632620 0 0
0.0067217560 -0.0071489980 0 0
0.0068957980 -0.0059138250 0 0
0.0071954870 -0.0039043210 0 0
0.0075882570 -0.0013416750 0 0
0.0080354100 0.0015026670 0 0
0.0084994510 0.0043353730 0 0
0.0089511560 0.0068700680 0 0
0.0093734490 0.0088533720 0 0
0.0097605220 0.0100866610 0 0
0.0101133190 0.0104436770 0 0
0.0104338990 0.0098830310 0 0
0.0107209160 0.0084534700 0 0
0.0109678820 0.0062905730 0 0
0.0111645830 0.0036047640 0 0
0.0113004730 0.0006614130 0 0
0.0113685220 -0.0022454760 0 0
0.0113683270 -0.0048234380 0 0
0.0113072330 -0.0068120190 0 0
0.0111983600 -0.0080084040 0 0
0.0110561190 -0.0082836970 0 0
0.0108917230 -0.0075914000 0 0
0.0107106560 -0.0059731590 0 0
0.0105121790 -0.0035605590 0 0
0.0102903750 -0.0005659120 0 0
0.0100368590 0.0027397590 0 0
0.0097452710 0.0060554970 0 0
0.0094162110 0.0090802600 0 0
0.0090602420 0.0115415590 0 0
0.0086982730 0.0132201820 0 0
0.0083605290 0.0139685800 0 0
0.0080844630 0.0137232540 0 0
0.0079107380 0.0125115060 0 0
0.0078777670 0.0104516130 0 0
0.0080169770 0.0077464800 0 0
0.0083499810 0.0046698590 0 0
0.0088865090 0.0015410650 0 0
0.0096216730 -0.0013124410 0 0
0.0105331590 -0.0035956530 0 0
0.0115805710 -0.0050788540 0 0
0.0127079820 -0.0056193330 0 0
0.0138485310 -0.0051736190 0 0
0.0149295260 -0.0038002180 0 0
0.0158773350 -0.0016522330 0 0
0.0166221100 0.0010385910 0 0
0.0171032560 0.0039849190 0 0
0.0172763380 0.0068735540 0 0
0.0171203230 0.0093998270 0 0
0.0166430660 0.0113017520 0 0
0.0158835640 0.0123880490 0 0
0.0149093190 0.0125556300 0 0
0.0138073850 0.0117952650 0 0
0.0126702850 0.0101867560 0 0
0.0115808280 0.0078862330 0 0
0.0106003050 0.0051083330 0 0
0.0097632640 0.0021049980 0 0
0.0090796240 -0.0008578490 0 0
0.0085418490 -0.0035237640 0 0
0.0081335310 -0.0056671590 0 0
0.0078367730 -0.0071108170 0 0
0.0076368510 -0.0077383480 0 0
0.0075230830 -0.0075019160 0 0
0.0074861080 -0.0064269540 0 0
0.0075135690 -0.0046140620 0 0
0.0075869250 -0.0022353790 0 0
0.0076815070 0.0004778920 0 0
0.0077701020 0.0032572710 0 0
0.0078283450 0.0058248070 0 0
0.0078401120 0.0079228840 0 0
0.0078019280 0.0093429770 0 0
0.0077250130 0.0099493910 0 0
0.0076333380 0.0096933480 0 0
0.0075582370 0.0086157080 0 0
0.0075324710 0.0068406630 0 0
0.0075862310 0.0045631010 0 0
0.0077448130 0.0020300880 0 0
0.0080262470 -0.0004835230 0 0
0.0084378760 -0.0027036370 0 0
0.0089725070 -0.0043857290 0 0
0.0096060600 -0.0053391990 0 0
0.0102989530 -0.0054443270 0 0
0.0110018910 -0.0046616840 0 0
0.0116643040 -0.0030352190 0 0
0.0122425850 -0.0006897210 0 0
0.0127063270 0.0021782660 0 0
0.0130416870 0.0053180020 0 0
0.0132509200 0.0084503120 0 0
0.0133480750 0.0112964690 0 0
0.0133526810 0.0136038740 0 0
0.0132842120 0.0151665600 0 0
0.0131599340 0.0158421110 0 0
0.0129969240 0.0155658100 0 0
0.0128162120 0.0143604470 0 0
0.0126454610 0.0123385050 0 0
0.0125180780 0.0096938170 0 0
0.0124691720 0.0066828140 0 0
0.0125300860 0.0035982960 0 0
0.0127232260 0.0007396050 0 0
0.0130583980 -0.0016165980 0 0
0.0135311780 -0.0032415840 0 0
0.0141232320 -0.0039748240 0 0
0.0148040720 -0.0037398480 0 0
0.0155341170 -0.0025545690 0 0
0.0162694440 -0.0005325630 0 0
0.0169678220 0.0021273930 0 0
0.0175941930 0.0051631030 0 0
0.0181237760 0.0082783890 0 0
0.0185425810 0.0111739280 0 0
0.0188465320 0.0135746320 0 0
0.0190401940 0.0152534780 0 0
0.0191346530 0.0160529130 0 0
0.0191440410 0.0159018290 0 0
0.0190815310 0.0148246650 0 0
0.0189567810 0.0129404340 0 0
0.0187764950 0.0104505070 0 0
0.0185475720 0.0076161640 0 0
0.0182801790 0.0047301960 0 0
0.0179879880 0.0020869980 0 0
0.0176849500 -0.0000459001 0 0
0.0173805870 -0.0014523060 0 0
0.0170767400 -0.0019870420 0 0
0.0167676180 -0.0015907940 0 0
0.0164430470 -0.0002977990 0 0
0.0160934850 0.0017662610 0 0
0.0157149610 0.0043964330 0 0
0.0153119950 0.0073296070 0 0
0.0148970320 0.0102718130 0 0
0.0144868310 0.0129269120 0 0
0.0140984040 0.0150229280 0 0
0.0137471080 0.0163362930 0 0
0.0134469010 0.0167149130 0 0
0.0132105250 0.0160966840 0 0
0.0130479020 0.0145181640 0 0
0.0129628740 0.0121119590 0 0
0.0129504450 0.0090941090 0 0
0.0129970360 0.0057424160 0 0
0.0130838550 0.0023678070 0 0
0.0131907970 -0.0007171190 0 0
0.0132986680 -0.0032283280 0 0
0.0133898430 -0.0049376490 0 0
0.0134483960 -0.0056969380 0 0
0.0134596190 -0.0054556190 0 0
0.0134081750 -0.0042655350 0 0
0.0132758170 -0.0022713620 0 0
0.0130409190 0.0003090510 0 0
0.0126810720 0.0032084040 0 0
0.0121782930 0.0061346250 0 0
0.0115255580 0.0087967470 0 0
0.0107327030 0.0109315340 0 0
0.0098293130 0.0123279210 0 0
0.0088632550 0.0128464290 0 0
0.0078950710 0.0124324030 0 0
0.0069892910 0.0111228690 0 0
0.0062046160 0.0090462730 0 0
0.0055863730 0.0064129600 0 0
0.0051642500 0.0034946640 0 0
0.0049543780 0.0005952040 0 0
0.0049613550 -0.0019818960 0 0
0.0051773890 -0.0039643800 0 0
0.0055802140 -0.0051390300 0 0
0.0061326810 -0.0053738550 0 0
0.0067843240 -0.0046309830 0 0
0.0074739980 -0.0029687070 0 0
0.0081339970 -0.0005342310 0 0
0.0086967320 0.0024507390 0 0
0.0091032020 0.0057107480 0 0
0.0093106200 0.0089432670 0 0
0.0092972000 0.0118492180 0 0
0.0090642850 0.0141633130 0 0
0.0086364330 0.0156797660 0 0
0.0080591640 0.0162700830 0 0
0.0073940220 0.0158925130 0 0
0.0067118150 0.0145951780 0 0
0.0060853720 0.0125138390 0 0
0.0055823300 0.0098617620 0 0
0.0052582690 0.0069091980 0 0
0.0051514650 0.0039544950 0 0
0.0052803130 0.0012919290 0 0
0.0056432160 -0.0008187240 0 0
0.0062204110 -0.0021766090 0 0
0.0069769230 -0.0026561610 0 0
0.0078654920 -0.0022161080 0 0
0.0088291370 -0.0009019240 0 0
0.0098044200 0.0011585520 0 0
0.0107270570 0.0037660320 0 0
0.0115399460 0.0066665140 0 0
0.0122010280 0.0095740140 0 0
0.0126873610 0.0121992120 0 0
0.0129938470 0.0142812300 0 0
0.0131282450 0.0156167820 0 0
0.0131062040 0.0160808850 0 0
0.0129494780 0.0156363560 0 0
0.0126878510 0.0143330970 0 0
0.0123625740 0.0123000860 0 0
0.0120273600 0.0097327170 0 0
0.0117431990 0.0068763550 0 0
0.0115669710 0.0040049860 0 0
0.0115384990 0.0013947120 0 0
0.0116718550 -0.0007041610 0 0
0.0119537200 -0.0020913970 0 0
0.0123476290 -0.0026357900 0 0
0.0128011620 -0.0022887500 0 0
0.0132542260 -0.0010905160 0 0
0.0136474730 0.0008328970 0 0
0.0139296190 0.0032823150 0 0
0.0140625520 0.0060071990 0 0
0.0140242680 0.0087335740 0 0
0.0138101080 0.0111919500 0 0
0.0134323250 0.0131412110 0 0
0.0129177500 0.0143888530 0 0
0.0123041120 0.0148085380 0 0
0.0116367020 0.0143530950 0 0
0.0109663760 0.0130595030 0 0
0.0103473650 0.0110452130 0 0
0.0098324450 0.0084975810 0 0
0.0094652780 0.0056567710 0 0
0.0092725780 0.0027929200 0 0
0.0092590000 0.0001819660 0 0
0.0094055910 -0.0019166920 0 0
0.0096715750 -0.0032833510 0 0
0.0099997360 -0.0037638530 0 0
0.0103252780 -0.0032926730 0 0
0.0105860810 -0.0019055580 0 0
0.0107312650 0.0002614660 0 0
0.0107263580 0.0029868210 0 0
0.0105551610 0.0059899700 0 0
0.0102191140 0.0089640750 0 0
0.0097354340 0.0116072500 0 0
0.0091352130 0.0136491690 0 0
0.0084610780 0.0148748850 0 0
0.0077629370 0.0151469140 0 0
0.0070914820 0.0144216380 0 0
0.0064908590 0.0127548690 0 0
0.0059925600 0.0102954120 0 0
0.0056121530 0.0072689460 0 0
0.0053497740 0.0039549390 0 0
0.0051938480 0.0006589760 0 0
0.0051263670 -0.0023168550 0 0
0.0051285530 -0.0047030540 0 0
0.0051859870 -0.0062890930 0 0
0.0052909110 -0.0069452720 0 0
0.0054396790 -0.0066379410 0 0
0.0056271730 -0.0054338670 0 0
0.0058426100 -0.0034896740 0 0
0.0060689210 -0.0010285050 0 0
0.0062845750 0.0016881250 0 0
0.0064665010 0.0043862710 0 0
0.0065938140 0.0068014170 0 0
0.0066518100 0.0086976740 0 0
0.0066346990 0.0098856480 0 0
0.0065461170 0.0102391260 0 0
0.0063981890 0.0097092240 0 0
0.0062108770 0.0083329280 0 0
0.0060122470 0.0062331440 0 0
0.0058378310 0.0036091550 0 0
0.0057264050 0.0007175330 0 0
0.0057125290 -0.0021548120 0 0
0.0058193460 -0.0047214240 0 0
0.0060545000 -0.0067267260 0 0
0.0064091710 -0.0079733270 0 0
0.0068591760 -0.0083434340 0 0
0.0073678910 -0.0078110300 0 0
0.0078912100 -0.0064426240 0 0
0.0083837400 -0.0043868280 0 0
0.0088043460 -0.0018553870 0 0
0.0091196390 0.0009005570 0 0
0.0093066220 0.0036155630 0 0
0.0093566520 0.0060337840 0 0
0.0092799500 0.0079300820 0 0
0.0091067050 0.0091280010 0 0
0.0088823670 0.0095140770 0 0
0.0086590320 0.0090470720 0 0
0.0084863440 0.0077618890 0 0
0.0084038870 0.0057698340 0 0
0.0084361200 0.0032545400 0 0
0.0085906890 0.0004591440 0 0
0.0088600520 -0.0023372920 0 0
0.0092257530 -0.0048505010 0 0
0.0096644260 -0.0068235840 0 0
0.0101537980 -0.0080567960 0 0
0.0106764300 -0.0084297800 0 0
0.0112199230 -0.0079128780 0 0
0.0117738460 -0.0065676910 0 0
0.0123252230 -0.0045387840 0 0
0.0128555220 -0.0020378130 0 0
0.0133411550 0.0006782200 0 0
0.0137567130 0.0033318680 0 0
0.0140789800 0.0056511710 0 0
0.0142911670 0.0073953110 0 0
0.0143874810 0.0083787540 0 0
0.0143767170 0.0084917630 0 0
0.0142823880 0.0077142590 0 0
0.0141381180 0.0061202960 0 0
0.0139800440 0.0038716700 0 0
0.0138399830 0.0012005140 0 0
0.0137420300 -0.0016172820 0 0
0.0137021750 -0.0042935590 0 0
0.0137288970 -0.0065587250 0 0
0.0138237850 -0.0081876680 0 0
0.0139825670 -0.0090192610 0 0
0.0141968140 -0.0089692560 0 0
0.0144557830 -0.0080362670 0 0
0.0147475790 -0.0063006400 0 0
0.0150595220 -0.0039164700 0 0
0.0153783500 -0.0010971370 0 0
0.0156904650 0.0019048710 0 0
0.0159814600 0.0048217720 0 0
0.0162350410 0.0073950090 0 0
0.0164332540 0.0093979710 0 0
0.0165586270 0.0106555060 0 0
0.0165961800 0.0110594440 0 0
0.0165348600 0.0105787200 0 0
0.0163706460 0.0092624560 0 0
0.0161112230 0.0072359480 0 0
0.0157786030 0.0046910750 0 0
0.0154067720 0.0018716980 0 0
0.0150348870 -0.0009469110 0 0
0.0146994430 -0.0034845570 0 0
0.0144291670 -0.0054856850 0 0
0.0142434850 -0.0067474320 0 0
0.0141522890 -0.0071420950 0 0
0.0141545530 -0.0066306100 0 0
0.0142357420 -0.0052641390 0 0
0.0143667370 -0.0031737260 0 0
0.0145074380 -0.0005528880 0 0
0.0146145470 0.0023610290 0 0
0.0146497660 0.0053050700 0 0
0.0145858480 0.0080104650 0 0
0.0144105230 0.0102263840 0 0
0.0141284570 0.0117464830 0 0
0.0137606530 0.0124320960 0 0
0.0133412750 0.0122265310 0 0
0.0129128880 0.0111612580 0 0
0.0125214170 0.0093560970 0 0
0.0122113250 0.0070102600 0 0
0.0120206930 0.0043807070 0 0
0.0119762050 0.0017506460 0 0
0.0120889020 -0.0006048920 0 0
0.0123518390 -0.0024501080 0 0
0.0127410590 -0.0036120810 0 0
0.0132205570 -0.0039951400 0 0
0.0137491100 -0.0035852570 0 0
0.0142850670 -0.0024457610 0 0
0.0147875290 -0.0007078660 0 0
0.0152163010 0.0014411660 0 0
0.0155339860 0.0037724380 0 0
0.0157109360 0.0060341970 0 0
0.0157311440 0.0079755080 0 0
0.0155966090 0.0093722870 0 0
0.0153281850 0.0100513030 0 0
0.0149621940 0.0099082300 0 0
0.0145444010 0.0089177520 0 0
0.0141241410 0.0071358850 0 0
0.0137500690 0.0046959430 0 0
0.0134670520 0.0017984610 0 0
0.0133133340 -0.0013064410 0 0
0.0133173470 -0.0043441750 0 0
0.0134937580 -0.0070441130 0 0
0.0138396980 -0.0091662470 0 0
0.0143336490 -0.0105235480 0 0
0.0149384730 -0.0109993610 0 0
0.0156070820 -0.0105592270 0 0
0.0162878070 -0.0092560340 0 0
0.0169280040 -0.0072275440 0 0
0.0174770550 -0.0046860720 0 0
0.0178906330 -0.0019003680 0 0
0.0181363540 0.0008308860 0 0
0.0181987510 0.0032129100 0 0
0.0180812990 0.0049904830 0 0
0.0178053130 0.0059777710 0 0
0.0174069340 0.0060769920 0 0
0.0169331880 0.0052842660 0 0
0.0164377330 0.0036847890 0 0
0.0159770680 0.0014415470 0 0
0.0156074490 -0.0012202390 0 0
0.0153812740 -0.0040336940 0 0
0.0153415590 -0.0067162130 0 0
0.0155154020 -0.0089988120 0 0
0.0159085580 -0.0106550370 0 0
0.0165027070 -0.0115246940 0 0
0.0172566860 -0.0115288960 0 0
0.0181123860 -0.0106753520 0 0
0.0190036730 -0.0090545460 0 0
0.0198647310 -0.0068280700 0 0
0.0206354690 -0.0042108920 0 0
0.0212648410 -0.0014499220 0 0
0.0217139060 0.0011986500 0 0
0.0219588220 0.0034915130 0 0
0.0219925990 0.0052186240 0 0
0.0218246010 0.0062205110 0 0
0.0214778980 0.0064016060 0 0
0.0209857590 0.0057385270 0 0
0.0203883290 0.0042820260 0 0
0.0197297490 0.0021533060 0 0
0.0190556720 -0.0004634020 0 0
0.0184110520 -0.0033326950 0 0
0.0178376320 -0.0061864220 0 0
0.0173704020 -0.0087483300 0 0
0.0170330080 -0.0107621790 0 0
0.0168336690 -0.0120202560 0 0
0.0167639640 -0.0123884300 0 0
0.0168013660 -0.0118225380 0 0
0.0169140420 -0.0103725040 0 0
0.0170652160 -0.0081746780 0 0
0.0172154130 -0.0054349520 0 0
0.0173235260 -0.0024053920 0 0
0.0173489610 0.0006418890 0 0
0.0172555210 0.0034400380 0 0
0.0170161280 0.0057507330 0 0
0.0166175400 0.0073849820 0 0
0.0160642530 0.0082197450 0 0
0.0153802390 0.0082082890 0 0
0.0146072250 0.0073832710 0 0
0.0137994500 0.0058527010 0 0
0.0130167060 0.0037895820 0 0
0.0123174320 0.0014165540 0 0
0.0117522610 -0.0010132890 0 0
0.0113582150 -0.0032385520 0 0
0.0111546980 -0.0050136610 0 0
0.0111421830 -0.0061341540 0 0
0.0113032930 -0.0064623230 0 0
0.0116055620 -0.0059489170 0 0
0.0120053140 -0.0046431160 0 0
0.0124517320 -0.0026862850 0 0
0.0128909080 -0.0002926420 0 0
0.0132710820 0.0022762420 0 0
0.0135497450 0.0047383730 0 0
0.0137009170 0.0068188350 0 0
0.0137195580 0.0082788550 0 0
0.0136200650 0.0089457600 0 0
0.0134281860 0.0087379300 0 0
0.0131707610 0.0076748410 0 0
0.0128702230 0.0058680820 0 0
0.0125463030 0.0035012560 0 0
0.0122205410 0.0008088130 0 0
0.0119178400 -0.0019459140 0 0
0.0116633180 -0.0044973910 0 0
0.0114762330 -0.0066054490 0 0
0.0113636460 -0.0080759110 0 0
0.0113168210 -0.0087734940 0 0
0.0113126460 -0.0086310950 0 0
0.0113194910 -0.0076558110 0 0
0.0113044620 -0.0059291450 0 0
0.0112389200 -0.0036011020 0 0
0.0111009730 -0.0008793980 0 0
0.0108758540 0.0019859150 0 0
0.0105569180 0.0047228020 0 0
0.0101495150 0.0070619070 0 0
0.0096762950 0.0087631390 0 0
0.0091792880 0.0096411170 0 0
0.0087154750 0.0095862950 0 0
0.0083471300 0.0085785190 0 0
0.0081312070 0.0066910960 0 0
0.0081110910 0.0040852860 0 0
0.0083111200 0.0009954910 0 0
0.0087331870 -0.0022945160 0 0
0.0093556410 -0.0054815660 0 0
0.0101357040 -0.0082743540 0 0
0.0110159900 -0.0104218780 0 0
0.0119332260 -0.0117367080 0 0
0.0128254020 -0.0121115010 0 0
0.0136349600 -0.0115276120 0 0
0.0143088070 -0.0100554260 0 0
0.0147977810 -0.0078464840 0 0
0.0150584780 -0.0051180170 0 0
0.0150590550 -0.0021318500 0 0
0.0147878820 0.0008296910 0 0
0.0142614150 0.0034891400 0 0
0.0135266760 0.0055994310 0 0
0.0126546220 0.0069681150 0 0
0.0117255270 0.0074776870 0 0
0.0108137820 0.0070982400 0 0
0.0099797150 0.0058898250 0 0
0.0092689630 0.0039948060 0 0
0.0087138600 0.0016211520 0 0
0.0083328340 -0.0009822520 0 0
0.0081294990 -0.0035537180 0 0
0.0080944730 -0.0058439350 0 0
0.0082091640 -0.0076359720 0 0
0.0084481370 -0.0087618960 0 0
0.0087785150 -0.0091165270 0 0
0.0091588260 -0.0086664880 0 0
0.0095411820 -0.0074529240 0 0
0.0098781230 -0.0055879160 0 0
0.0101316760 -0.0032453640 0 0
0.0102802100 -0.0006465790 0 0
0.0103196120 0.0019592340 0 0
0.0102586440 0.0043175740 0 0
0.0101113370 0.0061915170 0 0
0.0098906830 0.0073841930 0 0
0.0096073680 0.0077606680 0 0
0.0092743430 0.0072658020 0 0
0.0089135190 0.0059332240 0 0
0.0085588830 0.0038835160 0 0
0.0082532750 0.0013127390 0 0
0.0080407550 -0.0015269690 0 0
0.0079582280 -0.0043528980 0 0
0.0080291670 -0.0068809170 0 0
0.0082609250 -0.0088550100 0 0
0.0086455270 -0.0100736040 0 0
0.0091621190 -0.0104093410 0 0
0.0097789230 -0.0098203960 0 0
0.0104548910 -0.0083535560 0 0
0.0111434160 -0.0061399740 0 0
0.0117994160 -0.0033844740 0 0
0.0123878410 -0.0003492260 0 0
0.0128897490 0.0026687610 0 0
0.0133031260 0.0053672930 0 0
0.0136383770 0.0074732820 0 0
0.0139107760 0.0087747390 0 0
0.0141335240 0.0091430260 0 0
0.0143148690 0.0085426370 0 0
0.0144600760 0.0070307880 0 0
0.0145754100 0.0047500350 0 0
0.0146706600 0.0019148860 0 0
0.0147591240 -0.0012086230 0 0
0.0148555160 -0.0043296770 0 0
0.0149726700 -0.0071613240 0 0
0.0151180300 -0.0094468300 0 0
0.0152909230 -0.0109830180 0 0
0.0154812530 -0.0116400740 0 0
0.0156699970 -0.0113749460 0 0
0.0158314760 -0.0102352750 0 0
0.0159368480 -0.0083529440 0 0
0.0159582600 -0.0059292180 0 0
0.0158730590 -0.0032146180 0 0
0.0156669840 -0.0004848090 0 0
0.0153352600 0.0019864710 0 0
0.0148821210 0.0039539190 0 0
0.0143207480 0.0052233200 0 0
0.0136740850 0.0056693040 0 0
0.0129745480 0.0052468710 0 0
0.0122615630 0.0039953990 0 0
0.0115784620 0.0020353030 0 0
0.0109693720 -0.0004428350 0 0
0.0104744620 -0.0031966700 0 0
0.0101233400 -0.0059550800 0 0
0.0099293920 -0.0084419500 0 0
0.0098881860 -0.0104002940 0 0
0.0099801650 -0.0116181140 0 0
0.0101748420 -0.0119544400 0 0
0.0104339320 -0.0113601150 0 0
0.0107139160 -0.0098870960 0 0
0.0109702590 -0.0076830580 0 0
0.0111635840 -0.0049724230 0 0
0.0112655540 -0.0020279580 0 0
0.0112622020 0.0008619780 0 0
0.0111542510 0.0034253340 0 0
0.0109547510 0.0054320010 0 0
0.0106843920 0.0067099900 0 0
0.0103660010 0.0071543100 0 0
0.0100215120 0.0067331310 0 0
0.0096732440 0.0054927640 0 0
0.0093470390 0.0035581060 0 0
0.0090729450 0.0011236430 0 0
0.0088822190 -0.0015661120 0 0
0.0088032280 -0.0042431520 0 0
0.0088590180 -0.0066447710 0 0
0.0090661130 -0.0085406980 0 0
0.0094321950 -0.0097549950 0 0
0.0099521730 -0.0101805600 0 0
0.0106051710 -0.0097867220 0 0
0.0113551860 -0.0086216760 0 0
0.0121555860 -0.0068100040 0 0
0.0129555830 -0.0045436910 0 0
0.0137068840 -0.0020655510 0 0
0.0143691880 0.0003545000 0 0
0.0149132910 0.0024487440 0 0
0.0153213720 0.0039829260 0 0
0.0155852700 0.0047836510 0 0
0.0157040100 0.0047569650 0 0
0.0156821760 0.0038960680 0 0
0.0155306880 0.0022788930 0 0
0.0152694290 0.0000580936 0 0
0.0149287500 -0.0025541400 0 0
0.0145478060 -0.0053062230 0 0
0.0141701100 -0.0079326750 0 0
0.0138377940 -0.0101823590 0 0
0.0135861000 -0.0118440710 0 0
0.0134391530 -0.0127656880 0 0
0.0134071430 -0.0128664250 0 0
0.0134850070 -0.0121425500 0 0
0.0136534730 -0.0106666630 0 0
0.0138835050 -0.0085810970 0 0
0.0141433020 -0.0060858050 0 0
0.0144046770 -0.0034204090 0 0
0.0146453960 -0.0008412630 0 0
0.0148467770 0.0014029910 0 0
0.0149902020 0.0030931060 0 0
0.0150577610 0.0040564090 0 0
0.0150381170 0.0041806610 0 0
0.0149335400 0.0034253280 0 0
0.0147634660 0.0018285060 0 0
0.0145625860 -0.0004930000 0 0
0.0143740700 -0.0033515240 0 0
0.0142405340 -0.0065040060 0 0
0.0141956840 -0.0096738890 0 0
0.0142585810 -0.0125768240 0 0
0.0144315510 -0.0149472660 0 0
0.0147018920 -0.0165647970 0 0
0.0150456030 -0.0172789000 0 0
0.0154303290 -0.0170280670 0 0
0.0158164600 -0.0158479340 0 0
0.0161573430 -0.0138670190 0 0
0.0164002800 -0.0112930250 0 0
0.0164905660 -0.0083922090 0 0
0.0163801030 -0.0054621750 0 0
0.0160385320 -0.0027998350 0 0
0.0154622420 -0.0006692730 0 0
0.0146782980 0.0007248500 0 0
0.0137426670 0.0012544990 0 0
0.0127328580 0.0008756280 0 0
0.0117361300 -0.0003721860 0 0
0.0108360150 -0.0023711520 0 0
0.0101006100 -0.0049346050 0 0
0.0095755270 -0.0078209760 0 0
0.0092824450 -0.0107532640 0 0
0.0092221290 -0.0134446700 0 0
0.0093793150 -0.0156292980 0 0
0.0097268070 -0.0170926820 0 0
0.0102280770 -0.0176957440 0 0
0.0108398930 -0.0173889280 0 0
0.0115165620 -0.0162156770 0 0
0.0122152470 -0.0143061310 0 0
0.0128997010 -0.0118632970 0 0
0.0135408180 -0.0091433020 0 0
0.0141153730 -0.0064297510 0 0
0.0146049300 -0.0040030270 0 0
0.0149951290 -0.0021086600 0 0
0.0152749810 -0.0009309060 0 0
0.0154363020 -0.0005762430 0 0
0.0154734980 -0.0010668540 0 0
0.0153840170 -0.0023414550 0 0
0.0151697510 -0.0042626180 0 0
0.0148383570 -0.0066309000 0 0
0.0144029500 -0.0092043980 0 0
0.0138799490 -0.0117220870 0 0
0.0132862750 -0.0139300130 0 0
0.0126370380 -0.0156077330 0 0
0.0119442210 -0.0165900500 0 0
0.0112167390 -0.0167805550 0 0
0.0104619900 -0.0161576910 0 0
0.0096879140 -0.0147754350 0 0
0.0089039450 -0.0127589180 0 0
0.0081201040 -0.0102946150 0 0
0.0073450340 -0.0076153010 0 0
0.0065852400 -0.0049800060 0 0
0.0058474430 -0.0026496630 0 0
0.0051431050 -0.0008609360 0 0
0.0044915980 0.0001976530 0 0
0.0039192740 0.0004035660 0 0
0.0034553140 -0.0002891640 0 0
0.0031275230 -0.0018453060 0 0
0.0029599080 -0.0041485550 0 0
0.0029710470 -0.0070081860 0 0
0.0031716560 -0.0101749290 0 0
0.0035610380 -0.0133646530 0 0
0.0041230110 -0.0162853050 0 0
0.0048228040 -0.0186643780 0 0
0.0056074090 -0.0202759270 0 0
0.0064109850 -0.0209652300 0 0
0.0071641900 -0.0206679360 0 0
0.0078045850 -0.0194202140 0 0
0.0082851920 -0.0173571020 0 0
0.0085792390 -0.0146986210 0 0
0.0086809120 -0.0117254480 0 0
0.0086032960 -0.0087476030 0 0
0.0083748700 -0.0060711890 0 0
0.0080356100 -0.0039676820 0 0
0.0076328960 -0.0026470660 0 0
0.0072161410 -0.0022351400 0 0
0.0068298120 -0.0027585480 0 0
0.0065071670 -0.0041430160 0 0
0.0062679560 -0.0062269100 0 0
0.0061211140 -0.0087863350 0 0
0.0060701770 -0.0115643560 0 0
0.0061176170 -0.0142982380 0 0
0.0062659620 -0.0167423720 0 0
0.0065158800 -0.0186870890 0 0
0.0068625740 -0.0199747570 0 0
0.0072927000 -0.0205131110 0 0
0.0077841250 -0.0202824020 0 0
0.0083090980 -0.0193334040 0 0
0.0088391120 -0.0177788600 0 0
0.0093483770 -0.0157834020 0 0
0.0098136290 -0.0135523930 0 0
0.0102113070 -0.0113164770 0 0
0.0105159400 -0.0093109910 0 0
0.0107026410 -0.0077522280 0 0
0.0107528470 -0.0068134600 0 0
0.0106599200 -0.0066045740 0 0
0.0104320350 -0.0071595780 0 0
0.0100925730 -0.0084336220 0 0
0.0096796610 -0.0103073530 0 0
0.0092446260 -0.0125962570 0 0
0.0088472840 -0.0150661640 0 0
0.0085473410 -0.0174563010 0 0
0.0083938560 -0.0195067120 0 0
0.0084160090 -0.0209852820 0 0
0.0086178220 -0.0217123370 0 0
0.0089784770 -0.0215816700 0 0
0.0094583420 -0.0205750530 0 0
0.0100081530 -0.0187668270 0 0
0.0105768930 -0.0163173840 0 0
0.0111158280 -0.0134567830 0 0
0.0115801190 -0.0104610120 0 0
0.0119306770 -0.0076243960 0 0
0.0121367160 -0.0052306900 0 0
0.0121772950 -0.0035233510 0 0
0.0120406150 -0.0026775960 0 0
0.0117222710 -0.0027805720 0 0
0.0112252680 -0.0038240840 0 0
0.0105634580 -0.0057092920 0 0
0.0097668440 -0.0082605040 0 0
0.0088849960 -0.0112447800 0 0
0.0079851070 -0.0143939690 0 0
0.0071437680 -0.0174271210 0 0
0.0064346670 -0.0200727290 0 0
0.0059160050 -0.0220908920 0 0
0.0056215440 -0.0232953170 0 0
0.0055579740 -0.0235731700 0 0
0.0057081510 -0.0228985490 0 0
0.0060369150 -0.0213362700 0 0
0.0064968400 -0.0190354510 0 0
0.0070343130 -0.0162130510 0 0
0.0075971050 -0.0131289290 0 0
0.0081421160 -0.0100585340 0 0
0.0086405380 -0.0072692850 0 0
0.0090794200 -0.0050008720 0 0
0.0094604840 -0.0034478470 0 0
0.0097964580 -0.0027439710 0 0
0.0101046160 -0.0029468580 0 0
0.0103992880 -0.0040247080 0 0
0.0106874730 -0.0058528720 0 0
0.0109696540 -0.0082250930 0 0
0.0112429570 -0.0108763810 0 0
0.0115019250 -0.0135132850 0 0
0.0117359800 -0.0158490030 0 0
0.0119275160 -0.0176380310 0 0
0.0120543140 -0.0187030260 0 0
0.0120960380 -0.0189496580 0 0
0.0120418720 -0.0183694880 0 0
0.0118957830 -0.0170339030 0 0
0.0116763840 -0.0150836400 0 0
0.0114109070 -0.0127153500 0 0
0.0111265930 -0.0101627150 0 0
0.0108443840 -0.0076738140 0 0
0.0105777750 -0.0054913090 0 0
0.0103360190 -0.0038360990 0 0
0.0101282940 -0.0028893080 0 0
0.0099657170 -0.0027720680 0 0
0.0098604630 -0.0035281510 0 0
0.0098233520 -0.0051141790 0 0
0.0098612650 -0.0073992530 0 0
0.0099749400 -0.0101739900 0 0
0.0101576210 -0.0131696110 0 0
0.0103956810 -0.0160871350 0 0
0.0106716070 -0.0186329000 0 0
0.0109680050 -0.0205539980 0 0
0.0112709300 -0.0216674290 0 0
0.0115714820 -0.0218784190 0 0
0.0118642560 -0.0211859840 0 0
0.0121417500 -0.0196765350 0 0
0.0123871800 -0.0175089930 0 0
0.0125707800 -0.0148967310 0 0
0.0126530070 -0.0120899570 0 0
0.0125945420 -0.0093575700 0 0
0.0123694280 -0.0069656710 0 0
0.0119748750 -0.0051521690 0 0
0.0114331510 -0.0041007480 0 0
0.0107870400 -0.0039196670 0 0
0.0100926440 -0.0046293890 0 0
0.0094109310 -0.0061598700 0 0
0.0087986090 -0.0083573050 0 0
0.0083003920 -0.0110001550 0 0
0.0079445090 -0.0138227170 0 0
0.0077414240 -0.0165429500 0 0
0.0076853080 -0.0188910290 0 0
0.0077587830 -0.0206354950 0 0
0.0079402200 -0.0216048690 0 0
0.0082102920 -0.0217033230 0 0
0.0085543780 -0.0209194960 0 0
0.0089605550 -0.0193279380 0 0
0.0094152590 -0.0170828370 0 0
0.0098987940 -0.0144039980 0 0
0.0103825260 -0.0115561900 0 0
0.0108292670 -0.0088237260 0 0
0.0111972990 -0.0064829860 0 0
0.0114477110 -0.0047752640 0 0
0.0115533760 -0.0038812900 0 0
0.0115058780 -0.0039008380 0 0
0.0113170230 -0.0048424720 0 0
0.0110147670 -0.0066243590 0 0
0.0106363750 -0.0090826190 0 0
0.0102215820 -0.0119849660 0 0
0.0098068270 -0.0150506260 0 0
0.0094212570 -0.0179772880 0 0
0.0090851160 -0.0204719510 0 0
0.0088095090 -0.0222802070 0 0
0.0085959150 -0.0232111190 0 0
0.0084360850 -0.0231573060 0 0
0.0083139630 -0.0221080030 0 0
0.0082089800 -0.0201506790 0 0
0.0080981320 -0.0174595780 0 0
0.0079557310 -0.0142753840 0 0
0.0077523060 -0.0108820420 0 0
0.0074551610 -0.0075826640 0 0
0.0070320150 -0.0046732830 0 0
0.0064571020 -0.0024148830 0 0
0.0057176850 -0.0010070210 0 0
0.0048191020 -0.0005675510 0 0
0.0037875740 -0.0011219990 0 0
0.0026705680 -0.0026036870 0 0
0.0015346230 -0.0048639610 0 0
0.0004609500 -0.0076903610 0 0
-0.0004609740 -0.0108281930 0 0
-0.0011425000 -0.0140012240 0 0
-0.0015077530 -0.0169313940 0 0
-0.0015062910 -0.0193599130 0 0
-0.0011231940 -0.0210697220 0 0
-0.0003842160 -0.0219066400 0 0
0.0006449650 -0.0217966920 0 0
0.0018653770 -0.0207576400 0 0
0.0031561720 -0.0189012390 0 0
0.0043890360 -0.0164229200 0 0
0.0054439900 -0.0135804070 0 0
0.0062254400 -0.0106667580 0 0
0.0066763400 -0.0079816380 0 0
0.0067866730 -0.0058023710 0 0
0.0065930000 -0.0043572140 0 0
0.0061689590 -0.0038029430 0 0
0.0056092840 -0.0042069120 0 0
0.0050118900 -0.0055353740 0 0
0.0044631370 -0.0076531970 0 0
0.0040285140 -0.0103381900 0 0
0.0037475390 -0.0133071220 0 0
0.0036319850 -0.0162480140 0 0
0.0036680990 -0.0188543990 0 0
0.0038229350 -0.0208570000 0 0
0.0040533660 -0.0220485750 0 0
0.0043153810 -0.0223013490 0 0
0.0045710710 -0.0215785070 0 0
0.0047918510 -0.0199383680 0 0
0.0049584470 -0.0175281830 0 0
0.0050593330 -0.0145686230 0 0
0.0050893690 -0.0113335200 0 0
0.0050491700 -0.0081269910 0 0
0.0049440470 -0.0052572220 0 0
0.0047816080 -0.0030070900 0 0
0.0045693480 -0.0016036830 0 0
0.0043140800 -0.0011911430 0 0
0.0040232650 -0.0018135360 0 0
0.0037070500 -0.0034111810 0 0
0.0033801480 -0.0058261040 0 0
0.0030629950 -0.0088121470 0 0
0.0027808810 -0.0120544880 0 0
0.0025596260 -0.0152045740 0 0
0.0024181260 -0.0179251140 0 0
0.0023607060 -0.0199325260 0 0
0.0023739370 -0.0210285860 0 0
0.0024312510 -0.0211193730 0 0
0.0025040180 -0.0202213600 0 0
0.0025735140 -0.0184542150 0 0
0.0026382660 -0.0160220600 0 0
0.0027146950 -0.0131879110 0 0
0.0028320370 -0.0102459720 0 0
0.0030234360 -0.0074945520 0 0
0.0033160550 -0.0052110980 0 0
0.0037241060 -0.0036299980 0 0
0.0042473710 -0.0029234210 0 0
0.0048742430 -0.0031864640 0 0
0.0055863550 -0.0044282760 0 0
0.0063624050 -0.0065696450 0 0
0.0071795740 -0.0094466620 0 0
0.0080117960 -0.0128209820 0 0
0.0088263110 -0.0163981180 0 0
0.0095820700 -0.0198542880 0 0
0.0102325920 -0.0228693110 0 0
0.0107327610 -0.0251605830 0 0
0.0110469160 -0.0265132550 0 0
0.0111550480 -0.0268028190 0 0
0.0110549910 -0.0260075220 0 0
0.0107613260 -0.0242099300 0 0
0.0103036470 -0.0215886800 0 0
0.0097248730 -0.0184014560 0 0
0.0090774920 -0.0149597230 0 0
0.0084167060 -0.0115970070 0 0
0.0077929560 -0.0086344180 0 0
0.0072470370 -0.0063482410 0 0
0.0068081700 -0.0049443710 0 0
0.0064929220 -0.0045414600 0 0
0.0063035720 -0.0051617430 0 0
0.0062265690 -0.0067297220 0 0
0.0062330640 -0.0090806780 0 0
0.0062834670 -0.0119787500 0 0
0.0063362810 -0.0151412510 0 0
0.0063586400 -0.0182664050 0 0
0.0063347290 -0.0210631230 0 0
0.0062690770 -0.0232798470 0 0
0.0061832880 -0.0247278080 0 0
0.0061068180 -0.0252956060 0 0
0.0060650390 -0.0249551210 0 0
0.0060696240 -0.0237603860 0 0
0.0061148330 -0.0218406280 0 0
0.0061799570 -0.0193880170 0 0
0.0062356960 -0.0166408390 0 0
0.0062508550 -0.0138632550 0 0
0.0061963090 -0.0113228590 0 0
0.0060470630 -0.0092670620 0 0
0.0057859980 -0.0078996640 0 0
0.0054098310 -0.0073594460 0 0
0.0049333850 -0.0077031980 0 0
0.0043890060 -0.0088962970 0 0
0.0038216950 -0.0108131920 0 0
0.0032816340 -0.0132481340 0 0
0.0028154190 -0.0159360260 0 0
0.0024586360 -0.0185825760 0 0
0.0022324750 -0.0208993280 0 0
0.0021445760 -0.0226369690 0 0
0.0021926120 -0.0236123950 0 0
0.0023689880 -0.0237267130 0 0
0.0026646050 -0.0229720990 0 0
0.0030699020 -0.0214286300 0 0
0.0035731770 -0.0192544640 0 0
0.0041579570 -0.0166709490 0 0
0.0048018580 -0.0139429990 0 0
0.0054787660 -0.0113561380 0 0
0.0061636820 -0.0091910170 0 0
0.0068370110 -0.0076954240 0 0
0.0074853700 -0.0070564820 0 0
0.0080984590 -0.0073791170 0 0
0.0086642960 -0.0086754020 0 0
0.0091663430 -0.0108644740 0 0
0.0095838190 -0.0137798800 0 0
0.0098932330 -0.0171819850 0 0
0.0100692910 -0.0207757850 0 0
0.0100861790 -0.0242363460 0 0
0.0099213850 -0.0272420670 0 0
0.0095623660 -0.0295108210 0 0
0.0090133200 -0.0308316390 0 -1
0.0082978910 -0.0310869340 0 -1
0.0074557170 -0.0302630240 0 -1
0.0065346110 -0.0284484950 0 0
0.0055820630 -0.0258220660 0 0
0.0046388630 -0.0226328530 0 0
0.0037363180 -0.0191762920 0 0
0.0028973880 -0.0157682330 0 0
0.0021399600 -0.0127168510 0 0
0.0014787250 -0.0102918370 0 0
0.0009243500 -0.0086953240 0 0
0.0004826490 -0.0080416250 0 0
0.0001563020 -0.0083493510 0 0
-0.0000524763 -0.0095448650 0 0
-0.0001418630 -0.0114735710 0 0
-0.0001135020 -0.0139161410 0 0
0.0000245644 -0.0166094100 0 0
0.0002579170 -0.0192719740 0 0
0.0005679280 -0.0216323650 0 0
0.0009334930 -0.0234567810 0 0
0.0013313340 -0.0245731410 0 0
0.0017362490 -0.0248872840 0 0
0.0021231040 -0.0243883260 0 0
0.0024704820 -0.0231445860 0 0
0.0027645000 -0.0212939290 0 0
0.0030017790 -0.0190296910 0 0
0.0031900730 -0.0165811860 0 0
0.0033446250 -0.0141896980 0 0
0.0034810430 -0.0120838450 0 0
0.0036090820 -0.0104585560 0 0
0.0037314230 -0.0094596230 0 0
0.0038479140 -0.0091741880 0 0
0.0039619600 -0.0096268730 0 0
0.0040851050 -0.0107801650 0 0
0.0042385270 -0.0125376340 0 0
0.0044519780 -0.0147496680 0 0
0.0047592240 -0.0172226300 0 0
0.0051893440 -0.0197326440 0 0
0.0057572870 -0.0220444750 0 0
0.0064586270 -0.0239338640 0 0
0.0072694730 -0.0252093480 0 0
0.0081486390 -0.0257304450 0 0
0.0090398550 -0.0254215850 0 0
0.0098747480 -0.0242820870 0 0
0.0105781760 -0.0223920660 0 0
0.0110765820 -0.0199119790 0 0
0.0113089660 -0.0170718720 0 0
0.0112383220 -0.0141497980 0 0
0.0108595960 -0.0114434620 0 0
0.0102009520 -0.0092396440 0 0
0.0093183130 -0.0077838280 0 0
0.0082861700 -0.0072520880 0 0
0.0071888190 -0.0077293400 0 0
0.0061144560 -0.0091985330 0 0
0.0051504230 -0.0115421340 0 0
0.0043760210 -0.0145534500 0 0
0.0038526230 -0.0179557570 0 0
0.0036147330 -0.0214292010 0 0
0.0036654990 -0.0246444450 0 0
0.0039773380 -0.0272988740 0 0
0.0044963170 -0.0291496520 0 0
0.0051488160 -0.0300382740 0 -1
0.0058497470 -0.0299029530 0 0
0.0065115570 -0.0287787900 0 0
0.0070529040 -0.0267895220 0 0
0.0074062950 -0.0241343100 0 0
0.0075244460 -0.0210698780 0 0
0.0073853540 -0.0178880690 0 0
0.0069952070 -0.0148906750 0 0
0.0063871070 -0.0123631720 0 0
0.0056141350 -0.0105481660 0 0
0.0047380770 -0.0096207950 0 0
0.0038179380 -0.0096696990 0 0
0.0029028650 -0.0106859590 0 0
0.0020313580 -0.0125614770 0 0
0.0012350200 -0.0150994610 0 0
0.0005435330 -0.0180375430 0 0
-0.0000118371 -0.0210781140 0 0
-0.0003979050 -0.0239189960 0 0
-0.0005830480 -0.0262821230 0 0
-0.0005439490 -0.0279397810 0 0
-0.0002736470 -0.0287363360 0 0
0.0002125980 -0.0286033710 0 0
0.0008766680 -0.0275660500 0 0
0.0016618100 -0.0257382830 0 0
0.0024988510 -0.0233082560 0 0
0.0033129720 -0.0205188910 0 0
0.0040318430 -0.0176445620 0 0
0.0045953010 -0.0149637380 0 0
0.0049647760 -0.0127305770 0 0
0.0051296300 -0.0111494100 0 0
0.0051082030 -0.0103537170 0 0
0.0049426470 -0.0103922010 0 0
0.0046887280 -0.0112256540 0 0
0.0044043460 -0.0127338110 0 0
0.0041415710 -0.0147285070 0 0
0.0039438670 -0.0169727090 0 0
0.0038458510 -0.0192063150 0 0
0.0038722290 -0.0211757400 0 0
0.0040350770 -0.0226608850 0 0
0.0043306160 -0.0234945660 0 0
0.0047373080 -0.0235745060 0 0
0.0052177080 -0.0228704920 0 0
0.0057254570 -0.0214269460 0 0
0.0062146180 -0.0193590810 0 0
0.0066455240 -0.0168418050 0 0
0.0069849320 -0.0140928950 0 0
0.0072048370 -0.0113539820 0 0
0.0072848610 -0.0088720000 0 0
0.0072178450 -0.0068805870 0 0
0.0070151740 -0.0055800030 0 0
0.0067089700 -0.0051161250 0 0
0.0063492660 -0.0055613350 0 0
0.0059955970 -0.0069008830 0 0
0.0057048520 -0.0090278960 0 0
0.0055191510 -0.0117495940 0 0
0.0054575360 -0.0148061230 0 0
0.0055139290 -0.0179000940 0 0
0.0056616730 -0.0207311700 0 0
0.0058627290 -0.0230293990 0 0
0.0060776330 -0.0245832460 0 0
0.0062722510 -0.0252606650 0 0
0.0064199320 -0.0250221380 0 0
0.0065001840 -0.0239239900 0 0
0.0064959370 -0.0221105570 0 0
0.0063917750 -0.0197962310 0 0
0.0061747970 -0.0172411980 0 0
0.0058373270 -0.0147257500 0 0
0.0053801840 -0.0125259550 0 0
0.0048163180 -0.0108899270 0 0
0.0041738680 -0.0100142360 0 0
0.0034965830 -0.0100231680 0 0
0.0028404390 -0.0109540440 0 0
0.0022667680 -0.0127502940 0 0
0.0018334330 -0.0152641270 0 0
0.0015871010 -0.0182706880 0 0
0.0015590720 -0.0214926200 0 0
0.0017642450 -0.0246305030 0 0
0.0022016820 -0.0273943570 0 0
0.0028560110 -0.0295325780 0 0
0.0036991210 -0.0308553110 0 -1
0.0046912310 -0.0312504770 0 -1
0.0057805690 -0.0306916730 0 -1
0.0069019210 -0.0292383360 0 0
0.0079766180 -0.0270301970 0 0
0.0089171590 -0.0242767160 0 0
0.0096364870 -0.0212396680 0 0
0.0100587890 -0.0182084660 0 0
0.0101290960 -0.0154713820 0 0
0.0098208540 -0.0132869430 0 0
0.0091411020 -0.0118588330 0 0
0.0081316360 -0.0113168740 0 0
0.0068640200 -0.0117055480 0 0
0.0054290290 -0.0129807820 0 0
0.0039247720 -0.0150154030 0 0
0.0024476860 -0.0176123630 0 0
0.0010868800 -0.0205238620 0 0
-0.0000804807 -0.0234751160 0 0
-0.0009945530 -0.0261905570 0 0
-0.0016185910 -0.0284185640 0 0
-0.0019430990 -0.0299527710 0 0
-0.0019866770 -0.0306511450 0 -1
-0.0017933500 -0.0304525900 0 -1
-0.0014266490 -0.0293870150 0 0
-0.0009609150 -0.0275741130 0 0
-0.0004714060 -0.0252092930 0 0
-0.0000247865 -0.0225397450 0 0
0.0003297250 -0.0198363200 0 0
0.0005674570 -0.0173663240 0 0
0.0006905740 -0.0153692140 0 0
0.0007236580 -0.0140349530 0 0
0.0007046110 -0.0134852360 0 0
0.0006748670 -0.0137596140 0 0
0.0006713820 -0.0148095910 0 0
0.0007206010 -0.0165029060 0 0
0.0008338090 -0.0186387360 0 0
0.0010043890 -0.0209723260 0 0
0.0012090090 -0.0232440080 0 0
0.0014141180 -0.0252067210 0 0
0.0015857600 -0.0266497970 0 0
0.0016986370 -0.0274184090 0 0
0.0017415550 -0.0274266940 0 0
0.0017184680 -0.0266640170 0 0
0.0016457830 -0.0251961510 0 0
0.0015479870 -0.0231610250 0 0
0.0014543360 -0.0207566080 0 0
0.0013972960 -0.0182213250 0 0
0.0014101810 -0.0158107620 0 0
0.0015214670 -0.0137734690 0 0
0.0017469890 -0.0123260320 0 0
0.0020839930 -0.0116285410 0 0
0.0025099910 -0.0117654630 0 0
0.0029860340 -0.0127371510 0 0
0.0034622310 -0.0144618450 0 0
0.0038844950 -0.0167846720 0 0
0.0042021790 -0.0194913810 0 0
0.0043750850 -0.0223261250 0 0
0.0043783430 -0.0250135670 0 0
0.0042044980 -0.0272850480 0 0
0.0038620190 -0.0289052840 0 0
0.0033703050 -0.0296951730 0 0
0.0027538700 -0.0295491460 0 0
0.0020389860 -0.0284465800 0 0
0.0012533550 -0.0264558960 0 0
0.0004270330 -0.0237302660 0 0
-0.0004065290 -0.0204945940 0 0
-0.0012091190 -0.0170251080 0 0
-0.0019364700 -0.0136245020 0 0
-0.0025390950 -0.0105947080 0 0
-0.0029674180 -0.0082092430 0 0
-0.0031811150 -0.0066876030 0 0
-0.0031595760 -0.0061727980 0 0
-0.0029093850 -0.0067140060 0 0
-0.0024660730 -0.0082589310 0 0
-0.0018889610 -0.0106578290 0 0
-0.0012496480 -0.0136767420 0 0
-0.0006176290 -0.0170193170 0 0
-0.0000483145 -0.0203583660 0 0
0.0004225380 -0.0233722750 0 0
0.0007772960 -0.0257775040 0 0
0.0010103140 -0.0273541110 0 0
0.0011211720 -0.0279653550 0 0
0.0011106730 -0.0275696290 0 0
0.0009808260 -0.0262225570 0 0
0.0007377930 -0.0240698550 0 0
0.0003947180 -0.0213320450 0 0
-0.0000289318 -0.0182826370 0 0
-0.0005117460 -0.0152228770 0 0
-0.0010347050 -0.0124551240 0 0
-0.0015820100 -0.0102557870 0 0
-0.0021390980 -0.0088491770 0 0
-0.0026907150 -0.0083846900 0 0
-0.0032195350 -0.0089210340 0 0
-0.0037038850 -0.0104202780 0 0
-0.0041154270 -0.0127517470 0 0
-0.0044200040 -0.0157051230 0 0
-0.0045824500 -0.0190120300 0 0
-0.0045725680 -0.0223735190 0 0
-0.0043699660 -0.0254893110 0 0
-0.0039679060 -0.0280853350 0 0
-0.0033761780 -0.0299377400 0 0
-0.0026218700 -0.0308922350 0 -1
-0.0017473560 -0.0308770540 0 -1
-0.0008058880 -0.0299086170 0 0
0.0001439740 -0.0280906360 0 0
0.0010434740 -0.0256064510 0 0
0.0018379290 -0.0227023830 0 0
0.0024813380 -0.0196621540 0 0
0.0029416460 -0.0167770620 0 0
0.0032048970 -0.0143177620 0 0
0.0032760030 -0.0125108440 0 0
0.0031757950 -0.0115206490 0 0
0.0029363070 -0.0114358280 0 0
0.0025965030 -0.0122606190 0 0
0.0021988360 -0.0139117090 0 0
0.0017857810 -0.0162221960 0 0
0.0013960240 -0.0189543370 0 0
0.0010612200 -0.0218216730 0 0
0.0008047930 -0.0245192940 0 0
0.0006435150 -0.0267591780 0 0
0.0005908840 -0.0283054700 0 0
0.0006594830 -0.0290034130 0 0
0.0008596360 -0.0287964350 0 0
0.0011942800 -0.0277285020 0 0
0.0016527020 -0.0259335840 0 0
0.0022068940 -0.0236169290 0 0
0.0028127730 -0.0210307880 0 0
0.0034157410 -0.0184452800 0 0
0.0039588470 -0.0161180160 0 0
0.0043923650 -0.0142693730 0 0
0.0046838220 -0.0130673270 0 0
0.0048268010 -0.0126197170 0 0
0.0048453630 -0.0129701170 0 0
0.0047906260 -0.0140951710 0 0
0.0047291330 -0.0159028720 0 0
0.0047274570 -0.0182342130 0 0
0.0048392660 -0.0208727690 0 0
0.0050979920 -0.0235642760 0 0
0.0055140870 -0.0260437990 0 0
0.0060749230 -0.0280654200 0 0
0.0067467070 -0.0294289430 0 0
0.0074786080 -0.0299994770 0 0
0.0082087880 -0.0297179340 0 0
0.0088709430 -0.0286036060 0 0
0.0094005930 -0.0267523160 0 0
0.0097420090 -0.0243312490 0 0
0.0098559040 -0.0215672310 0 0
0.0097255300 -0.0187261930 0 0
0.0093586190 -0.0160863300 0 0
0.0087849390 -0.0139098490 0 0
0.0080511890 -0.0124169960 0 0
0.0072153140 -0.0117640040 0 0
0.0063418190 -0.0120257590 0 0
0.0054983630 -0.0131852430 0 0
0.0047524990 -0.0151328280 0 0
0.0041668200 -0.0176759770 0 0
0.0037917300 -0.0205565780 0 0
0.0036572030 -0.0234741590 0 0
0.0037666740 -0.0261156150 0 0
0.0040960870 -0.0281897170 0 0
0.0045994130 -0.0294607440 0 0
0.0052187160 -0.0297759840 0 0
0.0058941070 -0.0290839820 0 0
0.0065702460 -0.0274411400 0 0
0.0071997660 -0.0250057980 0 0
0.0077449800 -0.0220205770 0 0
0.0081786690 -0.0187844220 0 0
0.0084855700 -0.0156179440 0 0
0.0086652100 -0.0128288340 0 0
0.0087337730 -0.0106830550 0 0
0.0087225890 -0.0093826940 0 0
0.0086735060 -0.0090490260 0 0
0.0086323980 -0.0097107820 0 0
0.0086413210 -0.0112994950 0 0
0.0087305320 -0.0136542630 0 0
0.0089125620 -0.0165367140 0 0
0.0091793730 -0.0196544570 0 0
0.0095025710 -0.0226900710 0 0
0.0098371930 -0.0253326770 0 0
0.0101294410 -0.0273092380 0 0
0.0103268200 -0.0284130390 0 0
0.0103872880 -0.0285265750 0 0
0.0102843000 -0.0276348070 0 0
0.0100070300 -0.0258252000 0 0
0.0095577350 -0.0232744580 0 0
0.0089493390 -0.0202259100 0 0
0.0082046320 -0.0169627080 0 0
0.0073557690 -0.0137805100 0 0
0.0064423690 -0.0109619040 0 0
0.0055083200 -0.0087546410 0 0
0.0045985120 -0.0073547490 0 0
0.0037563060 -0.0068932090 0 0
0.0030219060 -0.0074246800 0 0
0.0024312900 -0.0089196050 0 0
0.0020152560 -0.0112624690 0 0
0.0017985210 -0.0142580280 0 0
0.0017988950 -0.0176461340 0 0
0.0020264060 -0.0211243700 0 0
0.0024823780 -0.0243767550 0 0
0.0031582060 -0.0271064560 0 0
0.0040330250 -0.0290684360 0 0
0.0050709210 -0.0300957970 0 -1
0.0062202200 -0.0301155630 0 -1
0.0074161230 -0.0291536920 0 0
0.0085850510 -0.0273308650 0 0
0.0096489590 -0.0248503890 0 0
0.0105301910 -0.0219782730 0 0
0.0111581950 -0.0190152370 0 0
0.0114774100 -0.0162635430 0 0
0.0114544840 -0.0139945510 0 0
0.0110838840 -0.0124216700 0 0
0.0103913030 -0.0116802980 0 0
0.0094332520 -0.0118156890 0 0
0.0082914090 -0.0127806650 0 0
0.0070624280 -0.0144439480 0 0
0.0058458590 -0.0166068140 0 0
0.0047329450 -0.0190246120 0 0
0.0037983760 -0.0214312180 0 0
0.0030964880 -0.0235653710 0 0
0.0026618800 -0.0251964280 0 0
0.0025119610 -0.0261459450 0 0
0.0026479430 -0.0263027380 0 0
0.0030525330 -0.0256311280 0 0
0.0036859060 -0.0241730460 0 0
0.0044840990 -0.0220444970 0 0
0.0053634620 -0.0194261220 0 0
0.0062315500 -0.0165477870 0 0
0.0070010940 -0.0136686160 0 0
0.0076025070 -0.0110540920 0 0
0.0079922710 -0.0089511420 0 0
0.0081572250 -0.0075626070 0 0
0.0081152240 -0.0070239820 0 0
0.0079116250 -0.0073860810 0 0
0.0076115540 -0.0086074020 0 0
0.0072896050 -0.0105586580 0 0
0.0070190390 -0.0130383430 0 0
0.0068618740 -0.0157954910 0 0
0.0068605110 -0.0185559470 0 0
0.0070315700 -0.0210495470 0 0
0.0073641540 -0.0230361390 0 0
0.0078246720 -0.0243276420 0 0
0.0083660530 -0.0248030790 0 0
0.0089355700 -0.0244160030 0 0
0.0094776570 -0.0231965930 0 0
0.0099335820 -0.0212503150 0 0
0.0102429160 -0.0187527120 0 0
0.0103505760 -0.0159384200 0 0
0.0102184150 -0.0130826350 0 0
0.0098357910 -0.0104752790 0 0
0.0092240890 -0.0083908460 0 0
0.0084347490 -0.0070583940 0 0
0.0075429480 -0.0066359410 0 0
0.0066381830 -0.0071925510 0 0
0.0058125060 -0.0087001890 0 0
0.0051485210 -0.0110360590 0 0
0.0047096570 -0.0139946900 0 0
0.0045341840 -0.0173079260 0 0
0.0046333150 -0.0206707570 0 0
0.0049930560 -0.0237709330 0 0
0.0055787120 -0.0263190750 0 0
0.0063403440 -0.0280756410 0 0
0.0072180810 -0.0288729350 0 0
0.0081470620 -0.0286316480 0 0
0.0090615880 -0.0273715680 0 0
0.0098981180 -0.0252153930 0 0
0.0105980350 -0.0223815240 0 0
0.0111113160 -0.0191618770 0 0
0.0114007740 -0.0158868840 0 0
0.0114456320 -0.0128850010 0 0
0.0112437510 -0.0104451300 0 0
0.0108125020 -0.0087886640 0 0
0.0101882220 -0.0080523830 0 0
0.0094232850 -0.0082784050 0 0
0.0085794220 -0.0094094530 0 0
0.0077181440 -0.0112932450 0 0
0.0068918190 -0.0137006920 0 0
0.0061384180 -0.0163567870 0 0
0.0054801080 -0.0189764700 0 0
0.0049244420 -0.0212966070 0 0
0.0044677340 -0.0230993020 0 0
0.0041010950 -0.0242265990 0 0
0.0038181620 -0.0245887140 0 0
0.0036207400 -0.0241680400 0 0
0.0035188470 -0.0230203640 0 0
0.0035257980 -0.0212715500 0 0
0.0036520850 -0.0191064000 0 0
0.0039011130 -0.0167511350 0 0
0.0042675090 -0.0144536400 0 0
0.0047375610 -0.0124617520 0 0
0.0052906290 -0.0109988910 0 0
0.0058998310 -0.0102401810 0 0
0.0065312270 -0.0102930980 0 0
0.0071430930 -0.0111848850 0 0
0.0076879870 -0.0128583220 0 0
0.0081190680 -0.0151762120 0 0
0.0083995620 -0.0179331780 0 0
0.0085113980 -0.0208737690 0 0
0.0084583810 -0.0237168180 0 0
0.0082625520 -0.0261839570 0 0
0.0079564180 -0.0280279400 0 0
0.0075744280 -0.0290573510 0 0
0.0071458300 -0.0291558980 0 0
0.0066903690 -0.0282942800 0 0
0.0062175000 -0.0265334980 0 0
0.0057280840 -0.0240207530 0 0
0.0052166310 -0.0209783690 0 0
0.0046735100 -0.0176840710 0 0
0.0040881300 -0.0144426280 0 0
0.0034530860 -0.0115531240 0 0
0.0027674280 -0.0092781170 0 0
0.0020381190 -0.0078190170 0 0
0.0012807250 -0.0072989560 0 0
0.0005198560 -0.0077533530 0 0
-0.0002112260 -0.0091282890 0 0
-0.0008716810 -0.0112861860 0 0
-0.0014144760 -0.0140179450 0 0
-0.0017893860 -0.0170608530 0 0
-0.0019488250 -0.0201218080 0 0
-0.0018550300 -0.0229054140 0 0
-0.0014862040 -0.0251450050 0 0
-0.0008409200 -0.0266316510 0 0
0.0000595041 -0.0272354850 0 0
0.0011717640 -0.0269171530 0 0
0.0024343420 -0.0257303360 0 0
0.0037724190 -0.0238159610 0 0
0.0051029000 -0.0213876850 0 0
0.0063405490 -0.0187090880 0 0
0.0074063850 -0.0160654980 0 0
0.0082375530 -0.0137349650 0 0
0.0087956760 -0.0119614820 0 0
0.0090703960 -0.0109310670 0 0
0.0090767940 -0.0107517760 0 0
0.0088486500 -0.0114411200 0 0
0.0084314030 -0.0129246910 0 0
0.0078775770 -0.0150468750 0 0
0.0072445990 -0.0175904950 0 0
0.0065930750 -0.0203008420 0 0
0.0059840490 -0.0229108840 0 0
0.0054749420 -0.0251654560 0 0
0.0051146970 -0.0268430900 0 0
0.0049390180 -0.0277753220 0 0
0.0049668180 -0.0278624810 0 0
0.0051985420 -0.0270836310 0 0
0.0056162670 -0.0254993580 0 0
0.0061846840 -0.0232466050 0 0
0.0068522240 -0.0205249550 0 0
0.0075532100 -0.0175771150 0 0
0.0082129650 -0.0146677620 0 0
0.0087560420 -0.0120613560 0 0
0.0091154590 -0.0099985010 0 0
0.0092410720 -0.0086727990 0 0
0.0091068860 -0.0082105850 0 0
0.0087167110 -0.0086557980 0 0
0.0081054550 -0.0099637390 0 0
0.0073334950 -0.0120060270 0 0
0.0064754700 -0.0145852560 0 0
0.0056083940 -0.0174568440 0 0
0.0048035670 -0.0203551510 0 0
0.0041226920 -0.0230186610 0 0
0.0036154620 -0.0252107870 0 0
0.0033164430 -0.0267378710 0 0
0.0032406950 -0.0274660250 0 0
0.0033785420 -0.0273350510 0 0
0.0036917160 -0.0263671580 0 0
0.0041148570 -0.0246686950 0 0
0.0045650110 -0.0224228470 0 0
0.0049574120 -0.0198721750 0 0
0.0052216460 -0.0172924520 0 0
0.0053120150 -0.0149616530 0 0
0.0052097790 -0.0131289710 0 0
0.0049196790 -0.0119882180 0 0
0.0044648160 -0.0116589720 0 0
0.0038828340 -0.0121771330 0 0
0.0032242740 -0.0134942910 0 0
0.0025510860 -0.0154838450 0 0
0.0019318630 -0.0179524770 0 0
0.0014333910 -0.0206572450 0 0
0.0011116760 -0.0233283140 0 0
0.0010054280 -0.0256949670 0 0
0.0011324790 -0.0275111990 0 0
0.0014884350 -0.0285784900 0 0
0.0020473850 -0.0287649140 0 0
0.0027647540 -0.0280197930 0 0
0.0035818830 -0.0263825490 0 0
0.0044322050 -0.0239836350 0 0
0.0052487400 -0.0210353910 0 0
0.0059714170 -0.0178126070 0 0
0.0065527280 -0.0146255810 0 0
0.0069616590 -0.0117894620 0 0
0.0071855410 -0.0095920840 0 0
0.0072288640 -0.0082613700 0 0
0.0071096220 -0.0079359170 0 0
0.0068556080 -0.0086455250 0 0
0.0065026980 -0.0103067550 0 0
0.0060950490 -0.0127328950 0 0
0.0056847050 -0.0156544170 0 0
0.0053276400 -0.0187474910 0 0
0.0050762540 -0.0216695140 0 0
0.0049710540 -0.0240980320 0 0
0.0050340700 -0.0257664290 0 0
0.0052649380 -0.0264909280 0 0
0.0056397520 -0.0261868100 0 0
0.0061131620 -0.0248734450 0 0
0.0066244840 -0.0226687610 0 0
0.0071073980 -0.0197752360 0 0
0.0075013000 -0.0164592160 0 0
0.0077622020 -0.0130245910 0 0
0.0078711660 -0.0097830850 0 0
0.0078378860 -0.0070252210 0 0
0.0076978280 -0.0049959980 0 0
0.0075035330 -0.0038765920 0 0
0.0073129630 -0.0037705170 0 0
0.0071783520 -0.0046929520 0 0
0.0071377240 -0.0065643040 0 0
0.0072092580 -0.0092108520 0 0
0.0073884740 -0.0123763540 0 0
0.0076496560 -0.0157467310 0 0
0.0079525280 -0.0189851580 0 0
0.0082523060 -0.0217712130 0 0
0.0085092770 -0.0238368140 0 0
0.0086945650 -0.0249929090 0 0
0.0087912220 -0.0251450540 0 0
0.0087928700 -0.0242996130 0 0
0.0087025880 -0.0225611530 0 0
0.0085320820 -0.0201194660 0 0
0.0082993360 -0.0172266810 0 0
0.0080246280 -0.0141690420 0 0
0.0077272510 -0.0112389050 0 0
0.0074247620 -0.0087098110 0 0
0.0071341380 -0.0068143020 0 0
0.0068729780 -0.0057242650 0 0
0.0066593890 -0.0055364390 0 0
0.0065100270 -0.0062658010 0 0
0.0064374180 -0.0078459400 0 0
0.0064487820 -0.0101341670 0 0
0.0065473070 -0.0129211680 0 0
0.0067339670 -0.0159462150 0 0
0.0070075130 -0.0189189340 0 0
0.0073631500 -0.0215476250 0 0
0.0077921370 -0.0235709160 0 0
0.0082827890 -0.0247868850 0 0
0.0088212740 -0.0250744300 0 0
0.0093906550 -0.0244034110 0 0
0.0099679170 -0.0228328370 0 0
0.0105208380 -0.0205006560 0 0
0.0110075270 -0.0176095880 0 0
0.0113798560 -0.0144099830 0 0
0.0115901740 -0.0111794460 0 0
0.0115998910 -0.0082007010 0 0
0.0113875500 -0.0057387140 0 0
0.0109538920 -0.0040160290 0 0
0.0103228670 -0.0031866950 0 0
0.0095388460 -0.0033142800 0 0
0.0086608480 -0.0043619740 0 0
0.0077555570 -0.0061980240 0 0
0.0068915450 -0.0086128020 0 0
0.0061355760 -0.0113410760 0 0
0.0055493840 -0.0140857990 0 0
0.0051852680 -0.0165450520 0 0
0.0050812190 -0.0184444020 0 0
0.0052571340 -0.0195696740 0 0
0.0057121310 -0.0197909300 0 0
0.0064226340 -0.0190731840 0 0
0.0073425470 -0.0174746500 0 0
0.0084070480 -0.0151359640 0 0
0.0095393300 -0.0122654360 0 0
0.0106582280 -0.0091227820 0 0
0.0116857820 -0.0059992150 0 0
0.0125552190 -0.0031925100 0 0
0.0132197830 -0.0009786090 0 0
0.0136611890 0.0004184020 0 0
0.0138942420 0.0008540880 0 0
0.0139639270 0.0002817240 0 0
0.0139349720 -0.0012447200 0 0
0.0138786130 -0.0035810190 0 0
0.0138620830 -0.0065110480 0 0
0.0139424280 -0.0097688140 0 0
0.0141621730 -0.0130626160 0 0
0.0145443100 -0.0161013090 0 0
0.0150870640 -0.0186212390 0 0
0.0157610740 -0.0204098430 0 0
0.0165111110 -0.0213225850 0 0
0.0172626480 -0.0212933220 0 0
0.0179314990 -0.0203396370 0 0
0.0184338430 -0.0185636010 0 0
0.0186951130 -0.0161467380 0 0
0.0186576300 -0.0133363900 0 0
0.0182865150 -0.0104220950 0 0
0.0175731540 -0.0077054170 0 0
0.0165361550 -0.0054690670 0 0
0.0152201300 -0.0039485110 0 0
0.0136921160 -0.0033069130 0 0
0.0120358280 -0.0036152300 0 0
0.0103451380 -0.0048408790 0 0
0.0087179640 -0.0068484080 0 0
0.0072498000 -0.0094139120 0 0
0.0060259450 -0.0122519510 0 0
0.0051140420 -0.0150510080 0 0
0.0045595810 -0.0175108370 0 0
0.0043846120 -0.0193744400 0 0
0.0045876860 -0.0204510640 0 0
0.0051434710 -0.0206309970 0 0
0.0060025330 -0.0198933410 0 0
0.0070930020 -0.0183061970 0 0
0.0083255000 -0.0160185600 0 0
0.0096012670 -0.0132444440 0 0
0.0108222160 -0.0102408010 0 0
0.0119007500 -0.0072811920 0 0
0.0127669830 -0.0046289060 0 0
0.0133725240 -0.0025146750 0 0
0.0136921350 -0.0011210640 0 0
0.0137250170 -0.0005712630 0 0
0.0134956100 -0.0009195460 0 0
0.0130514970 -0.0021424840 0 0
0.0124563000 -0.0041330570 0 0
0.0117787660 -0.0067031090 0 0
0.0110820510 -0.0095986760 0 0
0.0104166630 -0.0125276610 0 0
0.0098183520 -0.0151945140 0 0
0.0093099840 -0.0173340820 0 0
0.0089051190 -0.0187383750 0 0
0.0086112010 -0.0192746430 0 0
0.0084308590 -0.0188959380 0 0
0.0083606370 -0.0176447660 0 0
0.0083881870 -0.0156488590 0 0
0.0084901850 -0.0131075280 0 0
0.0086325090 -0.0102695250 0 0
0.0087732620 -0.0074072500 0 0
0.0088687130 -0.0047926480 0 0
0.0088807740 -0.0026765820 0 0
0.0087838620 -0.0012696180 0 0
0.0085700800 -0.0007218510 0 0
0.0082517870 -0.0011034720 0 0
0.0078597960 -0.0023912760 0 0
0.0074369680 -0.0044649560 0 0
0.0070295820 -0.0071145970 0 0
0.0066788110 -0.0100606350 0 0
0.0064137140 -0.0129859750 0 0
0.0062475020 -0.0155749080 0 0
0.0061785800 -0.0175508410 0 0
0.0061952470 -0.0187075180 0 0
0.0062811060 -0.0189312050 0 0
0.0064192980 -0.0182117020 0 0
0.0065953280 -0.0166408850 0 0
0.0067982580 -0.0143997310 0 0
0.0070196680 -0.0117370240 0 0
0.0072505610 -0.0089429550 0 0
0.0074782260 -0.0063192700 0 0
0.0076860380 -0.0041477860 0 0
0.0078570260 -0.0026611430 0 0
0.0079792300 -0.0020200660 0 0
0.0080502590 -0.0022995620 0 0
0.0080793780 -0.0034846800 0 0
0.0080864480 -0.0054752930 0 0
0.0080974840 -0.0080970760 0 0
0.0081368330 -0.0111152110 0 0
0.0082179040 -0.0142519160 0 0
0.0083372030 -0.0172112330 0 0
0.0084759920 -0.0197093900 0 0
0.0086088190 -0.0215042690 0 0
0.0087135540 -0.0224188450 0 0
0.0087774120 -0.0223572920 0 0
0.0087968610 -0.0213133560 0 0
0.0087734770 -0.0193704170 0 0
0.0087102760 -0.0166944040 0 0
0.0086111540 -0.0135213560 0 0
0.0084815770 -0.0101390640 0 0
0.0083277040 -0.0068607500 0 0
0.0081536290 -0.0039918870 0 0
0.0079581800 -0.0017965340 0 0
0.0077332170 -0.0004704420 0 0
0.0074655050 -0.0001239040 0 0
0.0071425230 -0.0007736060 0 0
0.0067600090 -0.0023427660 0 0
0.0063277980 -0.0046697740 0 0
0.0058712510 -0.0075248380 0 0
0.0054277120 -0.0106324680 0 0
0.0050395080 -0.0136971920 0 0
0.0047457510 -0.0164303670 0 0
0.0045747840 -0.0185761940 0 0
0.0045383920 -0.0199348110 0 0
0.0046290270 -0.0203806080 0 0
0.0048215950 -0.0198743720 0 0
0.0050803590 -0.0184683920 0 0
0.0053686460 -0.0163034020 0 0
0.0056567740 -0.0135958310 0 0
0.0059252080 -0.0106157330 0 0
0.0061641370 -0.0076590690 0 0
0.0063721130 -0.0050186820 0 0
0.0065540280 -0.0029561490 0 0
0.0067176010 -0.0016757060 0 0
0.0068696510 -0.0013029860 0 0
0.0070143030 -0.0018723510 0 0
0.0071536970 -0.0033247930 0 0
0.0072904440 -0.0055155900 0 0
0.0074305100 -0.0082299380 0 0
0.0075843490 -0.0112047960 0 0
0.0077644780 -0.0141546090 0 0
0.0079804540 -0.0167983240 0 0
0.0082340150 -0.0188861360 0 0
0.0085159810 -0.0202237350 0 0
0.0088054120 -0.0206896770 0 0
0.0090718290 -0.0202431960 0 0
0.0092805250 -0.0189250790 0 0
0.0093995640 -0.0168548920 0 0
0.0094071670 -0.0142234990 0 0
0.0092982690 -0.0112779860 0 0
0.0090879690 -0.0082985170 0 0
0.0088099890 -0.0055688780 0 0
0.0085110240 -0.0033445210 0 0
0.0082431290 -0.0018243850 0 0
0.0080547900 -0.0011322450 0 0
0.0079808610 -0.0013085780 0 0
0.0080338960 -0.0023102370 0 0
0.0082010430 -0.0040156650 0 0
0.0084486180 -0.0062355610 0 0
0.0087321860 -0.0087299300 0 0
0.0090071780 -0.0112310500 0 0
0.0092361910 -0.0134692410 0 0
0.0093926390 -0.0151981780 0 0
0.0094625900 -0.0162190750 0 0
0.0094454490 -0.0164032050 0 0
0.0093520350 -0.0157085200 0 0
0.0091995700 -0.0141851320 0 0
0.0090060680 -0.0119687280 0 0
0.0087869720 -0.0092650490 0 0
0.0085539320 -0.0063287460 0 0
0.0083135460 -0.0034383120 0 0
0.0080658560 -0.0008686110 0 0
0.0078051080 0.0011362210 0 0
0.0075241730 0.0023863480 0 0
0.0072206060 0.0027639670 0 0
0.0069013840 0.0022336940 0 0
0.0065850130 0.0008446990 0 0
0.0063010890 -0.0012746620 0 0
0.0060871190 -0.0039277540 0 0
0.0059819950 -0.0068654590 0 0
0.0060171830 -0.0098078830 0 0
0.0062085910 -0.0124713910 0 0
0.0065519530 -0.0145972760 0 0
0.0070229220 -0.0159783040 0 0
0.0075812330 -0.0164811310 0 0
0.0081767340 -0.0160621280 0 0
0.0087548810 -0.0147733830 0 0
0.0092606750 -0.0127577910 0 0
0.0096422060 -0.0102344890 0 0
0.0098557640 -0.0074758080 0 0
0.0098722430 -0.0047768060 0 0
0.0096820260 -0.0024208390 0 0
0.0092959890 -0.0006473640 0 0
0.0087427040 0.0003723380 0 0
0.0080633380 0.0005492000 0 0
0.0073065330 -0.0001197580 0 0
0.0065252330 -0.0015567850 0 0
0.0057751000 -0.0036155790 0 0
0.0051124070 -0.0060970370 0 0
0.0045906640 -0.0087671070 0 0
0.0042568410 -0.0113772970 0 0
0.0041475610 -0.0136878100 0 0
0.0042850310 -0.0154911890 0 0
0.0046731330 -0.0166323220 0 0
0.0052952610 -0.0170207870 0 0
0.0061153230 -0.0166346140 0 0
0.0070815510 -0.0155184110 0 0
0.0081315090 -0.0137798050 0 0
0.0091971300 -0.0115846190 0 0
0.0102093490 -0.0091472840 0 0
0.0111020990 -0.0067138880 0 0
0.0118157580 -0.0045392500 0 0
0.0123004260 -0.0028613710 0 0
0.0125193640 -0.0018753600 0 0
0.0124526710 -0.0017082870 0 0
0.0121006130 -0.0023994470 0 0
0.0114856930 -0.0038924030 0 0
0.0106527320 -0.0060413890 0 0
0.0096659990 -0.0086286130 0 0
0.0086025390 -0.0113867050 0 0
0.0075427630 -0.0140244090 0 0
0.0065610570 -0.0162570000 0 0
0.0057187980 -0.0178380770 0 0
0.0050606610 -0.0185852470 0 0
0.0046136150 -0.0183971850 0 0
0.0043873930 -0.0172635490 0 0
0.0043758890 -0.0152667200 0 0
0.0045594950 -0.0125739910 0 0
0.0049078730 -0.0094215250 0 0
0.0053827820 -0.0060917060 0 0
0.0059412210 -0.0028853790 0 0
0.0065388050 -0.0000922685 0 0
0.0071323070 0.0020363820 0 0
0.0076807470 0.0033103720 0 0
0.0081465450 0.0036169280 0 0
0.0084991100 0.0029300560 0 0
0.0087206950 0.0013127280 0 0
0.0088110650 -0.0010880260 0 0
0.0087877800 -0.0040533210 0 0
0.0086819950 -0.0073115210 0 0
0.0085322220 -0.0105636650 0 0
0.0083782540 -0.0135137780 0 0
0.0082556360 -0.0158996630 0 0
0.0081904350 -0.0175183830 0 0
0.0081946040 -0.0182435440 0 0
0.0082628080 -0.0180347690 0 0
0.0083722670 -0.0169401610 0 0
0.0084870740 -0.0150921670 0 0
0.0085660050 -0.0126966190 0 0
0.0085706790 -0.0100138740 0 0
0.0084720300 -0.0073327590 0 0
0.0082556640 -0.0049409430 0 0
0.0079264500 -0.0030953040 0 0
0.0075099320 -0.0019947440 0 0
0.0070480070 -0.0017588490 0 0
0.0065902130 -0.0024162680 0 0
0.0061848400 -0.0039046680 0 0
0.0058726750 -0.0060805960 0 0
0.0056834760 -0.0087359610 0 0
0.0056345620 -0.0116187940 0 0
0.0057314370 -0.0144568730 0 0
0.0059699130 -0.0169825220 0 0
0.0063379960 -0.0189571110 0 0
0.0068162910 -0.0201941050 0 0
0.0073777800 -0.0205780140 0 0
0.0079880830 -0.0200751740 0 0
0.0086063890 -0.0187344770 0 0
0.0091872690 -0.0166805880 0 0
0.0096834110 -0.0141028890 0 0
0.0100490540 -0.0112405430 0 0
0.0102445940 -0.0083628990 0 0
0.0102426630 -0.0057460690 0 0
0.0100342710 -0.0036474010 0 0
0.0096325640 -0.0022794140 0 0
0.0090725060 -0.0017856170 0 0
0.0084060140 -0.0022219610 0 0
0.0076932170 -0.0035474840 0 0
0.0069921770 -0.0056267190 0 0
0.0063509430 -0.0082443880 0 0
0.0058047760 -0.0111294410 0 0
0.0053777460 -0.0139839200 0 0
0.0050851530 -0.0165138990 0 0
0.0049344480 -0.0184603490 0 0
0.0049248350 -0.0196262600 0 0
0.0050461890 -0.0198958460 0 0
0.0052778850 -0.0192435000 0 0
0.0055892480 -0.0177334310 0 0
0.0059434600 -0.0155124850 0 0
0.0063041860 -0.0127964900 0 0
0.0066411360 -0.0098489900 0 0
0.0069310150 -0.0069544450 0 0
0.0071547090 -0.0043910030 0 0
0.0072955780 -0.0024062980 0 0
0.0073424520 -0.0011966960 0 0
0.0072954340 -0.0008896560 0 0
0.0071691670 -0.0015295070 0 0
0.0069899010 -0.0030685560 0 0
0.0067871820 -0.0053668770 0 0
0.0065840180 -0.0082036580 0 0
0.0063895040 -0.0113003390 0 0
0.0061960890 -0.0143518410 0 0
0.0059820900 -0.0170600800 0 0
0.0057192180 -0.0191645370 0 0
0.0053838020 -0.0204664280 0 0
0.0049681170 -0.0208452320 0 0
0.0044863520 -0.0202675010 0 0
0.0039713120 -0.0187869310 0 0
0.0034633240 -0.0165359000 0 0
0.0029978630 -0.0137126040 0 0
0.0025988510 -0.0105673680 0 0
0.0022799440 -0.0073863730 0 0
0.0020502180 -0.0044685570 0 0
0.0019184530 -0.0020940430 0 0
0.0018932860 -0.0004874610 0 0
0.0019806470 0.0002140120 0 0
0.0021810040 -0.0000237954 0 0
0.0024876040 -0.0011361720 0 0
0.0028863010 -0.0029761140 0 0
0.0033574930 -0.0053351620 0 0
0.0038795010 -0.0079652720 0 0
0.0044313270 -0.0106008050 0 0
0.0049930520 -0.0129799860 0 0
0.0055438800 -0.0148661270 0 0
0.0060597440 -0.0160688280 0 0
0.0065130760 -0.0164632540 0 0
0.0068753090 -0.0160043630 0 0
0.0071201500 -0.0147336030 0 0
0.0072260710 -0.0127758120 0 0
0.0071782860 -0.0103247570 0 0
0.0069707920 -0.0076204600 0 0
0.0066081760 -0.0049254000 0 0
0.0061063520 -0.0025027110 0 0
0.0054918900 -0.0005939620 0 0
0.0048005650 0.0006046560 0 0
0.0040761430 0.0009646320 0 0
0.0033691510 0.0004413040 0 0
0.0027339670 -0.0009198300 0 0
0.0022234060 -0.0029877730 0 0
0.0018819730 -0.0055602690 0 0
0.0017395370 -0.0083854320 0 0
0.0018070000 -0.0111878170 0 0
0.0020752700 -0.0136954580 0 0
0.0025180500 -0.0156656860 0 0
0.0030974360 -0.0169081870 0 0
0.0037699400 -0.0173030400 0 0
0.0044906850 -0.0168112560 0 0
0.0052153480 -0.0154773480 0 0
0.0059017680 -0.0134249970 0 0
0.0065134510 -0.0108456110 0 0
0.0070240860 -0.0079800120 0 0
0.0074195080 -0.0050958580 0 0
0.0076953270 -0.0024627610 0 0
0.0078524500 -0.0003261610 0 0
0.0078937050 0.0011169410 0 0
0.0078227520 0.0017366920 0 0
0.0076451550 0.0014825080 0 0
0.0073712640 0.0003887490 0 0
0.0070198520 -0.0014271360 0 0
0.0066208280 -0.0037750940 0 0
0.0062152980 -0.0064110120 0 0
0.0058519780 -0.0090615270 0 0
0.0055802710 -0.0114526230 0 0
0.0054415590 -0.0133381560 0 0
0.0054611070 -0.0145244370 0 0
0.0056433230 -0.0148891270 0 0
0.0059719170 -0.0143934930 0 0
0.0064138570 -0.0130864050 0 0
0.0069245360 -0.0110992870 0 0
0.0074524420 -0.0086331270 0 0
0.0079434040 -0.0059391510 0 0
0.0083453820 -0.0032946180 0 0
0.0086145850 -0.0009759530 0 0
0.0087224190 0.0007675190 0 0
0.0086609460 0.0017373290 0 0
0.0084439120 0.0018067900 0 0
0.0081023440 0.0009368650 0 0
0.0076766490 -0.0008171110 0 0
0.0072085940 -0.0033096580 0 0
0.0067358150 -0.0063187980 0 0
0.0062893070 -0.0095666810 0 0
0.0058920090 -0.0127456320 0 0
0.0055561600 -0.0155482360 0 0
0.0052801980 -0.0176992240 0 0
0.0050490280 -0.0189864010 0 0
0.0048394560 -0.0192863480 0 0
0.0046276840 -0.0185780460 0 0
0.0043942910 -0.0169401390 0 0
0.0041246330 -0.0145357420 0 0
0.0038058900 -0.0115927740 0 0
0.0034240740 -0.0083833080 0 0
0.0029638310 -0.0052002540 0 0
0.0024115830 -0.0023307190 0 0
0.0017607730 -0.0000292383 0 0
0.0010174110 0.0015045470 0 0
0.0002038550 0.0021411820 0 0
-0.0006415050 0.0018301600 0 0
-0.0014695430 0.0006039210 0 0
-0.0022284980 -0.0014228970 0 0
-0.0028718440 -0.0040606890 0 0
-0.0033654690 -0.0070594620 0 0
-0.0036946980 -0.0101300930 0 0
-0.0038690360 -0.0129709680 0 0
-0.0039210440 -0.0152976970 0 0
-0.0038987230 -0.0168719880 0 0
-0.0038553870 -0.0175256440 0 0
-0.0038425770 -0.0171778070 0 0
-0.0039079120 -0.0158451110 0 0
-0.0040943110 -0.0136434010 0 0
-0.0044366850 -0.0107787850 0 0
-0.0049565010 -0.0075269610 0 0
-0.0056576500 -0.0042024520 0 0
-0.0065263240 -0.0011222700 0 0
-0.0075348140 0.0014290110 0 0
-0.0086464600 0.0032260150 0 0
-0.0098183770 0.0041183510 0 0
-0.0110010180 0.0040384180 0 0
-0.0121372600 0.0030061050 0 0
-0.0131646290 0.0011309150 0 0
-0.0140214610 -0.0013928650 0 0
-0.0146546390 -0.0043021380 0 0
-0.0150257690 -0.0072925900 0 0
-0.0151142200 -0.0100537470 0 0
-0.0149172630 -0.0123040670 0 0
-0.0144488540 -0.0138196920 0 0
-0.0137386660 -0.0144547250 0 0
-0.0128314360 -0.0141532640 0 0
-0.0117852510 -0.0129529180 0 0
-0.0106676280 -0.0109800550 0 0
-0.0095496910 -0.0084377240 0 0
-0.0084996630 -0.0055853620 0 0
-0.0075769850 -0.0027103610 0 0
-0.0068276910 -0.0000963090 0 0
-0.0062812400 0.0020062700 0 0
-0.0059491270 0.0034038760 0 0
-0.0058256000 0.0039772130 0 0
-0.0058901190 0.0036906960 0 0
-0.0061104920 0.0025942470 0 0
-0.0064457410 0.0008166120 0 0
-0.0068484680 -0.0014501040 0 0
-0.0072672520 -0.0039714650 0 0
-0.0076502120 -0.0064922710 0 0
-0.0079508170 -0.0087567290 0 0
-0.0081347310 -0.0105292090 0 0
-0.0081843380 -0.0116168890 0 0
-0.0080987160 -0.0118913830 0 0
-0.0078900090 -0.0113042380 0 0
-0.0075783320 -0.0098927600 0 0
-0.0071872830 -0.0077756980 0 0
-0.0067421370 -0.0051406550 0 0
-0.0062710670 -0.0022260190 0 0
-0.0058062700 0.0006998080 0 0
-0.0053818890 0.0033603360 0 0
-0.0050295960 0.0054941980 0 0
-0.0047746070 0.0068799710 0 0
-0.0046331440 0.0073616570 0 0
-0.0046108890 0.0068708430 0 0
-0.0047020950 0.0054389130 0 0
-0.0048892950 0.0031953710 0 0
-0.0051438520 0.0003544450 0 0
-0.0054287020 -0.0028058780 0 0
-0.0057045220 -0.0059708240 0 0
-0.0059379180 -0.0088211850 0 0
-0.0061084050 -0.0110678200 0 0
-0.0062120470 -0.0124832300 0 0
-0.0062613840 -0.0129255650 0 0
-0.0062819010 -0.0123520190 0 0
-0.0063057720 -0.0108208090 0 0
-0.0063646310 -0.0084831190 0 0
-0.0064838960 -0.0055670760 0 0
-0.0066799350 -0.0023557480 0 0
-0.0069587500 0.0008384700 0 0
-0.0073143620 0.0037015570 0 0
-0.0077274180 0.0059473740 0 0
-0.0081664310 0.0073472160 0 0
-0.0085929800 0.0077550430 0 0
-0.0089690780 0.0071240600 0 0
-0.0092624470 0.0055124400 0 0
-0.0094469650 0.0030774940 0 0
-0.0094999770 0.0000585428 0 0
-0.0094003190 -0.0032496320 0 0
-0.0091294340 -0.0065292130 0 0
-0.0086754470 -0.0094734780 0 0
-0.0080383190 -0.0118178710 0 0
-0.0072338180 -0.0133636200 0 0
-0.0062948830 -0.0139918680 0 0
-0.0052703450 -0.0136687810 0 0
-0.0042215400 -0.0124438140 0 0
-0.0032169900 -0.0104436590 0 0
-0.0023253210 -0.0078623090 0 0
-0.0016075690 -0.0049453760 0 0
-0.0011107040 -0.0019676780 0 0
-0.0008636300 0.0007935120 0 0
-0.0008756750 0.0030848010 0 0
-0.0011364360 0.0046992320 0 0
-0.0016157260 0.0054947970 0 0
-0.0022640670 0.0054093650 0 0
-0.0030162180 0.0044702680 0 0
-0.0037992180 0.0027947790 0 0
-0.0045429250 0.0005785440 0 0
-0.0051889970 -0.0019268530 0 0
-0.0056957700 -0.0044422740 0 0
-0.0060393010 -0.0066909840 0 0
-0.0062119300 -0.0084279330 0 0
-0.0062191330 -0.0094655380 0 0
-0.0060759010 -0.0096920350 0 0
-0.0058049790 -0.0090803200 0 0
-0.0054379220 -0.0076873860 0 0
-0.0050162440 -0.0056455610 0 0
-0.0045884990 -0.0031478440 0 0
-0.0042026500 -0.0004294870 0 0
-0.0038975090 0.0022528500 0 0
-0.0036973620 0.0046436090 0 0
-0.0036107480 0.0065119470 0 0
-0.0036317530 0.0076747370 0 0
-0.0037422720 0.0080156500 0 0
-0.0039154190 0.0074971130 0 0
-0.0041208610 0.0061639670 0 0
-0.0043313550 0.0041398340 0 0
-0.0045277610 0.0016168010 0 0
-0.0046993590 -0.0011633030 0 0
-0.0048388890 -0.0039357670 0 0
-0.0049357690 -0.0064415670 0 0
-0.0049723680 -0.0084510530 0 0
-0.0049261570 -0.0097823580 0 0
-0.0047768880 -0.0103168660 0 0
-0.0045148380 -0.0100112790 0 0
-0.0041457470 -0.0089037820 0 0
-0.0036911610 -0.0071128380 0 0
-0.0031860140 -0.0048279510 0 0
-0.0026753830 -0.0022908200 0 0
-0.0022108150 0.0002330640 0 0
-0.0018459760 0.0024866370 0 0
-0.0016309310 0.0042490310 0 0
-0.0016042410 0.0053547430 0 0
-0.0017837440 0.0057051780 0 0
-0.0021593050 0.0052744060 0 0
-0.0026912040 0.0041099720 0 0
-0.0033154890 0.0023284750 0 0
-0.0039543920 0.0001046070 0 0
-0.0045280680 -0.0023463280 0 0
-0.0049649630 -0.0047895840 0 0
-0.0052100260 -0.0069930270 0 0
-0.0052306830 -0.0087488400 0 0
-0.0050196960 -0.0098932790 0 0
-0.0045940490 -0.0103220890 0 0
-0.0039905080 -0.0099999360 0 0
-0.0032594200 -0.0089633640 0 0
-0.0024578740 -0.0073175240 0 0
-0.0016436850 -0.0052271960 0 0
-0.0008716990 -0.0029021510 0 0
-0.0001917460 -0.0005774000 0 0
0.0003536700 0.0015091410 0 0
0.0007325070 0.0031382660 0 0
0.0009263530 0.0041289530 0 0
0.0009327140 0.0043560480 0 0
0.0007654860 0.0037657200 0 0
0.0004521760 0.0023872160 0 0
0.0000271148 0.0003385860 0 0
-0.0004767160 -0.0021779780 0 0
-0.0010328780 -0.0048947030 0 0
-0.0016225350 -0.0075087210 0 0
-0.0022335600 -0.0097184050 0 0
-0.0028588450 -0.0112594940 0 0
-0.0034933320 -0.0119359780 0 0
-0.0041304980 -0.0116411700 0 0
-0.0047604690 -0.0103662380 0 0
-0.0053706980 -0.0081973630 0 0
-0.0059478880 -0.0053052540 0 0
-0.0064796280 -0.0019299010 0 0
-0.0069555470 0.0016391310 0 0
-0.0073685060 0.0050882020 0 0
-0.0077153930 0.0081104620 0 0
-0.0079962230 0.0104382970 0 0
-0.0082113960 0.0118721260 0 0
-0.0083589690 0.0123005570 0 0
-0.0084343040 0.0117091030 0 0
-0.0084326140 0.0101792210 0 0
-0.0083530670 0.0078808700 0 0
-0.0082026320 0.0050578850 0 0
-0.0079976190 0.0020033830 0 0
-0.0077615140 -0.0009727110 0 0
-0.0075205400 -0.0035766050 0 0
-0.0072998210 -0.0055579590 0 0
-0.0071208420 -0.0067304570 0 0
-0.0069992210 -0.0069865670 0 0
-0.0069431080 -0.0063059790 0 0
-0.0069534940 -0.0047564640 0 0
-0.0070263150 -0.0024868510 0 0
-0.0071551860 0.0002868000 0 0
-0.0073343070 0.0033001990 0 0
-0.0075609810 0.0062640530 0 0
-0.0078358200 0.0088906410 0 0
-0.0081595100 0.0109217020 0 0
-0.0085282540 0.0121547750 0 0
-0.0089309980 0.0124646380 0 0
-0.0093495200 0.0118157490 0 0
-0.0097605230 0.0102633370 0 0
-0.0101379260 0.0079448950 0 0
-0.0104539480 0.0050659860 0 0
-0.0106797660 0.0018825510 0 0
-0.0107878570 -0.0013210220 0 0
-0.0107566760 -0.0042588290 0 0
-0.0105759010 -0.0066724690 0 0
-0.0102493710 -0.0083566630 0 0
-0.0097939900 -0.0091774140 0 0
-0.0092357850 -0.0090820610 0 0
-0.0086060750 -0.0081024770 0 0
-0.0079393380 -0.0063518650 0 0
-0.0072719460 -0.0040155470 0 0
-0.0066405660 -0.0013363130 0 0
-0.0060797700 0.0014069170 0 0
-0.0056191180 0.0039271740 0 0
-0.0052804070 0.0059601750 0 0
-0.0050759260 0.0072929340 0 0
-0.0050077690 0.0077863050 0 0
-0.0050672490 0.0073883030 0 0
-0.0052343190 0.0061380220 0 0
-0.0054783950 0.0041618050 0 0
-0.0057611130 0.0016621230 0 0
-0.0060394910 -0.0011013670 0 0
-0.0062686320 -0.0038383130 0 0
-0.0064056970 -0.0062589720 0 0
-0.0064170260 -0.0081055000 0 0
-0.0062865830 -0.0091794920 0 0
-0.0060206690 -0.0093639330 0 0
-0.0056460330 -0.0086367930 0 0
-0.0052036290 -0.0070721970 0 0
-0.0047417420 -0.0048288860 0 0
-0.0043098700 -0.0021311370 0 0
-0.0039531350 0.0007535470 0 0
-0.0037071590 0.0035396480 0 0
-0.0035936690 0.0059515620 0 0
-0.0036170180 0.0077515890 0 0
-0.0037619010 0.0087631350 0 0
-0.0039935200 0.0088846010 0 0
-0.0042622510 0.0080937710 0 0
-0.0045131180 0.0064464220 0 0
-0.0046972740 0.0040718980 0 0
-0.0047813320 0.0011660290 0 0
-0.0047513320 -0.0020198750 0 0
-0.0046109330 -0.0051973660 0 0
-0.0043757550 -0.0080689840 0 0
-0.0040663400 -0.0103622360 0 0
-0.0037021810 -0.0118610480 0 0
-0.0032990010 -0.0124291050 0 0
-0.0028696350 -0.0120237960 0 0
-0.0024269940 -0.0106999740 0 0
-0.0019872360 -0.0086030040 0 0
-0.0015715120 -0.0059529840 0 0
-0.0012045060 -0.0030225570 0 0
-0.0009097670 -0.0001091680 0 0
-0.0007048020 0.0024958490 0 0
-0.0005985480 0.0045364770 0 0
-0.0005909710 0.0058162920 0 0
-0.0006736630 0.0062175270 0 0
-0.0008311370 0.0057136230 0 0
-0.0010427730 0.0043723720 0 0
-0.0012851250 0.0023486960 0 0
-0.0015340330 -0.0001314460 0 0
-0.0017655790 -0.0027951430 0 0
-0.0019553020 -0.0053538290 0 0
-0.0020770290 -0.0075374340 0 0
-0.0021044400 -0.0091230510 0 0
-0.0020170080 -0.0099521750 0 0
-0.0018079540 -0.0099381680 0 0
-0.0014898380 -0.0090695630 0 0
-0.0010946270 -0.0074118710 0 0
-0.0006676570 -0.0051062770 0 0
-0.0002576870 -0.0023621310 0 0
0.0000928609 0.0005593080 0 0
0.0003536340 0.0033704700 0 0
0.0005065370 0.0057895140 0 0
0.0005420670 0.0075725380 0 0
0.0004552890 0.0085396090 0 0
0.0002435550 0.0085913090 0 0
-0.0000940919 0.0077154240 0 0
-0.0005566190 0.0059851020 0 0
-0.0011410070 0.0035506160 0 0
-0.0018429800 0.0006257450 0 0
-0.0026566350 -0.0025317270 0 0
-0.0035714140 -0.0056452820 0 0
-0.0045688860 -0.0084486380 0 0
-0.0056240160 -0.0107139120 0 0
-0.0067126920 -0.0122734970 0 0
-0.0078222580 -0.0130327960 0 0
-0.0089593490 -0.0129754600 0 0
-0.0101509940 -0.0121641940 0 0
-0.0114390530 -0.0107374010 0 0
-0.0128714000 -0.0088989040 0 0
-0.0144938930 -0.0068989090 0 0
-0.0163450060 -0.0050080700 0 0
-0.0184527250 -0.0034886190 0 0
-0.0208329570 -0.0025663230 0 0
-0.0234893890 -0.0024074700 0 0
-0.0264150830 -0.0031047430 0 0
-0.0295958010 -0.0046720070 0 0
-0.0330144840 -0.0070448960 -1 0
-0.0366561390 -0.0100858360 -1 0
-0.0405128620 -0.0135949320 -1 0
-0.0445885870 -0.0173276600 -1 0
-0.0489016250 -0.0210176800 -1 0
-0.0534823770 -0.0244015780 -1 0
-0.0583659630 -0.0272432510 -1 0
-0.0635829580 -0.0293568330 -1 0
-0.0691524680 -0.0306262170 -1 -1
-0.0750791420 -0.0310180930 -1 -1
-0.0813525480 -0.0305868120 -1 -1
-0.0879473110 -0.0294705330 -1 0
-0.0948248770 -0.0278777810 -1 0
-0.1019381600 -0.0260652510 -1 0
-0.1092378400 -0.0243108970 -1 0
-0.1166770200 -0.0228868870 -1 0
-0.1242123090 -0.0220345580 -1 0
-0.1318022100 -0.0219418310 -1 0
-0.1394046980 -0.0227246510 -1 0
-0.1469749140 -0.0244158560 -1 0
-0.1544639340 -0.0269635950 -1 0
-0.1618201420 -0.0302380540 -1 -1
-0.1689939170 -0.0340440270 -1 -1
-0.1759441870 -0.0381380550 -1 -1
-0.1826439970 -0.0422491840 -1 -1
-0.1890829250 -0.0461017610 -1 -1
-0.1952659690 -0.0494392100 -1 -1
-0.2012093440 -0.0520478960 -1 -1
-0.2069346590 -0.0537785230 -1 -1
-0.2124640160 -0.0545619140 -1 -1
-0.2178176820 -0.0544176390 -1 -1
-0.2230137910 -0.0534545990 -1 -1
-0.2280682200 -0.0518622860 -1 -1
-0.2329934610 -0.0498927120 -1 -1
-0.2377972440 -0.0478346820 -1 -1
-0.2424828110 -0.0459823200 -1 -1
-0.2470512410 -0.0446004920 -1 -1
-0.2515032790 -0.0438924180 -1 -1
-0.2558377900 -0.0439762250 -1 -1
-0.2600470420 -0.0448748740 -1 -1
-0.2641116480 -0.0465192560 -1 -1
-0.2679977830 -0.0487613860 -1 -1
-0.2716579590 -0.0513939110 -1 -1
-0.2750355610 -0.0541719610 -1 -1
-0.2780723400 -0.0568341450 -1 -1
-0.2807171230 -0.0591224610 -1 -1
-0.2829340580 -0.0608031860 -1 -1
-0.2847094130 -0.0616892540 -1 -1
-0.2860564610 -0.0616615420 -1 -1
-0.2870174120 -0.0606850950 -1 -1
-0.2876610570 -0.0588161670 -1 -1
-0.2880758790 -0.0561979000 -1 -1
-0.2883594420 -0.0530464750 -1 -1
-0.2886054890 -0.0496314720 -1 -1
-0.2888911050 -0.0462522250 -1 -1
-0.2892667020 -0.0432105770 -1 -1
-0.2897505440 -0.0407824530 -1 -1
-0.2903284960 -0.0391914860 -1 -1
-0.2909590520 -0.0385866670 -1 -1
-0.2915827050 -0.0390261850 -1 -1
-0.2921332980 -0.0404699970 -1 -1
-0.2925485350 -0.0427820510 -1 -1
-0.2927780420 -0.0457424880 -1 -1
-0.2927888080 -0.0490701200 -1 -1
-0.2925680910 -0.0524528430 -1 -1
-0.2921242850 -0.0555803590 -1 -1
-0.2914872480 -0.0581740460 -1 -1
-0.2907088190 -0.0600118380 -1 -1
-0.2898614050 -0.0609480390 -1 -1
-0.2890317550 -0.0609272880 -1 -1
-0.2883105910 -0.0599898200 -1 -1
-0.2877817240 -0.0582650470 -1 -1
-0.2875128360 -0.0559544540 -1 -1
-0.2875475450 -0.0533087110 -1 -1
-0.2878986580 -0.0506033650 -1 -1
-0.2885443410 -0.0481149190 -1 -1
-0.2894293830 -0.0460978050 -1 -1
-0.2904724550 -0.0447621010 -1 -1
-0.2915780650 -0.0442524320 -1 -1
-0.2926501200 -0.0446310100 -1 -1
-0.2936035360 -0.0458693490 -1 -1
-0.2943713340 -0.0478512950 -1 -1
-0.2949064720 -0.0503862960 -1 -1
-0.2951799920 -0.0532295160 -1 -1
-0.2951784560 -0.0561058950 -1 -1
-0.2949030880 -0.0587367890 -1 -1
-0.2943711610 -0.0608675310 -1 -1
-0.2936182040 -0.0622927690 -1 -1
-0.2926986410 -0.0628767380 -1 -1
-0.2916832470 -0.0625669310 -1 -1
-0.2906533850 -0.0614001100 -1 -1
-0.2896929270 -0.0594993230 -1 -1
-0.2888788750 -0.0570607740 -1 -1
-0.2882720510 -0.0543315430 -1 -1
-0.2879097580 -0.0515824690 -1 -1
-0.2878024420 -0.0490816280 -1 -1
-0.2879352500 -0.0470711020 -1 -1
-0.2882733570 -0.0457470140 -1 -1
-0.2887681050 -0.0452430610 -1 -1
-0.2893611020 -0.0456187760 -1 -1
-0.2899859080 -0.0468531500 -1 -1
-0.2905696210 -0.0488441730 -1 -1
-0.2910367900 -0.0514157470 -1 -1
-0.2913162080 -0.0543328450 -1 -1
-0.2913494900 -0.0573238950 -1 -1
-0.2910991710 -0.0601078070 -1 -1
-0.2905539610 -0.0624223620 -1 -1
-0.2897307660 -0.0640502800 -1 -1
-0.2886740670 -0.0648399740 -1 -1
-0.2874522240 -0.0647198450 -1 -1
-0.2861507360 -0.0637056060 -1 -1
-0.2848640140 -0.0618992990 -1 -1
-0.2836876100 -0.0594788430 -1 -1
-0.2827113460 -0.0566790590 -1 -1
-0.2820121550 -0.0537672170 -1 -1
-0.2816457800 -0.0510169160 -1 -1
-0.2816389550 -0.0486834960 -1 -1
-0.2819850510 -0.0469823640 -1 -1
-0.2826448970 -0.0460696990 -1 -1
-0.2835521850 -0.0460259890 -1 -1
-0.2846213350 -0.0468451750 -1 -1
-0.2857562550 -0.0484316350 -1 -1
-0.2868596770 -0.0506063860 -1 -1
-0.2878426150 -0.0531248280 -1 -1
-0.2886323950 -0.0557059610 -1 -1
-0.2891776280 -0.0580667440 -1 -1
-0.2894498660 -0.0599530190 -1 -1
-0.2894431300 -0.0611625690 -1 -1
-0.2891725100 -0.0615604500 -1 -1
-0.2886718310 -0.0610882210 -1 -1
-0.2879895990 -0.0597683510 -1 -1
-0.2871831370 -0.0577037240 -1 -1
-0.2863119100 -0.0550705790 -1 -1
-0.2854317240 -0.0521034240 -1 -1
-0.2845917030 -0.0490729550 -1 -1
-0.2838347380 -0.0462604600 -1 -1
-0.2831993340 -0.0439317080 -1 -1
-0.2827192740 -0.0423114290 -1 -1
-0.2824190950 -0.0415593900 -1 -1
-0.2823063850 -0.0417508280 -1 -1
-0.2823652240 -0.0428650670 -1 -1
-0.2825555990 -0.0447851490 -1 -1
-0.2828197070 -0.0473092770 -1 -1
-0.2830918590 -0.0501724760 -1 -1
-0.2833087880 -0.0530753250 -1 -1
-0.2834189070 -0.0557161970 -1 -1
-0.2833892650 -0.0578228820 -1 -1
-0.2832083500 -0.0591794170 -1 -1
-0.2828837510 -0.0596460770 -1 -1
-0.2824360900 -0.0591723620 -1 -1
-0.2818931050 -0.0578022210 -1 -1
-0.2812872970 -0.0556700800 -1 -1
-0.2806572140 -0.0529866850 -1 -1
-0.2800489560 -0.0500155920 -1 -1
-0.2795131370 -0.0470445750 -1 -1
-0.2790957730 -0.0443582330 -1 -1
-0.2788274050 -0.0422152600 -1 -1
-0.2787166160 -0.0408291430 -1 -1
-0.2787501850 -0.0403504510 -1 -1
-0.2788977920 -0.0408511360 -1 -1
-0.2791186160 -0.0423127120 -1 -1
-0.2793684370 -0.0446208970 -1 -1
-0.2796056800 -0.0475702370 -1 -1
-0.2797944360 -0.0508809770 -1 -1
-0.2799047890 -0.0542267730 -1 -1
-0.2799130960 -0.0572698530 -1 -1
-0.2798032920 -0.0596997440 -1 -1
-0.2795677900 -0.0612700010 -1 -1
-0.2792074960 -0.0618262350 -1 -1
-0.2787322200 -0.0613207650 -1 -1
-0.2781621410 -0.0598136710 -1 -1
-0.2775291310 -0.0574634380 -1 -1
-0.2768762800 -0.0545098310 -1 -1
-0.2762543140 -0.0512495610 -1 -1
-0.2757142470 -0.0480060410 -1 -1
-0.2752975580 -0.0450971850 -1 -1
-0.2750277320 -0.0428054240 -1 -1
-0.2749065010 -0.0413523150 -1 -1
-0.2749146780 -0.0408791060 -1 -1
-0.2750154060 -0.0414344330 -1 -1
-0.2751583500 -0.0429704300 -1 -1
-0.2752848350 -0.0453482990 -1 -1
-0.2753344570 -0.0483528340 -1 -1
-0.2752534780 -0.0517138480 -1 -1
-0.2750041170 -0.0551317530 -1 -1
-0.2745720370 -0.0583044170 -1 -1
-0.2739694570 -0.0609531060 -1 -1
-0.2732336200 -0.0628469290 -1 -1
-0.2724215060 -0.0638252310 -1 -1
-0.2716014150 -0.0638150610 -1 -1
-0.2708430800 -0.0628396160 -1 -1
-0.2702089410 -0.0610156540 -1 -1
-0.2697477500 -0.0585411290 -1 -1
-0.2694902310 -0.0556754680 -1 -1
-0.2694466570 -0.0527140330 -1 -1
-0.2696066240 -0.0499583470 -1 -1
-0.2699415020 -0.0476852630 -1 -1
-0.2704095170 -0.0461192740 -1 -1
-0.2709619610 -0.0454111950 -1 -1
-0.2715485640 -0.0456245490 -1 -1
-0.2721214870 -0.0467298580 -1 -1
-0.2726382600 -0.0486066390 -1 -1
-0.2730634000 -0.0510541820 -1 -1
-0.2733685240 -0.0538129680 -1 -1
-0.2735324590 -0.0565945350 -1 -1
-0.2735434980 -0.0591133410 -1 -1
-0.2734035390 -0.0611152920 -1 -1
-0.2731309930 -0.0624007080 -1 -1
-0.2727596590 -0.0628416660 -1 -1
-0.2723340090 -0.0623940700 -1 -1
-0.2719035390 -0.0611029090 -1 -1
-0.2715180470 -0.0590983080 -1 -1
-0.2712238800 -0.0565814540 -1 -1
-0.2710602640 -0.0538019040 -1 -1
-0.2710548730 -0.0510313160 -1 -1
-0.2712189710 -0.0485389330 -1 -1
-0.2715444720 -0.0465689540 -1 -1
-0.2720054960 -0.0453170250 -1 -1
-0.2725648680 -0.0449081070 -1 -1
-0.2731835120 -0.0453828270 -1 -1
-0.2738292050 -0.0466959250 -1 -1
-0.2744814070 -0.0487241220 -1 -1
-0.2751312140 -0.0512795610 -1 -1
-0.2757781840 -0.0541275270 -1 -1
-0.2764263870 -0.0570085740 -1 -1
-0.2770805160 -0.0596642000 -1 -1
-0.2777421260 -0.0618636240 -1 -1
-0.2784070600 -0.0634284120 -1 -1
-0.2790655190 -0.0642515060 -1 -1
-0.2797047320 -0.0643073850 -1 -1
-0.2803118580 -0.0636509960 -1 -1
-0.2808747110 -0.0624059590 -1 -1
-0.2813813060 -0.0607464170 -1 -1
-0.2818215590 -0.0588783020 -1 -1
-0.2821915990 -0.0570234050 -1 -1
-0.2824972680 -0.0554054190 -1 -1
-0.2827539150 -0.0542344620 -1 -1
-0.2829830300 -0.0536878500 -1 -1
-0.2832080750 -0.0538890620 -1 -1
-0.2834510390 -0.0548898130 -1 -1
-0.2837294190 -0.0566596870 -1 -1
-0.2840527120 -0.0590854500 -1 -1
-0.2844186860 -0.0619802470 -1 -1
-0.2848113760 -0.0651017990 -1 -1
-0.2852027540 -0.0681778180 -1 -1
-0.2855579020 -0.0709357830 -1 -1
-0.2858416620 -0.0731331510 -1 -1
-0.2860250250 -0.0745841810 -1 -1
-0.2860901530 -0.0751803280 -1 -1
-0.2860327170 -0.0749011950 -1 -1
-0.2858605600 -0.0738139410 -1 -1
-0.2855893600 -0.0720625170 -1 -1
-0.2852370260 -0.0698513080 -1 -1
-0.2848182180 -0.0674268090 -1 -1
-0.2843401610 -0.0650574520 -1 -1
-0.2838014710 -0.0630098140 -1 -1
-0.2831952850 -0.0615209260 -1 -1
-0.2825165330 -0.0607705070 -1 -1
-0.2817711690 -0.0608598610 -1 -1
-0.2809830890 -0.0618018700 -1 -1
-0.2801943990 -0.0635218320 -1 -1
-0.2794583060 -0.0658668930 -1 -1
-0.2788278990 -0.0686223630 -1 -1
-0.2783445370 -0.0715337050 -1 -1
-0.2780281570 -0.0743323180 -1 -1
-0.2778712190 -0.0767615750 -1 -1
-0.2778385400 -0.0785995260 -1 -1
-0.2778744060 -0.0796770920 -1 -1
-0.2779152960 -0.0798919090 -1 -1
-0.2779042490 -0.0792174710 -1 -1
-0.2778030580 -0.0777067070 -1 -1
-0.2775994390 -0.0754891930 -1 -1
-0.2773071910 -0.0727617170 -1 -1
-0.2769595230 -0.0697725470 -1 -1
-0.2765985680 -0.0667999280 -1 -1
-0.2762654980 -0.0641258880 -1 -1
-0.2759933830 -0.0620078170 -1 -1
-0.2758020920 -0.0606514110 -1 -1
-0.2756951390 -0.0601883960 -1 -1
-0.2756598730 -0.0606614870 -1 -1
-0.2756708490 -0.0620186150 -1 -1
-0.2756950310 -0.0641181380 -1 -1
-0.2756984000 -0.0667446880 -1 -1
-0.2756530590 -0.0696325170 -1 -1
-0.2755421690 -0.0724923210 -1 -1
-0.2753604820 -0.0750388870 -1 -1
-0.2751110100 -0.0770179580 -1 -1
-0.2748009670 -0.0782300880 -1 -1
-0.2744399290 -0.0785492550 -1 -1
-0.2740406330 -0.0779353550 -1 -1
-0.2736209140 -0.0764398950 -1 -1
-0.2732053460 -0.0742034350 -1 -1
-0.2728251870 -0.0714432460 -1 -1
-0.2725154890 -0.0684307700 -1 -1
-0.2723100500 -0.0654614300 -1 -1
-0.2722361920 -0.0628225680 -1 -1
-0.2723105810 -0.0607648280 -1 -1
-0.2725361750 -0.0594788030 -1 -1
-0.2729007090 -0.0590779630 -1 -1
-0.2733770940 -0.0595905170 -1 -1
-0.2739246890 -0.0609606510 -1 -1
-0.2744904510 -0.0630550990 -1 -1
-0.2750114670 -0.0656723620 -1 -1
-0.2754212560 -0.0685573040 -1 -1
-0.2756597370 -0.0714243090 -1 -1
-0.2756845660 -0.0739876530 -1 -1
-0.2754804070 -0.0759940920 -1 -1
-0.2750618670 -0.0772510050 -1 -1
-0.2744681870 -0.0776442320 -1 -1
-0.2737531190 -0.0771444720 -1 -1
-0.2729752070 -0.0758057010 -1 -1
-0.2721905760 -0.0737583510 -1 -1
-0.2714475500 -0.0711969970 -1 -1
-0.2707819330 -0.0683624970 -1 -1
-0.2702132190 -0.0655204770 -1 -1
-0.2697434340 -0.0629381580 -1 -1
-0.2693596280 -0.0608602950 -1 -1
-0.2690389060 -0.0594850800 -1 -1
-0.2687540960 -0.0589422340 -1 -1
-0.2684786870 -0.0592766640 -1 -1
-0.2681904920 -0.0604417390 -1 -1
-0.2678736340 -0.0623050080 -1 -1
-0.2675184630 -0.0646651710 -1 -1
-0.2671196520 -0.0672754080 -1 -1
-0.2666742950 -0.0698677660 -1 -1
-0.2661820890 -0.0721760110 -1 -1
-0.2656474350 -0.0739586430 -1 -1
-0.2650813270 -0.0750237760 -1 -1
-0.2645014680 -0.0752516010 -1 -1
-0.2639304330 -0.0746077910 -1 -1
-0.2633924320 -0.0731460330 -1 -1
-0.2629097100 -0.0710010230 -1 -1
-0.2624996310 -0.0683735670 -1 -1
-0.2621728930 -0.0655111250 -1 -1
-0.2619328320 -0.0626867250 -1 -1
-0.2617757580 -0.0601751110 -1 -1
-0.2616922670 -0.0582250200 -1 -1
-0.2616692420 -0.0570324390 -1 -1
-0.2616918320 -0.0567211880 -1 -1
-0.2617442720 -0.0573317440 -1 -1
-0.2618087090 -0.0588169620 -1 -1
-0.2618626990 -0.0610458020 -1 -1
-0.2618777760 -0.0638163540 -1 -1
-0.2618215990 -0.0668766020 -1 -1
-0.2616640580 -0.0699496720 -1 -1
-0.2613853120 -0.0727603030 -1 -1
-0.2609823460 -0.0750595310 -1 -1
-0.2604712620 -0.0766451010 -1 -1
-0.2598845000 -0.0773767290 -1 -1
-0.2592644380 -0.0771868800 -1 -1
-0.2586563230 -0.0760874760 -1 -1
-0.2581029980 -0.0741719230 -1 -1
-0.2576413380 -0.0716109790 -1 -1
-0.2572989060 -0.0686397900 -1 -1
-0.2570907310 -0.0655351320 -1 -1
-0.2570175950 -0.0625866610 -1 -1
-0.2570668500 -0.0600676390 -1 -1
-0.2572155530 -0.0582079380 -1 -1
-0.2574347150 -0.0571709090 -1 -1
-0.2576929780 -0.0570367940 -1 -1
-0.2579585710 -0.0577953700 -1 -1
-0.2581997710 -0.0593486210 -1 -1
-0.2583843660 -0.0615214610 -1 -1
-0.2584787390 -0.0640780310 -1 -1
-0.2584486160 -0.0667430720 -1 -1
-0.2582636760 -0.0692284710 -1 -1
-0.2579053510 -0.0712628860 -1 -1
-0.2573742300 -0.0726204340 -1 -1
-0.2566932180 -0.0731442750 -1 -1
-0.2559051540 -0.0727618740 -1 -1
-0.2550663880 -0.0714908380 -1 -1
-0.2542385340 -0.0694364130 -1 -1
-0.2534798600 -0.0667822330 -1 -1
-0.2528370240 -0.0637747190 -1 -1
-0.2523383240 -0.0607006850 -1 -1
-0.2519908210 -0.0578592790 -1 -1
-0.2517830400 -0.0555312800 -1 -1
-0.2516914490 -0.0539492500 -1 -1
-0.2516868520 -0.0532720630 -1 -1
-0.2517389270 -0.0535669240 -1 -1
-0.2518194680 -0.0548007920 -1 -1
-0.2519049160 -0.0568424050 -1 -1
-0.2519781680 -0.0594761240 -1 -1
-0.2520291720 -0.0624270550 -1 -1
-0.2520540560 -0.0653926240 -1 -1
-0.2520538250 -0.0680739180 -1 -1
-0.2520344140 -0.0702034120 -1 -1
-0.2520086920 -0.0715690720 -1 -1
-0.2519986360 -0.0720348670 -1 -1
-0.2520350940 -0.0715558070 -1 -1
-0.2521542980 -0.0701838140 -1 -1
-0.2523921760 -0.0680616950 -1 -1
-0.2527781310 -0.0654061720 -1 -1
-0.2533300750 -0.0624835010 -1 -1
-0.2540520460 -0.0595816400 -1 -1
-0.2549342850 -0.0569827470 -1 -1
-0.2559537170 -0.0549384530 -1 -1
-0.2570721460 -0.0536487820 -1 -1
-0.2582328930 -0.0532446180 -1 -1
-0.2593610870 -0.0537732450 -1 -1
-0.2603717180 -0.0551888350 -1 -1
-0.2611838210 -0.0573528250 -1 -1
-0.2617349730 -0.0600468320 -1 -1
-0.2619904020 -0.0629953270 -1 -1
-0.2619443770 -0.0658944130 -1 -1
-0.2616158110 -0.0684446830 -1 -1
-0.2610417700 -0.0703846800 -1 -1
-0.2602712940 -0.0715190160 -1 -1
-0.2593598860 -0.0717367900 -1 -1
-0.2583646000 -0.0710198400 -1 -1
-0.2573401480 -0.0694413670 -1 -1
-0.2563364880 -0.0671546260 -1 -1
-0.2553976000 -0.0643735690 -1 -1
-0.2545605400 -0.0613502500 -1 -1
-0.2538544520 -0.0583524560 -1 -1
-0.2532998070 -0.0556420650 -1 -1
-0.2529074310 -0.0534540260 -1 -1
-0.2526763110 -0.0519760670 -1 -1
-0.2525908210 -0.0513305370 -1 -1
-0.2526199910 -0.0515616150 -1 -1
-0.2527207360 -0.0526296450 -1 -1
-0.2528443340 -0.0544118140 -1 -1
-0.2529432500 -0.0567102000 -1 -1
-0.2529759290 -0.0592701840 -1 -1
-0.2529098570 -0.0618079670 -1 -1
-0.2527241640 -0.0640417170 -1 -1
-0.2524114840 -0.0657218490 -1 -1
-0.2519778440 -0.0666572080 -1 -1
-0.2514403900 -0.0667338330 -1 -1
-0.2508241290 -0.0659251560 -1 -1
-0.2501590150 -0.0642947060 -1 -1
-0.2494775090 -0.0619897970 -1 -1
-0.2488118650 -0.0592238670 -1 -1
-0.2481911380 -0.0562516880 -1 -1
-0.2476386520 -0.0533452700 -1 -1
-0.2471703970 -0.0507725800 -1 -1
-0.2467948580 -0.0487761760 -1 -1
-0.2465149620 -0.0475503850 -1 -1
-0.2463309500 -0.0472190980 -1 -1
-0.2462412350 -0.0478187250 -1 -1
-0.2462403570 -0.0492906590 -1 -1
-0.2463163810 -0.0514854300 -1 -1
-0.2464502020 -0.0541786990 -1 -1
-0.2466169920 -0.0570967040 -1 -1
-0.2467887320 -0.0599464480 -1 -1
-0.2469370390 -0.0624461810 -1 -1
-0.2470363690 -0.0643533030 -1 -1
-0.2470674900 -0.0654877220 -1 -1
-0.2470203160 -0.0657492110 -1 -1
-0.2468950200 -0.0651273950 -1 -1
-0.2467014470 -0.0637029540 -1 -1
-0.2464578370 -0.0616389080 -1 -1
-0.2461898780 -0.0591622600 -1 -1
-0.2459297710 -0.0565384400 -1 -1
-0.2457131100 -0.0540422960 -1 -1
-0.2455720070 -0.0519291170 -1 -1
-0.2455265770 -0.0504091710 -1 -1
-0.2455792690 -0.0496290380 -1 -1
-0.2457147730 -0.0496609150 -1 -1
-0.2459046930 -0.0504991670 -1 -1
-0.2461143610 -0.0520638680 -1 -1
-0.2463094570 -0.0542108280 -1 -1
-0.2464614390 -0.0567458130 -1 -1
-0.2465517010 -0.0594408790 -1 -1
-0.2465738040 -0.0620524580 -1 -1
-0.2465327020 -0.0643409160 -1 -1
-0.2464411480 -0.0660905720 -1 -1
-0.2463153580 -0.0671293400 -1 -1
-0.2461723760 -0.0673469530 -1 -1
-0.2460295910 -0.0667090740 -1 -1
-0.2459045570 -0.0652637070 -1 -1
-0.2458134510 -0.0631384130 -1 -1
-0.2457684380 -0.0605295500 -1 -1
-0.2457753910 -0.0576848820 -1 -1
-0.2458327710 -0.0548798900 -1 -1
-0.2459317680 -0.0523893580 -1 -1
-0.2460582500 -0.0504577360 -1 -1
-0.2461966000 -0.0492720010 -1 -1
-0.2463334350 -0.0489403930 -1 -1
-0.2464589500 -0.0494805940 -1 -1
-0.2465664660 -0.0508198860 -1 -1
-0.2466522220 -0.0528067850 -1 -1
-0.2467157850 -0.0552308690 -1 -1
-0.2467596660 -0.0578466020 -1 -1
-0.2467872920 -0.0603975560 -1 -1
-0.2468001250 -0.0626389500 -1 -1
-0.2467958880 -0.0643578110 -1 -1
-0.2467699520 -0.0653901300 -1 -1
-0.2467196070 -0.0656336580 -1 -1
-0.2466478610 -0.0650552350 -1 -1
-0.2465636270 -0.0636933580 -1 -1
-0.2464786210 -0.0616574560 -1 -1
-0.2464039920 -0.0591231340 -1 -1
-0.2463490400 -0.0563204900 -1 -1
-0.2463214750 -0.0535141520 -1 -1
-0.2463266810 -0.0509775460 -1 -1
-0.2463642900 -0.0489660080 -1 -1
-0.2464234900 -0.0476915690 -1 -1
-0.2464809140 -0.0473000390 -1 -1
-0.2465036380 -0.0478525680 -1 -1
-0.2464558130 -0.0493156130 -1 -1
-0.2463053150 -0.0515614500 -1 -1
-0.2460282040 -0.0543791740 -1 -1
-0.2456112830 -0.0574959410 -1 -1
-0.2450538070 -0.0606068810 -1 -1
-0.2443683760 -0.0634092160 -1 -1
-0.2435801750 -0.0656348050 -1 -1
-0.2427243060 -0.0670769280 -1 -1
-0.2418421990 -0.0676091730 -1 -1
-0.2409782900 -0.0671951830 -1 -1
-0.2401766740 -0.0658893960 -1 -1
-0.2394770670 -0.0638306050 -1 -1
-0.2389109480 -0.0612295810 -1 -1
-0.2384988730 -0.0583501950 -1 -1
-0.2382480070 -0.0554841270 -1 -1
-0.2381490960 -0.0529219770 -1 -1
-0.2381749650 -0.0509248930 -1 -1
-0.2382830960 -0.0496999500 -1 -1
-0.2384221720 -0.0493810250 -1 -1
-0.2385403540 -0.0500159090 -1 -1
-0.2385932560 -0.0515606480 -1 -1
-0.2385499310 -0.0538826300 -1 -1
-0.2383954430 -0.0567732340 -1 -1
-0.2381298410 -0.0599687530 -1 -1
-0.2377647950 -0.0631764270 -1 -1
-0.2373193700 -0.0661021180 -1 -1
-0.2368159850 -0.0684770260 -1 -1
-0.2362774010 -0.0700816500 -1 -1
-0.2357253600 -0.0707650030 -1 -1
-0.2351809830 -0.0704568270 -1 -1
-0.2346662870 -0.0691725810 -1 -1
-0.2342049850 -0.0670138870 -1 -1
-0.2338205140 -0.0641655120 -1 -1
-0.2335315190 -0.0608846240 -1 -1
-0.2333474240 -0.0574779890 -1 -1
-0.2332662970 -0.0542695760 -1 -1
-0.2332753940 -0.0515653960 -1 -1
-0.2333536560 -0.0496213650 -1 -1
-0.2334751400 -0.0486180800 -1 -1
-0.2336120800 -0.0486445570 -1 -1
-0.2337365200 -0.0496909180 -1 -1
-0.2338208100 -0.0516495620 -1 -1
-0.2338383780 -0.0543249850 -1 -1
-0.2337658400 -0.0574523450 -1 -1
-0.2335863520 -0.0607240290 -1 -1
-0.2332933890 -0.0638214470 -1 -1
-0.2328937430 -0.0664472470 -1 -1
-0.2324089620 -0.0683536810 -1 -1
-0.2318751160 -0.0693651970 -1 -1
-0.2313403550 -0.0693946330 -1 -1
-0.2308594140 -0.0684515520 -1 -1
-0.2304855680 -0.0666407670 -1 -1
-0.2302617240 -0.0641510520 -1 -1
-0.2302124040 -0.0612356670 -1 -1
-0.2303387250 -0.0581858540 -1 -1
-0.2306182420 -0.0552996200 -1 -1
-0.2310092360 -0.0528503620 -1 -1
-0.2314576550 -0.0510588650 -1 -1
-0.2319053790 -0.0500712140 -1 -1
-0.2322984220 -0.0499460620 -1 -1
-0.2325929400 -0.0506528110 -1 -1
-0.2327575250 -0.0520786560 -1 -1
-0.2327720590 -0.0540419170 -1 -1
-0.2326251160 -0.0563111180 -1 -1
-0.2323119510 -0.0586305380 -1 -1
-0.2318341390 -0.0607501500 -1 -1
-0.2312006250 -0.0624532610 -1 -1
-0.2304291450 -0.0635762190 -1 -1
-0.2295473330 -0.0640194660 -1 -1
-0.2285933970 -0.0637517630 -1 -1
-0.2276156930 -0.0628098800 -1 -1
-0.2266700050 -0.0612950120 -1 -1
-0.2258138840 -0.0593647540 -1 -1
-0.2250986000 -0.0572188260 -1 -1
-0.2245608380 -0.0550792330 -1 -1
-0.2242174940 -0.0531680400 -1 -1
-0.2240655110 -0.0516863550 -1 -1
-0.2240856250 -0.0507968310 -1 -1
-0.2242475670 -0.0506103080 -1 -1
-0.2245147690 -0.0511766530 -1 -1
-0.2248474030 -0.0524795570 -1 -1
-0.2252037070 -0.0544350050 -1 -1
-0.2255409790 -0.0568938100 -1 -1
-0.2258181750 -0.0596494750 -1 -1
-0.2260007520 -0.0624534330 -1 -1
-0.2260664380 -0.0650391010 -1 -1
-0.2260096230 -0.0671523900 -1 -1
-0.2258425870 -0.0685822530 -1 -1
-0.2255931060 -0.0691849360 -1 -1
-0.2252994800 -0.0688988590 -1 -1
-0.2250045250 -0.0677503220 -1 -1
-0.2247494230 -0.0658514740 -1 -1
-0.2245679470 -0.0633905740 -1 -1
-0.2244817950 -0.0606131930 -1 -1
-0.2244981050 -0.0577950000 -1 -1
-0.2246099360 -0.0552107100 -1 -1
-0.2247990410 -0.0531054090 -1 -1
-0.2250392700 -0.0516726760 -1 -1
-0.2252999930 -0.0510407070 -1 -1
-0.2255497600 -0.0512645940 -1 -1
-0.2257595050 -0.0523219310 -1 -1
-0.2259043560 -0.0541113460 -1 -1
-0.2259645460 -0.0564568450 -1 -1
-0.2259266080 -0.0591216320 -1 -1
-0.2257854310 -0.0618321480 -1 -1
-0.2255465720 -0.0643082940 -1 -1
-0.2252272440 -0.0662937020 -1 -1
-0.2248549770 -0.0675814450 -1 -1
-0.2244645970 -0.0680332000 -1 -1
-0.2240946160 -0.0675917030 -1 -1
-0.2237832090 -0.0662863670 -1 -1
-0.2235636140 -0.0642310160 -1 -1
-0.2234593740 -0.0616131350 -1 -1
-0.2234801750 -0.0586753600 -1 -1
-0.2236192850 -0.0556910250 -1 -1
-0.2238546540 -0.0529368310 -1 -1
-0.2241547520 -0.0506662240 -1 -1
-0.2244860900 -0.0490859400 -1 -1
-0.2248174020 -0.0483367820 -1 -1
-0.2251188100 -0.0484796970 -1 -1
-0.2253590650 -0.0494890840 -1 -1
-0.2255050670 -0.0512548240 -1 -1
-0.2255252020 -0.0535927830 -1 -1
-0.2253947950 -0.0562627710 -1 -1
-0.2251008860 -0.0589927150 -1 -1
-0.2246449540 -0.0615061740 -1 -1
-0.2240436730 -0.0635493590 -1 -1
-0.2233278560 -0.0649149640 -1 -1
-0.2225397550 -0.0654607700 -1 -1
-0.2217296810 -0.0651214380 -1 -1
-0.2209525620 -0.0639137090 -1 -1
-0.2202635100 -0.0619359000 -1 -1
-0.2197111020 -0.0593612510 -1 -1
-0.2193289890 -0.0564243580 -1 -1
-0.2191288140 -0.0534013620 -1 -1
-0.2190977950 -0.0505855620 -1 -1
-0.2192021170 -0.0482600540 -1 -1
-0.2193944240 -0.0466687460 -1 -1
-0.2196223580 -0.0459884150 -1 -1
-0.2198355150 -0.0463065510 -1 -1
-0.2199900230 -0.0476089790 -1 -1
-0.2200515120 -0.0497780960 -1 -1
-0.2199973040 -0.0526019060 -1 -1
-0.2198175430 -0.0557948330 -1 -1
-0.2195150190 -0.0590290860 -1 -1
-0.2191040960 -0.0619721770 -1 -1
-0.2186090590 -0.0643255620 -1 -1
-0.2180616540 -0.0658584600 -1 -1
-0.2174979910 -0.0664298710 -1 -1
-0.2169554400 -0.0659959320 -1 -1
-0.2164697320 -0.0646069400 -1 -1
-0.2160714300 -0.0623993600 -1 -1
-0.2157814990 -0.0595831830 -1 -1
-0.2156075960 -0.0564233010 -1 -1
-0.2155434590 -0.0532155200 -1 -1
-0.2155722260 -0.0502584860 -1 -1
-0.2156722590 -0.0478244970 -1 -1
-0.2158221460 -0.0461341830 -1 -1
-0.2160022110 -0.0453365330 -1 -1
-0.2161931140 -0.0454924270 -1 -1
-0.2163742930 -0.0465644120 -1 -1
-0.2165238380 -0.0484193440 -1 -1
-0.2166196110 -0.0508457060 -1 -1
-0.2166415890 -0.0535807510 -1 -1
-0.2165760110 -0.0563411740 -1 -1
-0.2164210430 -0.0588522620 -1 -1
-0.2161916900 -0.0608720130 -1 -1
-0.2159203390 -0.0622097890 -1 -1
-0.2156507450 -0.0627413400 -1 -1
-0.2154273270 -0.0624198170 -1 -1
-0.2152850870 -0.0612791590 -1 -1
-0.2152446790 -0.0594287450 -1 -1
-0.2153130330 -0.0570431700 -1 -1
-0.2154865090 -0.0543498810 -1 -1
-0.2157531480 -0.0516118340 -1 -1
-0.2160926750 -0.0491027680 -1 -1
-0.2164756390 -0.0470789110 -1 -1
-0.2168641690 -0.0457521100 -1 -1
-0.2172155050 -0.0452655480 -1 -1
-0.2174872590 -0.0456744950 -1 -1
-0.2176425100 -0.0469385340 -1 -1
-0.2176534500 -0.0489281400 -1 -1
-0.2175034460 -0.0514413980 -1 -1
-0.2171879020 -0.0542259250 -1 -1
-0.2167140230 -0.0570042570 -1 -1
-0.2160996070 -0.0595013080 -1 -1
-0.2153715320 -0.0614715120 -1 -1
-0.2145642430 -0.0627232950 -1 -1
-0.2137176690 -0.0631387150 -1 -1
-0.2128741860 -0.0626855930 -1 -1
-0.2120747900 -0.0614198060 -1 -1
-0.2113549290 -0.0594780020 -1 -1
-0.2107409170 -0.0570632950 -1 -1
-0.2102479360 -0.0544258670 -1 -1
-0.2098799810 -0.0518389450 -1 -1
-0.2096314340 -0.0495713330 -1 -1
-0.2094901320 -0.0478598320 -1 -1
-0.2094414290 -0.0468853300 -1 -1
-0.2094713080 -0.0467546530 -1 -1
-0.2095664100 -0.0474897120 -1 -1
-0.2097115810 -0.0490255850 -1 -1
-0.2098878110 -0.0512172060 -1 -1
-0.2100724320 -0.0538529490 -1 -1
-0.2102411750 -0.0566744850 -1 -1
-0.2103708790 -0.0594022670 -1 -1
-0.2104421730 -0.0617644620 -1 -1
-0.2104419520 -0.0635259790 -1 -1
-0.2103657830 -0.0645131760 -1 -1
-0.2102205190 -0.0646300720 -1 -1
-0.2100261940 -0.0638648440 -1 -1
-0.2098146050 -0.0622882650 -1 -1
-0.2096234090 -0.0600457150 -1 -1
-0.2094886500 -0.0573431670 -1 -1
-0.2094395550 -0.0544280350 -1 -1
-0.2094962180 -0.0515672200 -1 -1
-0.2096685910 -0.0490243640 -1 -1
-0.2099559450 -0.0470363720 -1 -1
-0.2103466350 -0.0457889660 -1 -1
-0.2108179000 -0.0453945010 -1 -1
-0.2113358800 -0.0458780900 -1 -1
-0.2118569220 -0.0471755680 -1 -1
-0.2123314540 -0.0491420460 -1 -1
-0.2127100240 -0.0515679850 -1 -1
-0.2129494910 -0.0542003190 -1 -1
-0.2130175480 -0.0567664730 -1 -1
-0.2128952220 -0.0589993090 -1 -1
-0.2125778320 -0.0606613400 -1 -1
-0.2120750850 -0.0615664080 -1 -1
-0.2114105340 -0.0615964170 -1 -1
-0.2106201230 -0.0607112550 -1 -1
-0.2097500090 -0.0589516620 -1 -1
-0.2088540030 -0.0564353690 -1 -1
-0.2079897870 -0.0533462560 -1 -1
-0.2072128130 -0.0499168270 -1 -1
-0.2065687260 -0.0464063910 -1 -1
-0.2060866970 -0.0430786060 -1 -1
-0.2057755250 -0.0401801270 -1 -1
-0.2056233780 -0.0379194610 -1 -1
-0.2056012390 -0.0364459830 -1 -1
-0.2056692370 -0.0358320670 -1 -1
-0.2057838870 -0.0360631940 -1 -1
-0.2059040670 -0.0370395220 -1 -1
-0.2059944390 -0.0385877410 -1 -1
-0.2060267790 -0.0404793380 -1 -1
-0.2059809170 -0.0424523710 -1 -1
-0.2058464330 -0.0442349330 -1 -1
-0.2056241900 -0.0455702900 -1 -1
-0.2053260840 -0.0462442420 -1 -1
-0.2049729810 -0.0461107870 -1 -1
-0.2045925040 -0.0451092350 -1 -1
-0.2042177620 -0.0432696610 -1 -1
-0.2038856890 -0.0407076430 -1 -1
-0.2036327790 -0.0376100560 -1 -1
-0.2034883470 -0.0342143320 -1 -1
-0.2034680560 -0.0307835500 -1 -1
-0.2035702390 -0.0275789190 -1 0
-0.2037757120 -0.0248325470 -1 0
-0.2040507570 -0.0227248380 -1 0
-0.2043523470 -0.0213688800 -1 0
-0.2046340290 -0.0208021770 -1 0
-0.2048508290 -0.0209861510 -1 0
-0.2049624250 -0.0218133750 -1 0
-0.2049350390 -0.0231209140 -1 0
-0.2047434030 -0.0247072370 -1 0
-0.2043732330 -0.0263511920 -1 0
-0.2038226300 -0.0278324980 -1 0
-0.2031011880 -0.0289522110 -1 0
-0.2022283420 -0.0295507850 -1 0
-0.2012333720 -0.0295227210 -1 0
-0.2001571220 -0.0288276380 -1 0
-0.1990530890 -0.0274960450 -1 0
-0.1979855950 -0.0256279000 -1 0
-0.1970250010 -0.0233839780 -1 0
-0.1962411110 -0.0209707920 -1 0
-0.1956953330 -0.0186203330 -1 0
-0.1954320030 -0.0165675070 -1 0
-0.1954703050 -0.0150274570 -1 0
-0.1957992760 -0.0141733470 -1 0
-0.1963781040 -0.0141159940 -1 0
-0.1971414420 -0.0148892610 -1 0
-0.1980075510 -0.0164454950 -1 0
-0.1988878930 -0.0186612260 -1 0
-0.1996977050 -0.0213490630 -1 0
-0.2003659700 -0.0242726710 -1 0
-0.2008419460 -0.0271659430 -1 0
-0.2010963980 -0.0297579180 -1 0
-0.2011186950 -0.0318010610 -1 -1
-0.2009129390 -0.0330980910 -1 -1
-0.2004959690 -0.0335236020 -1 -1
-0.1998979570 -0.0330376790 -1 -1
-0.1991638160 -0.0316891650 -1 -1
-0.1983528410 -0.0296085990 -1 0
-0.1975347890 -0.0269936210 -1 0
-0.1967816350 -0.0240900210 -1 0
-0.1961564900 -0.0211702990 -1 0
-0.1957037850 -0.0185101690 -1 0
-0.1954442450 -0.0163632630 -1 0
-0.1953748110 -0.0149358570 -1 0
-0.1954718280 -0.0143652490 -1 0
-0.1956956840 -0.0147049600 -1 0
