0.0123223060 0.0102986620 0 0
0.0121074670 0.0109395220 0 0
0.0119475860 0.0113094620 0 0
0.0118291030 0.0114174600 0 0
0.0117366890 0.0112872300 0 0
0.0116600570 0.0109510160 0 0
0.0115968870 0.0104461960 0 0
0.0115507280 0.0098157160 0 0
0.0115260080 0.0091106280 0 0
0.0115235070 0.0083912500 0 0
0.0115385640 0.0077244750 0 0
0.0115621600 0.0071774130 0 0
0.0115830700 0.0068091580 0 0
0.0115888320 0.0066618250 0 0
0.0115655090 0.0067513530 0 0
0.0114982400 0.0070606270 0 0
0.0113736380 0.0075398500 0 0
0.0111833680 0.0081162220 0 0
0.0109275380 0.0087092780 0 0
0.0106161780 0.0092463990 0 0
0.0102679700 0.0096745040 0 0
0.0099073200 0.0099658940 0 0
0.0095612610 0.0101188040 0 0
0.0092563940 0.0101547740 0 0
0.0090154010 0.0101138070 0 0
0.0088532440 0.0100467120 0 0
0.0087749680 0.0100048990 0 0
0.0087776670 0.0100303640 0 0
0.0088564610 0.0101500780 0 0
0.0090102570 0.0103767920 0 0
0.0092424910 0.0107140540 0 0
0.0095563500 0.0111612680 0 0
0.0099484170 0.0117154400 0 0
0.0104052850 0.0123686160 0 0
0.0109052710 0.0131029720 0 0
0.0114241490 0.0138869110 0 0
0.0119412340 0.0146740530 0 0
0.0124421610 0.0154049610 0 0
0.0129182730 0.0160112020 0 0
0.0133651720 0.0164215100 0 0
0.0137818130 0.0165698260 0 0
0.0141690750 0.0164048560 0 0
0.0145269630 0.0158995420 0 0
0.0148517520 0.0150581610 0 0
0.0151345670 0.0139201770 0 0
0.0153614070 0.0125603360 0 0
0.0155143460 0.0110835600 0 0
0.0155744750 0.0096143340 0 0
0.0155260540 0.0082826880 0 0
0.0153596570 0.0072094310 0 0
0.0150729910 0.0064925020 0 0
0.0146699320 0.0061956390 0 0
0.0141587670 0.0063404000 0 0
0.0135507300 0.0069030910 0 0
0.0128598730 0.0078183510 0 0
0.0121043530 0.0089893920 0 0
0.0113080380 0.0103018120 0 0
0.0105011420 0.0116365980 0 0
0.0097193870 0.0128804490 0 0
0.0090017700 0.0139350010 0 0
0.0083870240 0.0147259010 0 0
0.0079089720 0.0152087990 0 0
0.0075916390 0.0153694920 0 0
0.0074455410 0.0152198630 0 0
0.0074665310 0.0147927540 0 0
0.0076381550 0.0141363650 0 0
0.0079373830 0.0133075980 0 0
0.0083410620 0.0123659570 0 0
0.0088286780 0.0113707370 0 0
0.0093796050 0.0103813120 0 0
0.0099675540 0.0094568600 0 0
0.0105562530 0.0086532410 0 0
0.0110989810 0.0080184640 0 0
0.0115433790 0.0075891070 0 0
0.0118414990 0.0073881550 0 0
0.0119614000 0.0074233460 0 0
0.0118940480 0.0076853180 0 0
0.0116524300 0.0081455170 0 0
0.0112652480 0.0087546790 0 0
0.0107691620 0.0094441200 0 0
0.0102020590 0.0101325000 0 0
0.0095986140 0.0107384610 0 0
0.0089885280 0.0111951560 0 0
0.0083969160 0.0114603310 0 0
0.0078462340 0.0115190160 0 0
0.0073589830 0.0113818110 0 0
0.0069593030 0.0110823880 0 0
0.0066715750 0.0106744890 0 0
0.0065164630 0.0102269300 0 0
0.0065071400 0.0098157800 0 0
0.0066480540 0.0095135910 0 0
0.0069357840 0.0093766750 0 0
0.0073596860 0.0094328950 0 0
0.0079008990 0.0096734540 0 0
0.0085306750 0.0100526120 0 0
0.0092102010 0.0104976080 0 0
0.0098929900 0.0109251070 0 0
0.0105292750 0.0112563270 0 0
0.0110711240 0.0114256680 0 0
0.0114772440 0.0113833070 0 0
0.0117172540 0.0110958370 0 0
0.0117751630 0.0105484590 0 0
0.0116508340 0.0097478690 0 0
0.0113580330 0.0087233150 0 0
0.0109189290 0.0075265750 0 0
0.0103564290 0.0062320340 0 0
0.0096870340 0.0049340160 0 0
0.0089170810 0.0037381810 0 0
0.0080434400 0.0027492090 0 0
0.0070574560 0.0020599700 0 0
0.0059492140 0.0017442620 0 0
0.0047095730 0.0018514970 0 0
0.0033303540 0.0024018000 0 0
0.0018051330 0.0033817840 0 0
0.0001315950 0.0047426080 0 0
-0.0016859640 0.0064023630 0 0
-0.0036355640 0.0082534630 0 0
-0.0056980510 0.0101737770 0 0
-0.0078480320 0.0120398480 0 0
-0.0100543640 0.0137403680 0 0
-0.0122802750 0.0151870690 0 0
-0.0144835550 0.0163201050 0 0
-0.0166172100 0.0171079290 0 0
-0.0186313720 0.0175453760 0 0
-0.0204775370 0.0176532200 0 0
-0.0221150070 0.0174784310 0 0
-0.0235172770 0.0170917500 0 0
-0.0246753370 0.0165801400 0 0
-0.0255969700 0.0160348580 0 0
-0.0263040690 0.0155387880 0 0
-0.0268302310 0.0151563950 0 0
-0.0272186760 0.0149280150 0 0
-0.0275188740 0.0148691700 0 0
-0.0277804540 0.0149740990 0 0
-0.0280447690 0.0152208970 0 0
-0.0283373300 0.0155756350 0 0
-0.0286651000 0.0159947580 0 0
-0.0290190890 0.0164270610 0 0
-0.0293789860 0.0168164880 0 0
-0.0297173870 0.0171054780 0 0
-0.0300041580 0.0172393350 -1 0
-0.0302118090 0.0171737700 -1 0
-0.0303207470 0.0168851170 -1 0
-0.0303224520 0.0163785750 -1 0
-0.0302201120 0.0156915040 -1 0
-0.0300277110 0.0148929500 -1 0
-0.0297682560 0.0140798760 0 0
-0.0294702070 0.0133678020 0 0
-0.0291613540 0.0128749310 0 0
-0.0288625510 0.0127026340 0 0
-0.0285852810 0.0129166990 0 0
-0.0283340990 0.0135329410 0 0
-0.0281115150 0.0145108280 0 0
-0.0279222710 0.0157589430 0 0
-0.0277749940 0.0171518280 0 0
-0.0276805040 0.0185516050 0 0
-0.0276478420 0.0198267880 0 0
-0.0276809090 0.0208652110 0 0
-0.0277781030 0.0215816910 0 0
-0.0279340970 0.0219215030 0 0
-0.0281409600 0.0218614370 0 0
-0.0283874390 0.0214109790 0 0
-0.0286577080 0.0206136530 0 0
-0.0289317240 0.0195452420 0 0
-0.0291881490 0.0183067910 0 0
-0.0294084050 0.0170137340 0 0
-0.0295794320 0.0157839280 0 0
-0.0296941210 0.0147271260 0 0
-0.0297502760 0.0139375220 0 0
-0.0297496550 0.0134886280 0 0
-0.0296981070 0.0134284990 0 0
-0.0296062490 0.0137750360 0 0
-0.0294888730 0.0145120700 0 0
-0.0293624340 0.0155869340 0 0
-0.0292425160 0.0169115650 0 0
-0.0291432450 0.0183691900 0 0
-0.0290780550 0.0198263220 0 0
-0.0290599380 0.0211484430 0 0
-0.0291003790 0.0222165910 0 0
-0.0292071300 0.0229402260 0 0
-0.0293815510 0.0232638490 0 0
-0.0296172950 0.0231700000 0 0
-0.0299015530 0.0226819690 0 0
-0.0302181120 0.0218646920 -1 0
-0.0305505210 0.0208190820 -1 0
-0.0308840290 0.0196679190 -1 0
-0.0312062310 0.0185372890 -1 0
-0.0315074780 0.0175400360 -1 0
-0.0317819400 0.0167652080 -1 0
-0.0320289730 0.0162734350 -1 0
-0.0322537340 0.0160965370 -1 0
-0.0324663490 0.0162403820 -1 0
-0.0326796740 0.0166905070 -1 0
-0.0329063470 0.0174185010 -1 0
-0.0331558670 0.0183857820 -1 0
-0.0334322690 0.0195429870 -1 0
-0.0337329810 0.0208263620 -1 0
-0.0340495940 0.0221542350 -1 0
-0.0343707170 0.0234264940 -1 0
-0.0346862320 0.0245299210 -1 0
-0.0349916480 0.0253514640 -1 0
-0.0352910160 0.0257976070 -1 0
-0.0355972160 0.0258129400 -1 0
-0.0359292840 0.0253909180 -1 0
-0.0363070400 0.0245755130 -1 0
-0.0367441870 0.0234569330 -1 0
-0.0372421470 0.0221629670 -1 0
-0.0377870600 0.0208448280 -1 0
-0.0383513630 0.0196586490 -1 0
-0.0389001970 0.0187468910 -1 0
-0.0394009410 0.0182233550 -1 0
-0.0398318260 0.0181626980 -1 0
-0.0401857030 0.0185934650 -1 0
-0.0404682690 0.0194938360 -1 0
-0.0406933810 0.0207909700 -1 0
-0.0408786060 0.0223654160 -1 0
-0.0410417530 0.0240619610 -1 0
-0.0411970940 0.0257075540 -1 0
-0.0413512810 0.0271340880 -1 0
-0.0415010610 0.0282010450 -1 0
-0.0416343870 0.0288134300 -1 0
-0.0417341900 0.0289324400 -1 0
-0.0417828900 0.0285776520 -1 0
-0.0417660560 0.0278208700 -1 0
-0.0416747840 0.0267732670 -1 0
-0.0415067990 0.0255686810 -1 0
-0.0412662550 0.0243458380 -1 0
-0.0409629530 0.0232315990 -1 0
-0.0406121360 0.0223278490 -1 0
-0.0402348690 0.0217044190 -1 0
-0.0398570420 0.0213978990 -1 0
-0.0395052920 0.0214142600 -1 0
-0.0392012420 0.0217330840 -1 0
-0.0389572980 0.0223119190 -1 0
-0.0387753560 0.0230908020 -1 0
-0.0386478550 0.0239982070 -1 0
-0.0385606170 0.0249576150 -1 0
-0.0384968770 0.0258914170 -1 0
-0.0384413410 0.0267214370 -1 0
-0.0383832730 0.0273702060 -1 0
-0.0383179960 0.0277675090 -1 0
-0.0382462890 0.0278625420 -1 0
-0.0381721200 0.0276376520 -1 0
-0.0381005120 0.0271176360 -1 0
-0.0380368520 0.0263696470 -1 0
-0.0379866310 0.0254929450 -1 0
-0.0379539070 0.0246022430 -1 0
-0.0379387990 0.0238095240 -1 0
-0.0379359460 0.0232077530 -1 0
-0.0379352000 0.0228580320 -1 0
-0.0379242890 0.0227813010 -1 0
-0.0378921330 0.0229567060 -1 0
-0.0378313590 0.0233285910 -1 0
-0.0377394600 0.0238212220 -1 0
-0.0376189300 0.0243565800 -1 0
-0.0374766450 0.0248687810 -1 0
-0.0373224130 0.0253105710 -1 0
-0.0371668760 0.0256518380 -1 0
-0.0370193880 0.0258734590 -1 0
-0.0368864440 0.0259604070 -1 0
-0.0367706320 0.0258972440 -1 0
-0.0366695860 0.0256681050 -1 0
-0.0365753300 0.0252612740 -1 0
-0.0364753030 0.0246761110 -1 0
-0.0363555520 0.0239292980 -1 0
-0.0362053240 0.0230581890 -1 0
-0.0360218570 0.0221201240 -1 0
-0.0358135470 0.0211876380 -1 0
-0.0355996480 0.0203410130 -1 0
-0.0354060150 0.0196603770 -1 0
-0.0352581590 0.0192185120 -1 0
-0.0351740380 0.0190741740 -1 0
-0.0351592720 0.0192655460 -1 0
-0.0352063690 0.0198041970 -1 0
-0.0352974150 0.0206710540 -1 0
-0.0354085590 0.0218162000 -1 0
-0.0355154590 0.0231622880 -1 0
-0.0355996090 0.0246097970 -1 0
-0.0356538410 0.0260440250 -1 0
-0.0356839400 0.0273451020 -1 0
-0.0357052400 0.0284005120 -1 0
-0.0357365120 0.0291176190 -1 0
-0.0357944140 0.0294335650 -1 0
-0.0358901370 0.0293209710 -1 0
-0.0360286750 0.0287901900 -1 0
-0.0362109850 0.0278897900 -1 0
-0.0364382660 0.0267045660 -1 0
-0.0367159570 0.0253484160 -1 0
-0.0370551700 0.0239519570 -1 0
-0.0374711470 0.0226478420 -1 0
-0.0379792670 0.0215566020 -1 0
-0.0385890790 0.0207746990 -1 0
-0.0392982640 0.0203654120 -1 0
-0.0400896790 0.0203520600 -1 0
-0.0409330920 0.0207136580 -1 0
-0.0417900750 0.0213847780 -1 0
-0.0426194100 0.0222618150 -1 0
-0.0433817880 0.0232167350 -1 0
-0.0440440300 0.0241170890 -1 0
-0.0445830840 0.0248481930 -1 0
-0.0449895490 0.0253310340 -1 0
-0.0452700750 0.0255297970 -1 0
-0.0454473800 0.0254480240 -1 0
-0.0455564650 0.0251192560 -1 0
-0.0456371670 0.0245993520 -1 0
-0.0457253830 0.0239622790 -1 0
-0.0458460090 0.0232957690 -1 0
-0.0460099820 0.0226935070 -1 0
-0.0462163280 0.0222445190 -1 0
-0.0464575530 0.0220223840 -1 0
-0.0467247320 0.0220767030 -1 0
-0.0470098990 0.0224291790 -1 0
-0.0473066620 0.0230747000 -1 0
-0.0476106850 0.0239836830 -1 0
-0.0479196400 0.0251031260 -1 0
-0.0482320730 0.0263599120 -1 0
-0.0485468270 0.0276696680 -1 0
-0.0488643020 0.0289471170 -1 0
-0.0491876890 0.0301126030 -1 1
-0.0495214660 0.0310949190 -1 1
-0.0498676950 0.0318328890 -1 1
-0.0502232920 0.0322772550 -1 1
-0.0505799210 0.0323939610 -1 1
-0.0509252490 0.0321687500 -1 1
-0.0512441630 0.0316120490 -1 1
-0.0515203230 0.0307631840 -1 1
-0.0517386520 0.0296914680 -1 0
-0.0518883310 0.0284906240 -1 0
-0.0519648960 0.0272668390 -1 0
-0.0519696720 0.0261252960 -1 0
-0.0519061780 0.0251588560 -1 0
-0.0517762370 0.0244391840 -1 0
-0.0515793000 0.0240097020 -1 0
-0.0513151880 0.0238803000 -1 0
-0.0509873730 0.0240250770 -1 0
-0.0506043790 0.0243855430 -1 0
-0.0501796110 0.0248795840 -1 0
-0.0497316640 0.0254128830 -1 0
-0.0492856820 0.0258901000 -1 0
-0.0488733510 0.0262265870 -1 0
-0.0485290810 0.0263613050 -1 0
-0.0482830490 0.0262675260 -1 0
-0.0481538960 0.0259561870 -1 0
-0.0481435530 0.0254706250 -1 0
-0.0482357410 0.0248756130 -1 0
-0.0483983450 0.0242441580 -1 0
-0.0485886710 0.0236452800 -1 0
-0.0487603220 0.0231363710 -1 0
-0.0488709520 0.0227615970 -1 0
-0.0488898880 0.0225533890 -1 0
-0.0488034840 0.0225325900 -1 0
-0.0486162220 0.0227063230 -1 0
-0.0483474820 0.0230664850 -1 0
-0.0480255540 0.0235906860 -1 0
-0.0476811150 0.0242438970 -1 0
-0.0473421800 0.0249786610 -1 0
-0.0470314080 0.0257347750 -1 0
-0.0467655230 0.0264412490 -1 0
-0.0465563920 0.0270219200 -1 0
-0.0464126160 0.0274044440 -1 0
-0.0463397120 0.0275317050 -1 0
-0.0463382420 0.0273732550 -1 0
-0.0464014060 0.0269328760 -1 0
-0.0465138370 0.0262490470 -1 0
-0.0466522310 0.0253882350 -1 0
-0.0467875430 0.0244333790 -1 0
-0.0468880250 0.0234703750 -1 0
-0.0469229320 0.0225765010 -1 0
-0.0468672100 0.0218146900 -1 0
-0.0467065160 0.0212334050 -1 0
-0.0464411710 0.0208678470 -1 0
-0.0460873600 0.0207394500 -1 0
-0.0456744390 0.0208538770 -1 0
-0.0452390770 0.0211993080 -1 0
-0.0448188170 0.0217463090 -1 0
-0.0444478100 0.0224490840 -1 0
-0.0441559130 0.0232477190 -1 0
-0.0439694320 0.0240720450 -1 0
-0.0439102710 0.0248468970 -1 0
-0.0439924950 0.0254974460 -1 0
-0.0442185620 0.0259548450 -1 0
-0.0445777600 0.0261635820 -1 0
-0.0450470180 0.0260901450 -1 0
-0.0455928270 0.0257300380 -1 0
-0.0461739450 0.0251104510 -1 0
-0.0467456020 0.0242890010 -1 0
-0.0472651740 0.0233502560 -1 0
-0.0476977300 0.0223995290 -1 0
-0.0480198170 0.0215518410 -1 0
-0.0482213940 0.0209159380 -1 0
-0.0483065510 0.0205776430 -1 0
-0.0482926040 0.0205882590 -1 0
-0.0482061040 0.0209601130 -1 0
-0.0480759020 0.0216676950 -1 0
-0.0479263200 0.0226525050 -1 0
-0.0477739930 0.0238307770 -1 0
-0.0476291300 0.0251033980 -1 0
-0.0474990130 0.0263666340 -1 0
-0.0473910310 0.0275212110 -1 0
-0.0473139330 0.0284778370 -1 0
-0.0472771950 0.0291601560 -1 0
-0.0472892220 0.0295080390 -1 0
-0.0473554910 0.0294827490 -1 0
-0.0474771520 0.0290736060 -1 0
-0.0476501250 0.0283042380 -1 0
-0.0478652390 0.0272352090 -1 0
-0.0481098950 0.0259606910 -1 0
-0.0483707400 0.0245994210 -1 0
-0.0486365270 0.0232814670 -1 0
-0.0489005190 0.0221326070 -1 0
-0.0491610910 0.0212588270 -1 0
-0.0494190710 0.0207337670 -1 0
-0.0496729290 0.0205910370 -1 0
-0.0499152280 0.0208216850 -1 0
-0.0501325470 0.0213765800 -1 0
-0.0503085470 0.0221733240 -1 0
-0.0504287250 0.0231063700 -1 0
-0.0504851720 0.0240590160 -1 0
-0.0504796220 0.0249165530 -1 0
-0.0504237920 0.0255790640 -1 0
-0.0503373270 0.0259718450 -1 0
-0.0502444900 0.0260526940 -1 0
-0.0501702520 0.0258159950 -1 0
-0.0501353170 0.0252927760 -1 0
-0.0501500460 0.0245467180 -1 0
-0.0502098520 0.0236679140 -1 0
-0.0502958110 0.0227653240 -1 0
-0.0503807840 0.0219564530 -1 0
-0.0504374080 0.0213538300 -1 0
-0.0504445260 0.0210512960 -1 0
-0.0503912100 0.0211141540 -1 0
-0.0502783310 0.0215743470 -1 0
-0.0501174920 0.0224282250 -1 0
-0.0499273380 0.0236346720 -1 0
-0.0497276340 0.0251143580 -1 0
-0.0495329530 0.0267522890 -1 0
-0.0493497100 0.0284054540 -1 0
-0.0491781250 0.0299168100 -1 0
-0.0490161070 0.0311343910 -1 1
-0.0488616570 0.0319313700 -1 1
-0.0487134110 0.0322225440 -1 1
-0.0485706960 0.0319744590 -1 1
-0.0484342360 0.0312081780 -1 1
-0.0483072320 0.0299956840 -1 0
-0.0481949860 0.0284522930 -1 0
-0.0481016810 0.0267260040 -1 0
-0.0480257400 0.0249819270 -1 0
-0.0479570790 0.0233817040 -1 0
-0.0478784880 0.0220633540 -1 0
-0.0477709060 0.0211280160 -1 0
-0.0476201790 0.0206345440 -1 0
-0.0474218600 0.0205988880 -1 0
-0.0471822100 0.0209962820 -1 0
-0.0469163980 0.0217657060 -1 0
-0.0466453770 0.0228157450 -1 0
-0.0463914540 0.0240320130 -1 0
-0.0461729750 0.0252877600 -1 0
-0.0460004380 0.0264578440 -1 0
-0.0458764310 0.0274331510 -1 0
-0.0457995090 0.0281314820 -1 0
-0.0457689840 0.0285031200 -1 0
-0.0457869270 0.0285322720 -1 0
-0.0458563590 0.0282363040 -1 0
-0.0459777880 0.0276634940 -1 0
-0.0461466380 0.0268893980 -1 0
-0.0463525150 0.0260118050 -1 0
-0.0465802810 0.0251433410 -1 0
-0.0468123980 0.0244004340 -1 0
-0.0470308050 0.0238890190 -1 0
-0.0472168730 0.0236898110 -1 0
-0.0473506150 0.0238467150 -1 0
-0.0474118390 0.0243610200 -1 0
-0.0473842380 0.0251920300 -1 0
-0.0472604820 0.0262631120 -1 0
-0.0470453700 0.0274722750 -1 0
-0.0467553050 0.0287061270 -1 0
-0.0464143990 0.0298541340 -1 0
-0.0460491290 0.0308196280 -1 1
-0.0456837700 0.0315258610 -1 1
-0.0453374350 0.0319174390 -1 1
-0.0450218630 0.0319591380 -1 1
-0.0447393580 0.0316350740 -1 1
-0.0444825950 0.0309501520 -1 1
-0.0442387500 0.0299331890 -1 0
-0.0439970240 0.0286393650 -1 0
-0.0437554200 0.0271501370 -1 0
-0.0435236910 0.0255694270 -1 0
-0.0433218670 0.0240144270 -1 0
-0.0431756230 0.0226010890 -1 0
-0.0431108070 0.0214285920 -1 0
-0.0431491020 0.0205679520 -1 0
-0.0433052650 0.0200566240 -1 0
-0.0435854570 0.0198986330 -1 0
-0.0439862060 0.0200693200 -1 0
-0.0444941270 0.0205227540 -1 0
-0.0450866270 0.0211989720 -1 0
-0.0457336610 0.0220292690 -1 0
-0.0464007650 0.0229400930 -1 0
-0.0470531240 0.0238575420 -1 0
-0.0476595110 0.0247131200 -1 0
-0.0481950270 0.0254490330 -1 0
-0.0486424690 0.0260207410 -1 0
-0.0489928090 0.0263971080 -1 0
-0.0492453360 0.0265613010 -1 0
-0.0494072160 0.0265134940 -1 0
-0.0494917930 0.0262722180 -1 0
-0.0495153470 0.0258724480 -1 0
-0.0494927460 0.0253623040 -1 0
-0.0494334550 0.0247997370 -1 0
-0.0493402410 0.0242483750 -1 0
-0.0492112590 0.0237725320 -1 0
-0.0490437060 0.0234317350 -1 0
-0.0488367410 0.0232744330 -1 0
-0.0485930740 0.0233316790 -1 0
-0.0483204460 0.0236129950 -1 0
-0.0480337620 0.0241057630 -1 0
-0.0477562530 0.0247778280 -1 0
-0.0475176220 0.0255814140 -1 0
-0.0473491510 0.0264564340 -1 0
-0.0472771940 0.0273335410 -1 0
-0.0473163200 0.0281387620 -1 0
-0.0474635830 0.0288002230 -1 0
-0.0476961730 0.0292556290 -1 0
-0.0479741680 0.0294582680 -1 0
-0.0482475770 0.0293803090 -1 0
-0.0484649600 0.0290144560 -1 0
-0.0485814840 0.0283753300 -1 0
-0.0485654070 0.0275003410 -1 0
-0.0484021710 0.0264489420 -1 0
-0.0480950310 0.0252990440 -1 0
-0.0476620180 0.0241395930 -1 0
-0.0471308450 0.0230600400 -1 0
-0.0465346440 0.0221396840 -1 0
-0.0459099090 0.0214398950 -1 0
-0.0452950060 0.0209998150 -1 0
-0.0447270990 0.0208347840 -1 0
-0.0442378900 0.0209366740 -1 0
-0.0438500770 0.0212744630 -1 0
-0.0435755450 0.0217935710 -1 0
-0.0434151300 0.0224161030 -1 0
-0.0433596510 0.0230464580 -1 0
-0.0433913560 0.0235837420 -1 0
-0.0434847310 0.0239379390 -1 0
-0.0436071430 0.0240448520 -1 0
-0.0437213010 0.0238753230 -1 0
-0.0437905790 0.0234373460 -1 0
-0.0437853380 0.0227730700 -1 0
-0.0436872940 0.0219533440 -1 0
-0.0434907740 0.0210711860 -1 0
-0.0432018790 0.0202345450 -1 0
-0.0428368940 0.0195574860 -1 0
-0.0424200540 0.0191483700 -1 0
-0.0419799440 0.0190949750 -1 0
-0.0415448420 0.0194487760 -1 0
-0.0411390010 0.0202123240 -1 0
-0.0407818960 0.0213340500 -1 0
-0.0404897500 0.0227128590 -1 0
-0.0402761240 0.0242113210 -1 0
-0.0401499580 0.0256738440 -1 0
-0.0401131860 0.0269462730 -1 0
-0.0401600370 0.0278950140 -1 0
-0.0402773830 0.0284244720 -1 0
-0.0404450700 0.0284903980 -1 0
-0.0406369740 0.0281062160 -1 0
-0.0408238570 0.0273405720 -1 0
-0.0409776920 0.0263057210 -1 0
-0.0410758370 0.0251385880 -1 0
-0.0411034060 0.0239792480 -1 0
-0.0410538560 0.0229523540 -1 0
-0.0409297220 0.0221550860 -1 0
-0.0407440440 0.0216527930 -1 0
-0.0405201060 0.0214806280 -1 0
-0.0402873390 0.0216471320 -1 0
-0.0400745750 0.0221370820 -1 0
-0.0399039840 0.0229137610 -1 0
-0.0397877600 0.0239209370 -1 0
-0.0397273440 0.0250847460 -1 0
-0.0397144620 0.0263166420 -1 0
-0.0397339670 0.0275186970 -1 0
-0.0397679080 0.0285914410 -1 0
-0.0397992760 0.0294430100 -1 0
-0.0398144360 0.0299984310 -1 0
-0.0398044430 0.0302088060 -1 1
-0.0397655220 0.0300590060 -1 1
-0.0396985290 0.0295713000 -1 0
-0.0396073190 0.0288037930 -1 0
-0.0394963010 0.0278440450 -1 0
-0.0393677560 0.0267986880 -1 0
-0.0392197300 0.0257809980 -1 0
-0.0390462040 0.0248990080 -1 0
-0.0388413250 0.0242449040 -1 0
-0.0386065290 0.0238847150 -1 0
-0.0383559280 0.0238493080 -1 0
-0.0381163920 0.0241309660 -1 0
-0.0379229620 0.0246889210 -1 0
-0.0378123870 0.0254615250 -1 0
-0.0378165790 0.0263781420 -1 0
-0.0379565590 0.0273657520 -1 0
-0.0382376680 0.0283514620 -1 0
-0.0386475850 0.0292648580 -1 0
-0.0391581670 0.0300420560 -1 1
-0.0397309080 0.0306309320 -1 1
-0.0403250040 0.0309959080 -1 1
-0.0409058480 0.0311204740 -1 1
-0.0414507850 0.0310073260 -1 1
-0.0419501440 0.0306779040 -1 1
-0.0424039760 0.0301726810 -1 1
-0.0428163760 0.0295512340 -1 0
-0.0431889760 0.0288899460 -1 0
-0.0435147620 0.0282758910 -1 0
-0.0437746340 0.0277966000 -1 0
-0.0439399910 0.0275265950 -1 0
-0.0439814930 0.0275135230 -1 0
-0.0438791880 0.0277683800 -1 0
-0.0436285720 0.0282623400 -1 0
-0.0432408440 0.0289286700 -1 0
-0.0427390530 0.0296682550 -1 0
-0.0421529080 0.0303606530 -1 1
-0.0415140290 0.0308820460 -1 1
-0.0408522540 0.0311266560 -1 1
-0.0401933420 0.0310252390 -1 1
-0.0395581020 0.0305557210 -1 1
-0.0389622050 0.0297444740 -1 0
-0.0384158550 0.0286601420 -1 0
-0.0379232230 0.0274029120 -1 0
-0.0374825540 0.0260912160 -1 0
-0.0370882580 0.0248485990 -1 0
-0.0367346510 0.0237938420 -1 0
-0.0364192950 0.0230339890 -1 0
-0.0361448710 0.0226568560 -1 0
-0.0359197440 0.0227210350 -1 0
-0.0357567690 0.0232456210 -1 0
-0.0356699680 0.0242044470 -1 0
-0.0356702390 0.0255276290 -1 0
-0.0357617500 0.0271096780 -1 0
-0.0359399070 0.0288224500 -1 0
-0.0361909960 0.0305308140 -1 1
-0.0364933390 0.0321079740 -1 1
-0.0368191250 0.0334482430 -1 1
-0.0371358580 0.0344755840 -1 1
-0.0374076390 0.0351456730 -1 1
-0.0375975870 0.0354420210 -1 1
-0.0376720950 0.0353713900 -1 1
-0.0376063940 0.0349621280 -1 1
-0.0373898630 0.0342635730 -1 1
-0.0370286170 0.0333443580 -1 1
-0.0365442690 0.0322900950 -1 1
-0.0359700140 0.0311994720 -1 1
-0.0353452120 0.0301763520 -1 1
-0.0347095910 0.0293184530 -1 0
-0.0340990270 0.0287054430 -1 0
-0.0335433290 0.0283879200 -1 0
-0.0330644940 0.0283793960 -1 0
-0.0326752340 0.0286555670 -1 0
-0.0323790810 0.0291617590 -1 0
-0.0321720910 0.0298235660 -1 0
-0.0320452350 0.0305554940 -1 1
-0.0319871350 0.0312671390 -1 1
-0.0319863400 0.0318702250 -1 1
-0.0320319100 0.0322885400 -1 1
-0.0321118430 0.0324679480 -1 1
-0.0322100950 0.0323816980 -1 1
-0.0323039220 0.0320293880 -1 1
-0.0323631140 0.0314320590 -1 1
-0.0323522090 0.0306275080 -1 1
-0.0322363500 0.0296676290 -1 0
-0.0319900400 0.0286163150 -1 0
-0.0316055400 0.0275459610 -1 0
-0.0310969120 0.0265327100 -1 0
-0.0304979920 0.0256514950 -1 0
-0.0298555940 0.0249711230 0 0
-0.0292205450 0.0245490640 0 0
-0.0286390760 0.0244257130 0 0
-0.0281466330 0.0246188960 0 0
-0.0277654940 0.0251214380 0 0
-0.0275064040 0.0259044310 0 0
-0.0273725700 0.0269242900 0 0
-0.0273625100 0.0281279320 0 0
-0.0274695610 0.0294522350 0 0
-0.0276799180 0.0308193510 0 1
-0.0279725210 0.0321337590 0 1
-0.0283213280 0.0332867340 0 1
-0.0286982780 0.0341689550 0 1
-0.0290759000 0.0346874360 0 1
-0.0294299470 0.0347824850 0 1
-0.0297421900 0.0344411160 0 1
-0.0300019850 0.0337035390 -1 1
-0.0302055540 0.0326598130 -1 1
-0.0303542110 0.0314363160 -1 1
-0.0304530830 0.0301761190 -1 1
-0.0305101600 0.0290198520 -1 0
-0.0305351350 0.0280911990 -1 0
-0.0305386410 0.0274863090 -1 0
-0.0305325760 0.0272647140 -1 0
-0.0305313310 0.0274414910 -1 0
-0.0305528510 0.0279823630 -1 0
-0.0306181130 0.0288040050 -1 0
-0.0307482010 0.0297822360 -1 0
-0.0309593740 0.0307695270 -1 1
-0.0312573450 0.0316188820 -1 1
-0.0316326310 0.0322071220 -1 1
-0.0320591910 0.0324510960 -1 1
-0.0324973520 0.0323145640 -1 1
-0.0329000760 0.0318077250 -1 1
-0.0332209990 0.0309823830 -1 1
-0.0334226250 0.0299240240 -1 0
-0.0334827580 0.0287409460 -1 0
-0.0333971070 0.0275518970 -1 0
-0.0331772670 0.0264744800 -1 0
-0.0328459080 0.0256148480 -1 0
-0.0324323220 0.0250580550 -1 0
-0.0319698770 0.0248598490 -1 0
-0.0314946660 0.0250408840 -1 0
-0.0310438740 0.0255831590 -1 0
-0.0306529100 0.0264293340 -1 0
-0.0303511850 0.0274870480 -1 0
-0.0301573910 0.0286392290 -1 0
-0.0300758710 0.0297581330 -1 0
-0.0300958350 0.0307194790 -1 1
-0.0301945980 0.0314151020 -1 1
-0.0303440030 0.0317639020 -1 1
-0.0305168770 0.0317199750 -1 1
-0.0306906830 0.0312771690 -1 1
-0.0308485940 0.0304705780 -1 1
-0.0309801420 0.0293744100 -1 0
-0.0310817390 0.0280939450 -1 0
-0.0311553580 0.0267514290 -1 0
-0.0312053260 0.0254700050 -1 0
-0.0312358790 0.0243606840 -1 0
-0.0312514720 0.0235142580 -1 0
-0.0312586060 0.0229967820 -1 0
-0.0312662190 0.0228464420 -1 0
-0.0312834080 0.0230709430 -1 0
-0.0313158160 0.0236456260 -1 0
-0.0313625720 0.0245132090 -1 0
-0.0314152870 0.0255866970 -1 0
-0.0314603460 0.0267564820 -1 0
-0.0314844610 0.0279013230 -1 0
-0.0314807330 0.0289019220 -1 0
-0.0314515080 0.0296549360 -1 0
-0.0314068710 0.0300844290 -1 1
-0.0313610380 0.0301484820 -1 1
-0.0313295120 0.0298405430 -1 0
-0.0313283170 0.0291870650 -1 0
-0.0313746690 0.0282440140 -1 0
-0.0314873840 0.0270934630 -1 0
-0.0316855130 0.0258389060 -1 0
-0.0319844790 0.0245977680 -1 0
-0.0323901380 0.0234915940 -1 0
-0.0328927480 0.0226353080 -1 0
-0.0334639790 0.0221261450 -1 0
-0.0340595700 0.0220315060 -1 0
-0.0346278430 0.0223764220 -1 0
-0.0351211770 0.0231352880 -1 0
-0.0355057140 0.0242328090 -1 0
-0.0357658180 0.0255542010 -1 0
-0.0359031130 0.0269612710 -1 0
-0.0359323650 0.0283108700 -1 0
-0.0358761900 0.0294721950 -1 0
-0.0357598070 0.0303399730 -1 1
-0.0356069390 0.0308431820 -1 1
-0.0354373500 0.0309509020 -1 1
-0.0352655430 0.0306754340 -1 1
-0.0351001730 0.0300704660 -1 1
-0.0349442110 0.0292224640 -1 0
-0.0347963180 0.0282361880 -1 0
-0.0346536780 0.0272176860 -1 0
-0.0345153360 0.0262592530 -1 0
-0.0343842660 0.0254303130 -1 0
-0.0342672390 0.0247754650 -1 0
-0.0341727560 0.0243177530 -1 0
-0.0341081560 0.0240643370 -1 0
-0.0340777030 0.0240121940 -1 0
-0.0340828850 0.0241524770 -1 0
-0.0341241870 0.0244728820 -1 0
-0.0342026320 0.0249571690 -1 0
-0.0343205110 0.0255815130 -1 0
-0.0344813250 0.0263098670 -1 0
-0.0346882680 0.0270915840 -1 0
-0.0349409460 0.0278628810 -1 0
-0.0352320580 0.0285519870 -1 0
-0.0355466060 0.0290872600 -1 0
-0.0358640330 0.0294074510 -1 0
-0.0361613780 0.0294723820 -1 0
-0.0364160920 0.0292712160 -1 0
-0.0366086070 0.0288263220 -1 0
-0.0367248360 0.0281926910 -1 0
-0.0367579470 0.0274527440 -1 0
-0.0367088740 0.0267061950 -1 0
-0.0365854210 0.0260573080 -1 0
-0.0364002520 0.0256034890 -1 0
-0.0361689030 0.0254261600 -1 0
-0.0359089200 0.0255820900 -1 0
-0.0356391840 0.0260942740 -1 0
-0.0353778070 0.0269440420 -1 0
-0.0351392390 0.0280687490 -1 0
-0.0349328890 0.0293688460 -1 0
-0.0347637570 0.0307226800 -1 1
-0.0346332650 0.0320032940 -1 1
-0.0345391190 0.0330928210 -1 1
-0.0344753900 0.0338931530 -1 1
-0.0344345370 0.0343330920 -1 1
-0.0344107620 0.0343726630 -1 1
-0.0344020550 0.0340057300 -1 1
-0.0344094740 0.0332618650 -1 1
-0.0344349390 0.0322068160 -1 1
-0.0344791380 0.0309400780 -1 1
-0.0345399600 0.0295887260 -1 0
-0.0346114160 0.0282959680 -1 0
-0.0346832940 0.0272029450 -1 0
-0.0347420860 0.0264262870 -1 0
-0.0347735680 0.0260383520 -1 0
-0.0347666300 0.0260567790 -1 0
-0.0347169750 0.0264453550 -1 0
-0.0346288960 0.0271236170 -1 0
-0.0345141470 0.0279809960 -1 0
-0.0343885640 0.0288922510 -1 0
-0.0342682480 0.0297325310 -1 0
-0.0341667690 0.0303915510 -1 1
-0.0340935870 0.0307849900 -1 1
-0.0340531330 0.0308603380 -1 1
-0.0340443530 0.0305983610 -1 1
-0.0340611370 0.0300137610 -1 1
-0.0340933900 0.0291539400 -1 0
-0.0341273720 0.0280931760 -1 0
-0.0341447310 0.0269245630 -1 0
-0.0341220650 0.0257530640 -1 0
-0.0340327450 0.0246885730 -1 0
-0.0338507340 0.0238374280 -1 0
-0.0335556530 0.0232938740 -1 0
-0.0331382580 0.0231320200 -1 0
-0.0326044280 0.0233967090 -1 0
-0.0319760330 0.0240945110 -1 0
-0.0312886910 0.0251890850 -1 0
-0.0305874220 0.0266032520 -1 0
-0.0299215220 0.0282271830 0 0
-0.0293395090 0.0299307250 0 0
-0.0288840960 0.0315769820 0 1
-0.0285869340 0.0330344080 0 1
-0.0284638940 0.0341866860 0 1
-0.0285127230 0.0349412650 0 1
-0.0287146910 0.0352365260 0 1
-0.0290398100 0.0350469720 0 1
-0.0294530230 0.0343870250 0 1
-0.0299188530 0.0333136740 0 1
-0.0304043360 0.0319254860 -1 1
-0.0308814490 0.0303551510 -1 1
-0.0313289560 0.0287563220 -1 0
-0.0317325010 0.0272875380 -1 0
-0.0320828850 0.0260941160 -1 0
-0.0323739890 0.0252893680 -1 0
-0.0326013260 0.0249395380 -1 0
-0.0327610670 0.0250565330 -1 0
-0.0328495470 0.0255990590 -1 0
-0.0328637290 0.0264809140 -1 0
-0.0328021140 0.0275847250 -1 0
-0.0326645680 0.0287788530 -1 0
-0.0324509510 0.0299342410 -1 0
-0.0321603740 0.0309375470 -1 1
-0.0317922190 0.0316981870 -1 1
-0.0313478250 0.0321504660 -1 1
-0.0308315570 0.0322547040 -1 1
-0.0302514120 0.0320005380 -1 1
-0.0296200110 0.0314119520 0 1
-0.0289562680 0.0305497380 0 1
-0.0282869450 0.0295067520 0 0
-0.0276464310 0.0283951800 0 0
-0.0270737880 0.0273298050 0 0
-0.0266076150 0.0264127440 0 0
-0.0262800900 0.0257231450 0 0
-0.0261121280 0.0253118590 0 0
-0.0261113120 0.0251988440 0 0
-0.0262719260 0.0253723290 0 0
-0.0265751560 0.0257909400 0 0
-0.0269894580 0.0263890880 0 0
-0.0274735680 0.0270844550 0 0
-0.0279836450 0.0277868040 0 0
-0.0284820880 0.0284071450 0 0
-0.0289435400 0.0288657790 0 0
-0.0293556600 0.0290989810 0 0
-0.0297151060 0.0290653710 0 0
-0.0300212470 0.0287519340 -1 0
-0.0302709830 0.0281774830 -1 0
-0.0304566010 0.0273905480 -1 0
-0.0305662060 0.0264609280 -1 0
-0.0305856720 0.0254677700 -1 0
-0.0305020730 0.0244885780 -1 0
-0.0303087840 0.0235920630 -1 0
-0.0300108420 0.0228353540 -1 0
-0.0296274520 0.0222646660 0 0
-0.0291897190 0.0219181890 0 0
-0.0287350900 0.0218292100 0 0
-0.0283021280 0.0220265790 0 0
-0.0279279540 0.0225304890 0 0
-0.0276474800 0.0233435350 0 0
-0.0274916650 0.0244384940 0 0
-0.0274834440 0.0257474350 0 0
-0.0276326090 0.0271598190 0 0
-0.0279324250 0.0285339030 0 0
-0.0283604750 0.0297178970 0 0
-0.0288838610 0.0305729660 0 1
-0.0294660750 0.0309919060 0 1
-0.0300723430 0.0309120020 -1 1
-0.0306724990 0.0303228470 -1 1
-0.0312423690 0.0292683450 -1 0
-0.0317644230 0.0278416350 -1 0
-0.0322276840 0.0261739680 -1 0
-0.0326270230 0.0244198100 -1 0
-0.0329621430 0.0227405870 -1 0
-0.0332362030 0.0212894330 -1 0
-0.0334539310 0.0201979720 -1 0
-0.0336194950 0.0195646630 -1 0
-0.0337346290 0.0194441860 -1 0
-0.0337973140 0.0198386230 -1 0
-0.0338009240 0.0206926920 -1 0
-0.0337338850 0.0218962440 -1 0
-0.0335808970 0.0232965020 -1 0
-0.0333268190 0.0247193330 -1 0
-0.0329627940 0.0259947030 -1 0
-0.0324926390 0.0269800780 -1 0
-0.0319369650 0.0275770880 -1 0
-0.0313329200 0.0277395070 -1 0
-0.0307295050 0.0274733490 -1 0
-0.0301800310 0.0268312740 -1 0
-0.0297332570 0.0259029160 0 0
-0.0294246870 0.0248020560 0 0
-0.0292699140 0.0236521690 0 0
-0.0292617280 0.0225730680 0 0
-0.0293716540 0.0216715110 0 0
-0.0295557600 0.0210367460 0 0
-0.0297640800 0.0207385680 0 0
-0.0299516120 0.0208238800 0 0
-0.0300876440 0.0213102770 -1 0
-0.0301605370 0.0221792310 -1 0
-0.0301773680 0.0233724240 -1 0
-0.0301604380 0.0247934090 -1 0
-0.0301429690 0.0263156120 -1 0
-0.0301643270 0.0277963700 -1 0
-0.0302635810 0.0290948620 -1 0
-0.0304712400 0.0300903490 -1 1
-0.0308010950 0.0306970220 -1 1
-0.0312445520 0.0308733840 -1 1
-0.0317694770 0.0306257830 -1 1
-0.0323249730 0.0300059140 -1 1
-0.0328513250 0.0291021410 -1 0
-0.0332917030 0.0280264390 -1 0
-0.0336024200 0.0269002970 -1 0
-0.0337600500 0.0258412180 -1 0
-0.0337641480 0.0249497650 -1 0
-0.0336348730 0.0242992340 -1 0
-0.0334070460 0.0239312720 -1 0
-0.0331237920 0.0238573340 -1 0
-0.0328315080 0.0240629990 -1 0
-0.0325754030 0.0245132980 -1 0
-0.0323946900 0.0251579470 -1 0
-0.0323179730 0.0259349870 -1 0
-0.0323601130 0.0267727800 -1 0
-0.0325214680 0.0275924510 -1 0
-0.0327888490 0.0283126150 -1 0
-0.0331368770 0.0288561380 -1 0
-0.0335297170 0.0291572670 -1 0
-0.0339243900 0.0291673730 -1 0
-0.0342762610 0.0288587700 -1 0
-0.0345460660 0.0282278550 -1 0
-0.0347070730 0.0272986880 -1 0
-0.0347503200 0.0261258270 -1 0
-0.0346860860 0.0247938510 -1 0
-0.0345408240 0.0234115750 -1 0
-0.0343500450 0.0221004400 -1 0
-0.0341492000 0.0209788710 -1 0
-0.0339657630 0.0201466910 -1 0
-0.0338151690 0.0196732970 -1 0
-0.0337012460 0.0195908880 -1 0
-0.0336195740 0.0198931520 -1 0
-0.0335612950 0.0205400010 -1 0
-0.0335161880 0.0214664970 -1 0
-0.0334751010 0.0225917450 -1 0
-0.0334314180 0.0238249530 -1 0
-0.0333807700 0.0250692870 -1 0
-0.0333196660 0.0262261230 -1 0
-0.0332446620 0.0272016020 -1 0
-0.0331524250 0.0279152690 -1 0
-0.0330400650 0.0283098920 -1 0
-0.0329052950 0.0283604930 -1 0
-0.0327459630 0.0280777110 -1 0
-0.0325586170 0.0275025540 -1 0
-0.0323367800 0.0266971170 -1 0
-0.0320703440 0.0257377030 -1 0
-0.0317471820 0.0247105520 -1 0
-0.0313572780 0.0237072280 -1 0
-0.0308986290 0.0228193220 -1 0
-0.0303825670 0.0221329660 -1 0
-0.0298351200 0.0217218000 0 0
-0.0292925530 0.0216380870 0 0
-0.0287932550 0.0219049900 0 0
-0.0283704880 0.0225127460 0 0
-0.0280484930 0.0234179840 0 0
-0.0278411480 0.0245455370 0 0
-0.0277519800 0.0257941820 0 0
-0.0277751210 0.0270465050 0 0
-0.0278967190 0.0281819480 0 0
-0.0280963850 0.0290929610 0 0
-0.0283493500 0.0297020120 0 0
-0.0286301590 0.0299740210 0 0
-0.0289167590 0.0299208220 0 0
-0.0291923720 0.0295981420 0 0
-0.0294449540 0.0290956770 0 0
-0.0296669600 0.0285209660 0 0
-0.0298566760 0.0279802690 0 0
-0.0300190130 0.0275616610 -1 0
-0.0301636020 0.0273246300 -1 0
-0.0303007920 0.0272972320 -1 0
-0.0304372940 0.0274787540 -1 0
-0.0305728630 0.0278447820 -1 0
-0.0306994540 0.0283523930 -1 0
-0.0308042310 0.0289444750 -1 0
-0.0308755310 0.0295533040 -1 0
-0.0309082030 0.0301039160 -1 1
-0.0309052280 0.0305182480 -1 1
-0.0308753520 0.0307212660 -1 1
-0.0308288200 0.0306491220 -1 1
-0.0307736840 0.0302573600 -1 1
-0.0307135260 0.0295272260 -1 0
-0.0306456790 0.0284698440 -1 0
-0.0305597130 0.0271288080 -1 0
-0.0304384450 0.0255799660 -1 0
-0.0302633890 0.0239260800 -1 0
-0.0300232500 0.0222864660 -1 0
-0.0297215360 0.0207842600 0 0
-0.0293792560 0.0195335680 0 0
-0.0290308270 0.0186281910 0 0
-0.0287149670 0.0181331820 0 0
-0.0284645760 0.0180785290 0 0
-0.0282994420 0.0184546150 0 0
-0.0282242890 0.0192116290 0 0
-0.0282320920 0.0202647800 0 0
-0.0283096080 0.0215046590 0 0
-0.0284418890 0.0228105650 0 0
-0.0286152410 0.0240634160 0 0
-0.0288194600 0.0251546800 0 0
-0.0290492300 0.0259905120 0 0
-0.0293038850 0.0264938410 0 0
-0.0295853470 0.0266077140 0 0
-0.0298948810 0.0263011280 0 0
-0.0302301360 0.0255763630 -1 0
-0.0305838590 0.0244748540 -1 0
-0.0309441430 0.0230780970 -1 0
-0.0312951660 0.0215017990 -1 0
-0.0316181730 0.0198838320 -1 0
-0.0318932090 0.0183682020 -1 0
-0.0321016670 0.0170882300 -1 0
-0.0322291350 0.0161519430 -1 0
-0.0322682090 0.0156313620 -1 0
-0.0322211010 0.0155562920 -1 0
-0.0321017140 0.0159133420 -1 0
-0.0319361300 0.0166503250 -1 0
-0.0317601380 0.0176847480 -1 0
-0.0316135680 0.0189149410 -1 0
-0.0315329300 0.0202321130 -1 0
-0.0315442640 0.0215314620 -1 0
-0.0316578360 0.0227214020 -1 0
-0.0318664620 0.0237294960 -1 0
-0.0321482350 0.0245034570 -1 0
-0.0324719970 0.0250087510 -1 0
-0.0328030470 0.0252272310 -1 0
-0.0331080400 0.0251594570 -1 0
-0.0333590480 0.0248294960 -1 0
-0.0335362350 0.0242890000 -1 0
-0.0336283580 0.0236181620 -1 0
-0.0336316920 0.0229220340 -1 0
-0.0335491190 0.0223202590 -1 0
-0.0333898610 0.0219298920 -1 0
-0.0331686690 0.0218443850 -1 0
-0.0329039140 0.0221130790 -1 0
-0.0326152260 0.0227261800 -1 0
-0.0323208590 0.0236110490 -1 0
-0.0320346450 0.0246429010 -1 0
-0.0317633730 0.0256674130 -1 0
-0.0315063170 0.0265288270 -1 0
-0.0312576880 0.0270958150 -1 0
-0.0310105320 0.0272785350 -1 0
-0.0307593000 0.0270348810 -1 0
-0.0304996730 0.0263688510 -1 0
-0.0302266150 0.0253250340 -1 0
-0.0299332630 0.0239819890 0 0
-0.0296130370 0.0224459440 0 0
-0.0292644310 0.0208437590 0 0
-0.0288945810 0.0193125710 0 0
-0.0285185150 0.0179856570 0 0
-0.0281550890 0.0169773280 0 0
-0.0278228010 0.0163707210 0 0
-0.0275372520 0.0162108880 0 0
-0.0273097600 0.0165033290 0 0
-0.0271467690 0.0172166780 0 0
-0.0270511760 0.0182884210 0 0
-0.0270254230 0.0196331740 0 0
-0.0270728540 0.0211522130 0 0
-0.0271943940 0.0227414120 0 0
-0.0273828980 0.0242958140 0 0
-0.0276206820 0.0257124280 0 0
-0.0278826250 0.0268939700 0 0
-0.0281422560 0.0277547860 0 0
-0.0283772960 0.0282286230 0 0
-0.0285730520 0.0282770820 0 0
-0.0287225800 0.0278974000 0 0
-0.0288230310 0.0271278610 0 0
-0.0288707910 0.0260476910 0 0
-0.0288596830 0.0247693170 0 0
-0.0287834110 0.0234248980 0 0
-0.0286401670 0.0221508540 0 0
-0.0284366470 0.0210726760 0 0
-0.0281891240 0.0202912010 0 0
-0.0279206810 0.0198716000 0 0
-0.0276562660 0.0198364000 0 0
-0.0274186270 0.0201636860 0 0
-0.0272268180 0.0207910820 0 0
-0.0270962480 0.0216248120 0 0
-0.0270386880 0.0225522450 0 0
-0.0270618810 0.0234563240 0 0
-0.0271690980 0.0242305410 0 0
-0.0273589130 0.0247929620 0 0
-0.0276253660 0.0250969600 0 0
-0.0279584570 0.0251357670 0 0
-0.0283448350 0.0249390800 0 0
-0.0287683430 0.0245625940 0 0
-0.0292101500 0.0240741670 0 0
-0.0296491420 0.0235414870 0 0
-0.0300640030 0.0230249310 -1 0
-0.0304369210 0.0225762110 -1 0
-0.0307571350 0.0222402360 -1 0
-0.0310228600 0.0220562240 -1 0
-0.0312413190 0.0220551210 -1 0
-0.0314264810 0.0222537120 -1 0
-0.0315941870 0.0226485910 -1 0
-0.0317562070 0.0232128140 -1 0
-0.0319162750 0.0238964930 -1 0
-0.0320701550 0.0246309360 -1 0
-0.0322093550 0.0253349840 -1 0
-0.0323256840 0.0259237100 -1 0
-0.0324135400 0.0263204610 -1 0
-0.0324691490 0.0264701730 -1 0
-0.0324886760 0.0263492610 -1 0
-0.0324674840 0.0259686770 -1 0
-0.0324011210 0.0253697510 -1 0
-0.0322873270 0.0246146150 -1 0
-0.0321285120 0.0237742940 -1 0
-0.0319340910 0.0229182780 -1 0
-0.0317209430 0.0221089240 -1 0
-0.0315103830 0.0214006530 -1 0
-0.0313224280 0.0208410920 -1 0
-0.0311705520 0.0204725930 -1 0
-0.0310598850 0.0203334440 -1 0
-0.0309891190 0.0204558310 -1 0
-0.0309536960 0.0208584330 -1 0
-0.0309478730 0.0215361320 -1 0
-0.0309654300 0.0224518170 -1 0
-0.0310000570 0.0235341560 -1 0
-0.0310461630 0.0246833390 -1 0
-0.0311001500 0.0257842290 -1 0
-0.0311612190 0.0267241050 -1 0
-0.0312303970 0.0274107820 -1 0
-0.0313077770 0.0277853420 -1 0
-0.0313896100 0.0278253080 -1 0
-0.0314670690 0.0275404790 -1 0
-0.0315270180 0.0269676740 -1 0
-0.0315546080 0.0261675970 -1 0
-0.0315378220 0.0252218080 -1 0
-0.0314729260 0.0242262430 -1 0
-0.0313677980 0.0232809150 -1 0
-0.0312407820 0.0224793110 -1 0
-0.0311158630 0.0219004280 -1 0
-0.0310164970 0.0216032560 -1 0
-0.0309597190 0.0216231440 -1 0
-0.0309517730 0.0219702690 -1 0
-0.0309866420 0.0226286820 -1 0
-0.0310477680 0.0235543680 -1 0
-0.0311119910 0.0246740390 -1 0
-0.0311544150 0.0258877100 -1 0
-0.0311531440 0.0270761770 -1 0
-0.0310933200 0.0281130660 -1 0
-0.0309700010 0.0288807320 -1 0
-0.0307892110 0.0292881210 -1 0
-0.0305669750 0.0292860540 -1 0
-0.0303265500 0.0288741900 -1 0
-0.0300935880 0.0280978020 -1 0
-0.0298897330 0.0270377660 0 0
-0.0297276390 0.0257986170 0 0
-0.0296107610 0.0244971640 0 0
-0.0295378470 0.0232520330 0 0
-0.0295083170 0.0221746120 0 0
-0.0295242380 0.0213613950 0 0
-0.0295878770 0.0208864400 0 0
-0.0296974740 0.0207932420 0 0
-0.0298446990 0.0210875190 0 0
-0.0300151380 0.0217333270 -1 0
-0.0301907320 0.0226536590 -1 0
-0.0303524450 0.0237355700 -1 0
-0.0304821240 0.0248409330 -1 0
-0.0305634360 0.0258237260 -1 0
-0.0305826510 0.0265515470 -1 0
-0.0305300890 0.0269267940 -1 0
-0.0304018660 0.0269028260 -1 0
-0.0302004640 0.0264908140 -1 0
-0.0299329090 0.0257545570 0 0
-0.0296070410 0.0247944110 0 0
-0.0292288470 0.0237256080 0 0
-0.0288037520 0.0226578880 0 0
-0.0283409290 0.0216819870 0 0
-0.0278565440 0.0208650360 0 0
-0.0273731520 0.0202526140 0 0
-0.0269157540 0.0198725460 0 0
-0.0265066770 0.0197371900 0 0
-0.0261615870 0.0198444940 0 0
-0.0258883290 0.0201794010 0 0
-0.0256881660 0.0207154860 0 0
-0.0255574530 0.0214150070 0 0
-0.0254885260 0.0222264980 0 0
-0.0254701270 0.0230820140 0 0
-0.0254884180 0.0238981820 0 0
-0.0255293650 0.0245836430 0 0
-0.0255821170 0.0250520420 0 0
-0.0256418870 0.0252372960 0 0
-0.0257106990 0.0251073120 0 0
-0.0257948970 0.0246725140 0 0
-0.0258997290 0.0239864560 0 0
-0.0260238430 0.0231376790 0 0
-0.0261575380 0.0222344500 0 0
-0.0262856490 0.0213858040 0 0
-0.0263923330 0.0206835000 0 0
-0.0264654100 0.0201903630 0 0
-0.0264994930 0.0199379140 0 0
-0.0264966400 0.0199309310 0 0
-0.0264636910 0.0201548560 0 0
-0.0264080640 0.0205834190 0 0
-0.0263345940 0.0211840780 0 0
-0.0262443000 0.0219194190 0 0
-0.0261346360 0.0227455120 0 0
-0.0260005080 0.0236098430 0 0
-0.0258353510 0.0244500030 0 0
-0.0256321350 0.0251935610 0 0
-0.0253846240 0.0257611890 0 0
-0.0250888490 0.0260754280 0 0
-0.0247440460 0.0260739400 0 0
-0.0243524860 0.0257225500 0 0
-0.0239184860 0.0250243540 0 0
-0.0234472820 0.0240239020 0 0
-0.0229446530 0.0228058000 0 0
-0.0224180340 0.0214867870 0 0
-0.0218785990 0.0202012270 0 0
-0.0213428660 0.0190819490 0 0
-0.0208330520 0.0182407240 0 0
-0.0203755890 0.0177530880 0 0
-0.0199973080 0.0176498570 0 0
-0.0197206160 0.0179152360 0 0
-0.0195598500 0.0184908780 0 0
-0.0195193780 0.0192850430 0 0
-0.0195930620 0.0201851510 0 0
-0.0197653460 0.0210717520 0 0
-0.0200140160 0.0218329480 0 0
-0.0203133670 0.0223779630 0 0
-0.0206361430 0.0226473630 0 0
-0.0209543660 0.0226177250 0 0
-0.0212409790 0.0222999100 0 0
-0.0214730360 0.0217324890 0 0
-0.0216347450 0.0209737340 0 0
-0.0217185550 0.0200944490 0 0
-0.0217245810 0.0191718630 0 0
-0.0216600790 0.0182842160 0 0
-0.0215394080 0.0175051640 0 0
-0.0213830520 0.0168976960 0 0
-0.0212146810 0.0165095600 0 0
-0.0210571830 0.0163721400 0 0
-0.0209295080 0.0165011520 0 0
-0.0208453840 0.0168962450 0 0
-0.0208136490 0.0175392100 0 0
-0.0208392130 0.0183921070 0 0
-0.0209239530 0.0193966570 0 0
-0.0210671550 0.0204764740 0 0
-0.0212648090 0.0215427380 0 0
-0.0215075260 0.0225020830 0 0
-0.0217783790 0.0232655170 0 0
-0.0220529590 0.0237582060 0 0
-0.0223032510 0.0239291940 0 0
-0.0225040320 0.0237587710 0 0
-0.0226379260 0.0232614650 0 0
-0.0226967100 0.0224839320 0 0
-0.0226798760 0.0214981440 0 0
-0.0225922650 0.0203909250 0 0
-0.0224416410 0.0192522310 0 0
-0.0222367940 0.0181655480 0 0
-0.0219866900 0.0172023350 0 0
-0.0217005050 0.0164199700 0 0
-0.0213879820 0.0158614810 0 0
-0.0210598960 0.0155545020 0 0
-0.0207287590 0.0155072230 0 0
-0.0204092630 0.0157023580 0 0
-0.0201173160 0.0160934880 0 0
-0.0198677430 0.0166077000 0 0
-0.0196722420 0.0171553380 0 0
-0.0195382480 0.0176447440 0 0
-0.0194676860 0.0179977080 0 0
-0.0194553950 0.0181605890 0 0
-0.0194886900 0.0181080140 0 0
-0.0195492470 0.0178402900 0 0
-0.0196169400 0.0173790940 0 0
-0.0196741240 0.0167648950 0 0
-0.0197092280 0.0160549190 0 0
-0.0197193130 0.0153189230 0 0
-0.0197109010 0.0146327690 0 0
-0.0196975240 0.0140717430 0 0
-0.0196938510 0.0137043900 0 0
-0.0197092280 0.0135869260 0 0
-0.0197439350 0.0137586690 0 0
-0.0197889630 0.0142377610 0 0
-0.0198283660 0.0150155130 0 0
-0.0198434440 0.0160506460 0 0
-0.0198177450 0.0172671780 0 0
-0.0197416390 0.0185582820 0 0
-0.0196157050 0.0197965000 0 0
-0.0194519480 0.0208484030 0 0
-0.0192713960 0.0215899870 0 0
-0.0190979830 0.0219204230 0 0
-0.0189513970 0.0217742890 0 0
-0.0188423670 0.0211317250 0 0
-0.0187715630 0.0200242010 0 0
-0.0187306920 0.0185335980 0 0
-0.0187041170 0.0167836920 0 0
-0.0186708660 0.0149260450 0 0
-0.0186081770 0.0131240750 0 0
-0.0184968380 0.0115374070 0 0
-0.0183263580 0.0103068670 0 0
-0.0180976920 0.0095414450 0 0
-0.0178230150 0.0093091310 0 0
-0.0175233050 0.0096320210 0 0
-0.0172245000 0.0104847580 0 0
-0.0169529720 0.0117956670 0 0
-0.0167315480 0.0134513210 0 0
-0.0165771900 0.0153060730 0 0
-0.0164997980 0.0171962470 0 0
-0.0165007290 0.0189560910 0 0
-0.0165713170 0.0204338210 0 0
-0.0166934020 0.0215085870 0 0
-0.0168434410 0.0221065500 0 0
-0.0169994170 0.0222102750 0 0
-0.0171470190 0.0218577010 0 0
-0.0172813060 0.0211318920 0 0
-0.0174033890 0.0201451200 0 0
-0.0175153200 0.0190214310 0 0
-0.0176166860 0.0178817450 0 0
-0.0177040200 0.0168329270 0 0
-0.0177722790 0.0159598890 0 0
-0.0178171200 0.0153205670 0 0
-0.0178364810 0.0149440860 0 0
-0.0178302860 0.0148308160 0 0
-0.0177987990 0.0149527230 0 0
-0.0177413840 0.0152542420 0 0
-0.0176566780 0.0156558890 0 0
-0.0175437880 0.0160623380 0 0
-0.0174035410 0.0163738150 0 0
-0.0172391860 0.0164984880 0 0
-0.0170564110 0.0163645980 0 0
-0.0168628780 0.0159313280 0 0
-0.0166673730 0.0151963250 0 0
-0.0164787220 0.0141975350 0 0
-0.0163048530 0.0130076130 0 0
-0.0161523280 0.0117208300 0 0
-0.0160264070 0.0104364100 0 0
-0.0159315000 0.0092453670 0 0
-0.0158718380 0.0082249030 0 0
-0.0158520440 0.0074382110 0 0
-0.0158771670 0.0069354030 0 0
-0.0159517730 0.0067527550 0 0
-0.0160783260 0.0069092950 0 0
-0.0162555380 0.0074027100 0 0
-0.0164774510 0.0082078060 0 0
-0.0167338460 0.0092778160 0 0
-0.0170120270 0.0105464730 0 0
-0.0172992890 0.0119304640 0 0
-0.0175852250 0.0133339950 0 0
-0.0178633890 0.0146561640 0 0
-0.0181315420 0.0157993270 0 0
-0.0183893760 0.0166764490 0 0
-0.0186345640 0.0172181630 0 0
-0.0188600300 0.0173816050 0 0
-0.0190544350 0.0171598310 0 0
-0.0192058540 0.0165866870 0 0
-0.0193069730 0.0157332200 0 0
-0.0193586760 0.0146970620 0 0
-0.0193694830 0.0135894190 0 0
-0.0193513630 0.0125232700 0 0
-0.0193150660 0.0116035580 0 0
-0.0192673260 0.0109185840 0 0
-0.0192099880 0.0105325380 0 0
-0.0191404370 0.0104802110 0 0
-0.0190531950 0.0107646250 0 0
-0.0189420450 0.0113568550 0 0
-0.0188016440 0.0121972310 0 0
-0.0186285610 0.0131986650 0 0
-0.0184223710 0.0142536260 0 0
-0.0181866790 0.0152448860 0 0
-0.0179291730 0.0160580880 0 0
-0.0176605070 0.0165940130 0 0
-0.0173927890 0.0167803090 0 0
-0.0171382160 0.0165827420 0 0
-0.0169079180 0.0160137310 0 0
-0.0167107550 0.0151345780 0 0
-0.0165519000 0.0140488080 0 0
-0.0164319850 0.0128863470 0 0
-0.0163480510 0.0117818250 0 0
-0.0162957450 0.0108533410 0 0
-0.0162708120 0.0101875800 0 0
-0.0162689940 0.0098333710 0 0
-0.0162853800 0.0098023890 0 0
-0.0163147370 0.0100749890 0 0
-0.0163531810 0.0106082860 0 0
-0.0164001140 0.0113423270 0 0
-0.0164591170 0.0122028740 0 0
-0.0165369610 0.0131044690 0 0
-0.0166410830 0.0139572450 0 0
-0.0167773840 0.0146758370 0 0
-0.0169497110 0.0151870200 0 0
-0.0171599870 0.0154351460 0 0
-0.0174078440 0.0153855910 0 0
-0.0176907650 0.0150263040 0 0
-0.0180050910 0.0143686290 0 0
-0.0183456480 0.0134487410 0 0
-0.0187028910 0.0123287520 0 0
-0.0190602360 0.0110953100 0 0
-0.0193946440 0.0098549180 0 0
-0.0196805650 0.0087267940 0 0
-0.0198951840 0.0078337510 0 0
-0.0200230380 0.0072901120 0 0
-0.0200589250 0.0071862800 0 0
-0.0200082390 0.0075729350 0 0
-0.0198849490 0.0084497500 0 0
-0.0197089930 0.0097620350 0 0
-0.0195044250 0.0114059620 0 0
-0.0192979250 0.0132405330 0 0
-0.0191170550 0.0151032040 0 0
-0.0189880680 0.0168269230 0 0
-0.0189330370 0.0182576210 0 0
-0.0189664960 0.0192710820 0 0
-0.0190930470 0.0197864590 0 0
-0.0193072840 0.0197736820 0 0
-0.0195955260 0.0192550310 0 0
-0.0199376550 0.0183024720 0 0
-0.0203086300 0.0170300210 0 0
-0.0206808260 0.0155797560 0 0
-0.0210275080 0.0141036380 0 0
-0.0213263250 0.0127459390 0 0
-0.0215619640 0.0116297650 0 0
-0.0217280470 0.0108482690 0 0
-0.0218277450 0.0104594300 0 0
-0.0218719280 0.0104830060 0 0
-0.0218752280 0.0108998240 0 0
-0.0218524000 0.0116544210 0 0
-0.0218165210 0.0126605990 0 0
-0.0217776570 0.0138088610 0 0
-0.0217401940 0.0149755640 0 0
-0.0216998310 0.0160344440 0 0
-0.0216430870 0.0168707950 0 0
-0.0215503830 0.0173967970 0 0
-0.0214010460 0.0175644990 0 0
-0.0211776830 0.0173723560 0 0
-0.0208682130 0.0168626040 0 0
-0.0204659240 0.0161103890 0 0
-0.0199690470 0.0152088830 0 0
-0.0193807280 0.0142553770 0 0
-0.0187099590 0.0133417510 0 0
-0.0179738740 0.0125497840 0 0
-0.0171997100 0.0119485490 0 0
-0.0164238100 0.0115903050 0 0
-0.0156872330 0.0115042760 0 0
-0.0150296340 0.0116913410 0 0
-0.0144834860 0.0121219310 0 0
-0.0140700920 0.0127370500 0 0
-0.0137975700 0.0134532640 0 0
-0.0136606640 0.0141733990 0 0
-0.0136427420 0.0148015930 0 0
-0.0137196630 0.0152575570 0 0
-0.0138643200 0.0154851490 0 0
-0.0140507640 0.0154543590 0 0
-0.0142571560 0.0151599610 0 0
-0.0144667870 0.0146203180 0 0
-0.0146671510 0.0138768060 0 0
-0.0148486070 0.0129918980 0 0
-0.0150046170 0.0120439640 0 0
-0.0151334260 0.0111183240 0 0
-0.0152391010 0.0102960180 0 0
-0.0153313670 0.0096436290 0 0
-0.0154254810 0.0092079290 0 0
-0.0155415040 0.0090163150 0 0
-0.0157006580 0.0090799460 0 0
-0.0159192520 0.0093954530 0 0
-0.0162036920 0.0099440650 0 0
-0.0165488870 0.0106902520 0 0
-0.0169394330 0.0115822070 0 0
-0.0173523160 0.0125551650 0 0
-0.0177612170 0.0135372160 0 0
-0.0181424920 0.0144555410 0 0
-0.0184808580 0.0152411420 0 0
-0.0187718920 0.0158329390 0 0
-0.0190204010 0.0161833260 0 0
-0.0192360530 0.0162648990 0 0
-0.0194284990 0.0160750500 0 0
-0.0196037540 0.0156355920 0 0
-0.0197625230 0.0149878940 0 0
-0.0199004970 0.0141863180 0 0
-0.0200105200 0.0132920600 0 0
-0.0200858480 0.0123673220 0 0
-0.0201227460 0.0114689430 0 0
-0.0201213900 0.0106424810 0 0
-0.0200858140 0.0099190130 0 0
-0.0200240540 0.0093146930 0 0
-0.0199485100 0.0088315870 0 0
-0.0198757860 0.0084599800 0 0
-0.0198253180 0.0081827730 0 0
-0.0198161630 0.0079802010 0 0
-0.0198624900 0.0078323180 0 0
-0.0199697580 0.0077187190 0 0
-0.0201332260 0.0076177060 0 0
-0.0203388900 0.0075083310 0 0
-0.0205658990 0.0073760910 0 0
-0.0207897350 0.0072194400 0 0
-0.0209859340 0.0070532050 0 0
-0.0211339340 0.0069063490 0 0
-0.0212200550 0.0068142140 0 0
-0.0212384970 0.0068082660 0 0
-0.0211897300 0.0069080640 0 0
-0.0210767180 0.0071189320 0 0
-0.0209008410 0.0074343820 0 0
-0.0206598740 0.0078402270 0 0
-0.0203495360 0.0083190900 0 0
-0.0199683210 0.0088543890 0 0
-0.0195232360 0.0094317490 0 0
-0.0190332190 0.0100372930 0 0
-0.0185285630 0.0106546200 0 0
-0.0180470670 0.0112619750 0 0
-0.0176280920 0.0118296380 0 0
-0.0173053070 0.0123182050 0 0
-0.0170996560 0.0126801600 0 0
-0.0170152100 0.0128665960 0 0
-0.0170398000 0.0128379770 0 0
-0.0171499340 0.0125749000 0 0
-0.0173169730 0.0120843030 0 0
-0.0175116720 0.0113989170 0 0
-0.0177072070 0.0105712040 0 0
-0.0178823710 0.0096655370 0 0
-0.0180245890 0.0087519880 0 0
-0.0181307130 0.0079018310 0 0
-0.0182045910 0.0071828610 0 0
-0.0182528450 0.0066539470 0 0
-0.0182815100 0.0063598000 0 0
-0.0182948710 0.0063264730 0 0
-0.0182954480 0.0065578670 0 0
-0.0182834610 0.0070348170 0 0
-0.0182555430 0.0077178480 0 0
-0.0182042120 0.0085521870 0 0
-0.0181195550 0.0094723190 0 0
-0.0179929490 0.0104044170 0 0
-0.0178211840 0.0112675010 0 0
-0.0176088990 0.0119767810 0 0
-0.0173679930 0.0124523340 0 0
-0.0171149280 0.0126327120 0 0
-0.0168682470 0.0124897580 0 0
-0.0166469300 0.0120397010 0 0
-0.0164680870 0.0113460500 0 0
-0.0163431620 0.0105120880 0 0
-0.0162741650 0.0096645030 0 0
-0.0162523310 0.0089332560 0 0
-0.0162601160 0.0084332950 0 0
-0.0162752760 0.0082509430 0 0
-0.0162753040 0.0084347980 0 0
-0.0162414190 0.0089901710 0 0
-0.0161620590 0.0098766830 0 0
-0.0160356960 0.0110100450 0 0
-0.0158720640 0.0122698770 0 0
-0.0156904150 0.0135138140 0 0
-0.0155148170 0.0145955390 0 0
-0.0153686360 0.0153840870 0 0
-0.0152702950 0.0157823410 0 0
-0.0152305760 0.0157413440 0 0
-0.0152508020 0.0152659350 0 0
-0.0153217890 0.0144096630 0 0
-0.0154247530 0.0132613780 0 0
-0.0155352280 0.0119290870 0 0
-0.0156291270 0.0105263810 0 0
-0.0156888400 0.0091630380 0 0
-0.0157076440 0.0079384570 0 0
-0.0156911460 0.0069373820 0 0
-0.0156550100 0.0062279020 0 0
-0.0156198470 0.0058602040 0 0
-0.0156052000 0.0058639280 0 0
-0.0156242090 0.0062442910 0 0
-0.0156802460 0.0069797940 0 0
-0.0157665360 0.0080234440 0 0
-0.0158685620 0.0093060980 0 0
-0.0159680270 0.0107398400 0 0
-0.0160470260 0.0122216900 0 0
-0.0160914010 0.0136394570 0 0
-0.0160925170 0.0148812360 0 0
-0.0160475450 0.0158487040 0 0
-0.0159590460 0.0164718860 0 0
-0.0158344470 0.0167207480 0 0
-0.0156852570 0.0166095610 0 0
-0.0155255890 0.0161934930 0 0
-0.0153700880 0.0155602220 0 0
-0.0152319360 0.0148198900 0 0
-0.0151210020 0.0140943800 0 0
-0.0150417670 0.0135042840 0 0
-0.0149915080 0.0131522590 0 0
-0.0149598610 0.0131056050 0 0
-0.0149307150 0.0133834640 0 0
-0.0148866470 0.0139522490 0 0
-0.0148148180 0.0147303120 0 0
-0.0147119950 0.0156015080 0 0
-0.0145867090 0.0164352300 0 0
-0.0144579560 0.0171082070 0 0
-0.0143506610 0.0175226050 0 0
-0.0142886270 0.0176165030 0 0
-0.0142873900 0.0173659120 0 0
-0.0143505750 0.0167801970 0 0
-0.0144709670 0.0158940930 0 0
-0.0146339170 0.0147597530 0 0
-0.0148205300 0.0134408920 0 0
-0.0150105630 0.0120091570 0 0
-0.0151854160 0.0105422280 0 0
-0.0153304000 0.0091228750 0 0
-0.0154357740 0.0078372980 0 0
-0.0154972420 0.0067720610 0 0
-0.0155161520 0.0060106340 0 0
-0.0154985830 0.0056286160 0 0
-0.0154527270 0.0056846500 0 0
-0.0153856010 0.0062074600 0 0
-0.0153009580 0.0071838530 0 0
-0.0151991840 0.0085519540 0 0
-0.0150783730 0.0102008040 0 0
-0.0149356030 0.0119775630 0 0
-0.0147681760 0.0137051160 0 0
-0.0145750510 0.0152082970 0 0
-0.0143584040 0.0163401980 0 0
-0.0141246120 0.0170013370 0 0
-0.0138837900 0.0171502030 0 0
-0.0136481990 0.0168051180 0 0
-0.0134305900 0.0160374750 0 0
-0.0132425160 0.0149586570 0 0
-0.0130920430 0.0137036950 0 0
-0.0129814600 0.0124134260 0 0
-0.0129066600 0.0112174090 0 0
-0.0128588850 0.0102217590 0 0
-0.0128279110 0.0095047420 0 0
-0.0128051010 0.0091177540 0 0
-0.0127857190 0.0090865750 0 0
-0.0127705580 0.0094110930 0 0
-0.0127663690 0.0100653120 0 0
-0.0127839390 0.0109980290 0 0
-0.0128339530 0.0121331440 0 0
-0.0129230900 0.0133709530 0 0
-0.0130525640 0.0145928570 0 0
-0.0132186160 0.0156704700 0 0
-0.0134130900 0.0164791810 0 0
-0.0136232500 0.0169142580 0 0
-0.0138314280 0.0169051610 0 0
-0.0140158780 0.0164244460 0 0
-0.0141534790 0.0154905390 0 0
-0.0142233190 0.0141654470 0 0
-0.0142097990 0.0125487380 0 0
-0.0141046440 0.0107683550 0 0
-0.0139078610 0.0089682330 0 0
-0.0136280710 0.0072939140 0 0
-0.0132823580 0.0058785920 0 0
-0.0128947320 0.0048308460 0 0
-0.0124928830 0.0042244420 0 0
-0.0121044790 0.0040913850 0 0
-0.0117543160 0.0044196940 0 0
-0.0114622630 0.0051567770 0 0
-0.0112414040 0.0062179040 0 0
-0.0110965740 0.0074968710 0 0
-0.0110242700 0.0088755210 0 0
-0.0110144590 0.0102320220 0 0
-0.0110534020 0.0114505630 0 0
-0.0111267100 0.0124330490 0 0
-0.0112224980 0.0131090430 0 0
-0.0113338460 0.0134400830 0 0
-0.0114589910 0.0134189800 0 0
-0.0115984050 0.0130675750 0 0
-0.0117496090 0.0124349430 0 0
-0.0119029260 0.0115951070 0 0
-0.0120423710 0.0106422980 0 0
-0.0121526210 0.0096825340 0 0
-0.0122273640 0.0088219470 0 0
-0.0122727050 0.0081547620 0 0
-0.0123036020 0.0077541960 0 0
-0.0123369590 0.0076662700 0 0
-0.0123864380 0.0079046190 0 0
-0.0124609970 0.0084468030 0 0
-0.0125664710 0.0092351460 0 0
-0.0127089070 0.0101838110 0 0
-0.0128974980 0.0111907500 0 0
-0.0131446400 0.0121514260 0 0
-0.0134624900 0.0129719590 0 0
-0.0138575940 0.0135808850 0 0
-0.0143257060 0.0139382800 0 0
-0.0148488220 0.0140395280 0 0
-0.0153961140 0.0139119490 0 0
-0.0159290130 0.0136054590 0 0
-0.0164087110 0.0131811550 0 0
-0.0168034600 0.0127021710 0 0
-0.0170933650 0.0122286180 0 0
-0.0172714750 0.0118151370 0 0
-0.0173419660 0.0115091620 0 0
-0.0173180700 0.0113492210 0 0
-0.0172211790 0.0113632630 0 0
-0.0170794560 0.0115667700 0 0
-0.0169238460 0.0119603170 0 0
-0.0167822120 0.0125271150 0 0
-0.0166742380 0.0132316040 0 0
-0.0166090420 0.0140205340 0 0
-0.0165856470 0.0148284210 0 0
-0.0165946750 0.0155865440 0 0
-0.0166197300 0.0162311330 0 0
-0.0166390530 0.0167081530 0 0
-0.0166287910 0.0169759500 0 0
-0.0165677090 0.0170075520 0 0
-0.0164417020 0.0167935610 0 0
-0.0162463830 0.0163462110 0 0
-0.0159868630 0.0157035370 0 0
-0.0156749160 0.0149294390 0 0
-0.0153249620 0.0141061890 0 0
-0.0149508990 0.0133219480 0 0
-0.0145645330 0.0126593320 0 0
-0.0141745230 0.0121874710 0 0
-0.0137855440 0.0119560820 0 0
-0.0133989170 0.0119906780 0 0
-0.0130154530 0.0122897200 0 0
-0.0126392680 0.0128244480 0 0
-0.0122801630 0.0135415760 0 0
-0.0119528910 0.0143685890 0 0
-0.0116737530 0.0152203300 0 0
-0.0114563390 0.0160052610 0 0
-0.0113077770 0.0166320890 0 0
-0.0112264640 0.0170190990 0 0
-0.0112023620 0.0171060600 0 0
-0.0112195850 0.0168653790 0 0
-0.0112594240 0.0163092030 0 0
-0.0113029470 0.0154904210 0 0
-0.0113340730 0.0144973840 0 0
-0.0113429300 0.0134442070 0 0
-0.0113277770 0.0124583990 0 0
-0.0112947010 0.0116664480 0 0
-0.0112554100 0.0111786770 0 0
-0.0112234770 0.0110753350 0 0
-0.0112101670 0.0113950410 0 0
-0.0112221930 0.0121276240 0 0
-0.0112631620 0.0132145940 0 0
-0.0113378280 0.0145580520 0 0
-0.0114552280 0.0160342410 0 0
-0.0116269140 0.0175068340 0 0
-0.0118607720 0.0188388920 0 0
-0.0121545360 0.0199055430 0 0
-0.0124923030 0.0206072190 0 0
-0.0128455500 0.0208800350 0 0
-0.0131788520 0.0207007580 0 0
-0.0134581480 0.0200867080 0 0
-0.0136578690 0.0190920830 0 0
-0.0137646990 0.0178015910 0 0
-0.0137776720 0.0163222090 0 0
-0.0137058520 0.0147746190 0 0
-0.0135656930 0.0132850490 0 0
-0.0133788610 0.0119761060 0 0
-0.0131692810 0.0109556560 0 0
-0.0129588260 0.0103057450 0 0
-0.0127636510 0.0100744190 0 0
-0.0125935950 0.0102711970 0 0
-0.0124546060 0.0108652430 0 0
-0.0123516090 0.0117861980 0 0
-0.0122896230 0.0129293610 0 0
-0.0122735350 0.0141667380 0 0
-0.0123075330 0.0153628950 0 0
-0.0123934540 0.0163917920 0 0
-0.0125278390 0.0171501870 0 0
-0.0126995860 0.0175657740 0 0
-0.0128901070 0.0176017520 0 0
-0.0130763550 0.0172602850 0 0
-0.0132353750 0.0165845430 0 0
-0.0133480030 0.0156564480 0 0
-0.0134000540 0.0145876200 0 0
-0.0133814110 0.0135042330 0 0
-0.0132850990 0.0125297000 0 0
-0.0131082850 0.0117694300 0 0
-0.0128554070 0.0112996400 0 0
-0.0125414690 0.0111603830 0 0
-0.0121925170 0.0113525410 0 0
-0.0118414850 0.0118393070 0 0
-0.0115206550 0.0125531740 0 0
-0.0112546900 0.0134068780 0 0
-0.0110577650 0.0143040710 0 0
-0.0109354670 0.0151475370 0 0
-0.0108891130 0.0158460040 0 0
-0.0109189820 0.0163206730 0 0
-0.0110245370 0.0165117070 0 0
-0.0112025790 0.0163842630 0 0
-0.0114452430 0.0159321050 0 0
-0.0117389330 0.0151770170 0 0
-0.0120642210 0.0141646100 0 0
-0.0123964240 0.0129582460 0 0
-0.0127072040 0.0116326520 0 0
-0.0129680070 0.0102684910 0 0
-0.0131550480 0.0089480470 0 0
-0.0132543510 0.0077508390 0 0
-0.0132650240 0.0067485510 0 0
-0.0131989730 0.0060000530 0 0
-0.0130766780 0.0055471830 0 0
-0.0129217040 0.0054108220 0 0
-0.0127573260 0.0055873600 0 0
-0.0126056720 0.0060470600 0 0
-0.0124876070 0.0067358030 0 0
-0.0124221590 0.0075802120 0 0
-0.0124251380 0.0084951200 0 0
-0.0125073430 0.0093922960 0 0
-0.0126729500 0.0101893970 0 0
-0.0129179090 0.0108176720 0 0
-0.0132283230 0.0112273580 0 0
-0.0135801900 0.0113914490 0 0
-0.0139417730 0.0113087500 0 0
-0.0142778660 0.0110053710 0 0
-0.0145543980 0.0105331860 0 0
-0.0147426390 0.0099650200 0 0
-0.0148226180 0.0093872610 0 0
-0.0147848690 0.0088908270 0 0
-0.0146302950 0.0085614280 0 0
-0.0143693770 0.0084700670 0 0
-0.0140216020 0.0086642840 0 0
-0.0136149430 0.0091602940 0 0
-0.0131851020 0.0099368660 0 0
-0.0127739320 0.0109333810 0 0
-0.0124259370 0.0120547320 0 0
-0.0121826070 0.0131834460 0 0
-0.0120759360 0.0141967400 0 0
-0.0121231690 0.0149842380 0 0
-0.0123243830 0.0154611940 0 0
-0.0126631410 0.0155751370 0 0
-0.0131092290 0.0153078210 0 0
-0.0136223320 0.0146740330 0 0
-0.0141560770 0.0137181790 0 0
-0.0146623430 0.0125101700 0 0
-0.0150960970 0.0111407790 0 0
-0.0154204740 0.0097155960 0 0
-0.0156109350 0.0083474180 0 0
-0.0156573540 0.0071469560 0 0
-0.0155638730 0.0062121380 0 0
-0.0153474930 0.0056182330 0 0
-0.0150367170 0.0054118020 0 0
-0.0146698280 0.0056084620 0 0
-0.0142908560 0.0061909600 0 0
-0.0139426440 0.0071065470 0 0
-0.0136586880 0.0082682990 0 0
-0.0134568310 0.0095641650 0 0
-0.0133374260 0.0108708580 0 0
-0.0132862600 0.0120675980 0 0
-0.0132805380 0.0130482070 0 0
-0.0132962300 0.0137315360 0 0
-0.0133149410 0.0140688820 0 0
-0.0133273830 0.0140472210 0 0
-0.0133315680 0.0136885670 0 0
-0.0133273580 0.0130460540 0 0
-0.0133110540 0.0121976770 0 0
-0.0132727090 0.0112396030 0 0
-0.0131969610 0.0102798020 0 0
-0.0130666900 0.0094299520 0 0
-0.0128677140 0.0087945790 0 0
-0.0125924070 0.0084602770 0 0
-0.0122411410 0.0084883150 0 0
-0.0118222320 0.0089108140 0 0
-0.0113514270 0.0097283920 0 0
-0.0108507530 0.0109074110 0 0
-0.0103461370 0.0123770710 0 0
-0.0098642450 0.0140295520 0 0
-0.0094296800 0.0157273400 0 0
-0.0090630380 0.0173182530 0 0
-0.0087796230 0.0186538690 0 0
-0.0085886030 0.0196069690 0 0
-0.0084927330 0.0200861950 0 0
-0.0084886740 0.0200464200 0 0
-0.0085678190 0.0194927440 0 0
-0.0087173960 0.0184776550 0 0
-0.0089216490 0.0170935670 0 0
-0.0091632310 0.0154633120 0 0
-0.0094249280 0.0137287850 0 0
-0.0096914460 0.0120368760 0 0
-0.0099511920 0.0105235620 0 0
-0.0101983970 0.0092987110 0 0
-0.0104351070 0.0084347590 0 0
-0.0106709150 0.0079617000 0 0
-0.0109188380 0.0078679050 0 0
-0.0111892980 0.0081038030 0 0
-0.0114858730 0.0085873770 0 0
-0.0118049200 0.0092140470 0 0
-0.0121386600 0.0098720990 0 0
-0.0124790020 0.0104583860 0 0
-0.0128189370 0.0108877360 0 0
-0.0131509330 0.0110960550 0 0
-0.0134645380 0.0110418570 0 0
-0.0137456470 0.0107087540 0 0
-0.0139781840 0.0101077310 0 0
-0.0141472050 0.0092778770 0 0
-0.0142416510 0.0082856840 0 0
-0.0142554000 0.0072229840 0 0
-0.0141860610 0.0062021750 0 0
-0.0140319240 0.0053471660 0 0
-0.0137888480 0.0047799350 0 0
-0.0134495030 0.0046040090 0 0
-0.0130061810 0.0048868490 0 0
-0.0124562230 0.0056447090 0 0
-0.0118077930 0.0068354200 0 0
-0.0110836930 0.0083627900 0 0
-0.0103214820 0.0100908230 0 0
-0.0095693500 0.0118621580 0 0
-0.0088791430 0.0135163480 0 0
-0.0082987740 0.0149066360 0 0
-0.0078657160 0.0159147280 0 0
-0.0076026530 0.0164617920 0 0
-0.0075162600 0.0165135520 0 0
-0.0075992900 0.0160794250 0 0
-0.0078343530 0.0152079650 0 0
-0.0081976270 0.0139804730 0 0
-0.0086624630 0.0125026630 0 0
-0.0092028270 0.0108939670 0 0
-0.0097945100 0.0092762570 0 0
-0.0104127940 0.0077647970 0 0
-0.0110293300 0.0064619720 0 0
-0.0116121340 0.0054518920 0 0
-0.0121293610 0.0047943090 0 0
-0.0125545600 0.0045178810 0 0
-0.0128710590 0.0046142740 0 0
-0.0130738970 0.0050363950 0 0
-0.0131686300 0.0057039670 0 0
-0.0131680080 0.0065155150 0 0
-0.0130884690 0.0073619060 0 0
-0.0129478280 0.0081378130 0 0
-0.0127641840 0.0087514140 0 0
-0.0125549770 0.0091338220 0 0
-0.0123353080 0.0092473020 0 0
-0.0121158690 0.0090897980 0 0
-0.0119014670 0.0086950100 0 0
-0.0116907570 0.0081286700 0 0
-0.0114774680 0.0074810560 0 0
-0.0112530730 0.0068555120 0 0
-0.0110101660 0.0063543100 0 0
-0.0107453660 0.0060652290 0 0
-0.0104607950 0.0060513040 0 0
-0.0101640290 0.0063434340 0 0
-0.0098672910 0.0069355480 0 0
-0.0095870170 0.0077841100 0 0
-0.0093434800 0.0088131970 0 0
-0.0091585270 0.0099245030 0 0
-0.0090507150 0.0110111780 0 0
-0.0090300740 0.0119738290 0 0
-0.0090952940 0.0127348490 0 0
-0.0092339430 0.0132465770 0 0
-0.0094241900 0.0134918430 0 0
-0.0096369740 0.0134791150 0 0
-0.0098392530 0.0132350510 0 0
-0.0099990350 0.0127964770 0 0
-0.0100910920 0.0122041000 0 0
-0.0101011090 0.0114992840 0 0
-0.0100269980 0.0107230040 0 0
-0.0098779300 0.0099159570 0 0
-0.0096722400 0.0091195970 0 0
-0.0094345730 0.0083767990 0 0
-0.0091923530 0.0077301750 0 0
-0.0089719900 0.0072177470 0 0
-0.0087955300 0.0068677410 0 0
-0.0086784690 0.0066945640 0 0
-0.0086293020 0.0066966240 0 0
-0.0086504170 0.0068551240 0 0
-0.0087388710 0.0071336350 0 0
-0.0088861990 0.0074799030 0 0
-0.0090784490 0.0078305400 0 0
-0.0092981480 0.0081173270 0 0
-0.0095286620 0.0082739530 0 0
-0.0097595090 0.0082431020 0 0
-0.0099893910 0.0079838900 0 0
-0.0102242950 0.0074793320 0 0
-0.0104714500 0.0067427530 0 0
-0.0107327580 0.0058209060 0 0
-0.0110007050 0.0047917270 0 0
-0.0112579830 0.0037566730 0 0
-0.0114811450 0.0028293770 0 0
-0.0116475430 0.0021229050 0 0
-0.0117432730 0.0017373190 0 0
-0.0117690660 0.0017478730 0 0
-0.0117414910 0.0021936100 0 0
-0.0116884220 0.0030680800 0 0
-0.0116406840 0.0043160920 0 0
-0.0116239110 0.0058389860 0 0
-0.0116536050 0.0075068150 0 0
-0.0117335740 0.0091742680 0 0
-0.0118565440 0.0106983550 0 0
-0.0120062430 0.0119563890 0 0
-0.0121608150 0.0128613480 0 0
-0.0122973260 0.0133703100 0 0
-0.0123964460 0.0134834070 0 0
-0.0124456790 0.0132355670 0 0
-0.0124398280 0.0126864580 0 0
-0.0123792500 0.0119127470 0 0
-0.0122677490 0.0110029290 0 0
-0.0121107570 0.0100522740 0 0
-0.0119130640 0.0091562000 0 0
-0.0116757660 0.0084024540 0 0
-0.0113939520 0.0078628660 0 0
-0.0110578480 0.0075851550 0 0
-0.0106586650 0.0075859970 0 0
-0.0101966420 0.0078473830 0 0
-0.0096864270 0.0083177360 0 0
-0.0091566910 0.0089177330 0 0
-0.0086449120 0.0095494060 0 0
-0.0081906290 0.0101070850 0 0
-0.0078295280 0.0104897410 0 0
-0.0075884910 0.0106140550 0 0
-0.0074809990 0.0104258340 0 0
-0.0075032900 0.0099065430 0 0
-0.0076330820 0.0090733030 0 0
-0.0078327100 0.0079743360 0 0
-0.0080564310 0.0066841810 0 0
-0.0082596170 0.0053003970 0 0
-0.0084069180 0.0039390970 0 0
-0.0084768200 0.0027257120 0 0
-0.0084614300 0.0017804050 0 0
-0.0083630560 0.0012019900 0 0
-0.0081907950 0.0010554130 0 0
-0.0079590160 0.0013645530 0 0
-0.0076871070 0.0021098290 0 0
-0.0073988110 0.0032310530 0 0
-0.0071204060 0.0046361560 0 0
-0.0068779320 0.0062146420 0 0
-0.0066940760 0.0078520910 0 0
-0.0065855680 0.0094409660 0 0
-0.0065616790 0.0108857690 0 0
-0.0066238210 0.0121044470 0 0
-0.0067660160 0.0130292170 0 0
-0.0069760210 0.0136093690 0 0
-0.0072366280 0.0138162140 0 0
-0.0075268530 0.0136470410 0 0
-0.0078228390 0.0131257480 0 0
-0.0080983300 0.0123019610 0 0
-0.0083251440 0.0112500120 0 0
-0.0084750670 0.0100656160 0 0
-0.0085238460 0.0088585000 0 0
-0.0084559000 0.0077419150 0 0
-0.0082677160 0.0068204730 0 0
-0.0079692420 0.0061777920 0 0
-0.0075833490 0.0058661700 0 0
-0.0071430730 0.0059005780 0 0
-0.0066865330 0.0062582270 0 0
-0.0062505090 0.0068828450 0 0
-0.0058647360 0.0076909160 0 0
-0.0055490690 0.0085786390 0 0
-0.0053136190 0.0094311950 0 0
-0.0051600220 0.0101347430 0 0
-0.0050826350 0.0105888580 0 0
-0.0050699990 0.0107176810 0 0
-0.0051069900 0.0104796230 0 0
-0.0051770330 0.0098748830 0 0
-0.0052628510 0.0089483910 0 0
-0.0053451860 0.0077859150 0 0
-0.0054014380 0.0065036150 0 0
-0.0054071120 0.0052332090 0 0
-0.0053410690 0.0041051740 0 0
-0.0051924730 0.0032326100 0 0
-0.0049656690 0.0026980920 0 0
-0.0046805650 0.0025452220 0 0
-0.0043688000 0.0027763950 0 0
-0.0040671810 0.0033565040 0 0
-0.0038102920 0.0042195070 0 0
-0.0036248820 0.0052750150 0 0
-0.0035277350 0.0064151860 0 0
-0.0035261580 0.0075236140 0 0
-0.0036194910 0.0084866270 0 0
-0.0038011500 0.0092059690 0 0
-0.0040607500 0.0096101200 0 0
-0.0043852970 0.0096604260 0 0
-0.0047588470 0.0093507810 0 0
-0.0051611310 0.0087039070 0 0
-0.0055666130 0.0077681900 0 0
-0.0059456640 0.0066152860 0 0
-0.0062684500 0.0053354460 0 0
-0.0065100630 0.0040294410 0 0
-0.0066545660 0.0027994220 0 0
-0.0066967730 0.0017404630 0 0
-0.0066421820 0.0009324440 0 0
-0.0065055450 0.0004329350 0 0
-0.0063078890 0.0002735340 0 0
-0.0060729090 0.0004600950 0 0
-0.0058247800 0.0009743440 0 0
-0.0055877290 0.0017754360 0 0
-0.0053856920 0.0028026840 0 0
-0.0052411510 0.0039799660 0 0
-0.0051738780 0.0052202500 0 0
-0.0052001680 0.0064291780 0 0
-0.0053317020 0.0075091300 0 0
-0.0055725810 0.0083665930 0 0
-0.0059149510 0.0089239000 0 0
-0.0063358510 0.0091327690 0 0
-0.0067976130 0.0089856720 0 0
-0.0072517660 0.0085213470 0 0
-0.0076447640 0.0078213660 0 0
-0.0079241800 0.0069972280 0 0
-0.0080452290 0.0061718380 0 0
-0.0079777940 0.0054610990 0 0
-0.0077126690 0.0049589850 0 0
-0.0072647380 0.0047267680 0 0
-0.0066714160 0.0047873440 0 0
-0.0059863950 0.0051260230 0 0
-0.0052704010 0.0056969460 0 0
-0.0045816410 0.0064317850 0 0
-0.0039686530 0.0072481870 0 0
-0.0034668280 0.0080581990 0 0
-0.0030980280 0.0087772360 0 0
-0.0028721160 0.0093325900 0 0
-0.0027896270 0.0096704970 0 0
-0.0028447050 0.0097617800 0 0
-0.0030272490 0.0096058290 0 0
-0.0033238600 0.0092315050 0 0
-0.0037180210 0.0086938380 0 0
-0.0041904400 0.0080676060 0 0
-0.0047203850 0.0074394790 0 0
-0.0052878030 0.0068983170 0 0
-0.0058747660 0.0065238780 0 0
-0.0064656350 0.0063767620 0 0
-0.0070469620 0.0064917270 0 0
-0.0076082740 0.0068756730 0 0
-0.0081436780 0.0075111580 0 0
-0.0086526560 0.0083623510 0 0
-0.0091380050 0.0093781040 0 0
-0.0096013340 0.0104913650 0 0
-0.0100395030 0.0116187360 0 0
-0.0104445370 0.0126634330 0 0
-0.0108060190 0.0135230950 0 0
-0.0111135930 0.0141031110 0 0
-0.0113588170 0.0143332300 0 0
-0.0115365260 0.0141811110 0 0
-0.0116452320 0.0136559750 0 0
-0.0116859740 0.0128009350 0 0
-0.0116597960 0.0116795990 0 0
-0.0115649860 0.0103647880 0 0
-0.0113955230 0.0089330000 0 0
-0.0111414050 0.0074629830 0 0
-0.0107902870 0.0060357630 0 0
-0.0103298370 0.0047344820 0 0
-0.0097506150 0.0036420740 0 0
-0.0090490950 0.0028353040 0 0
-0.0082299080 0.0023761070 0 0
-0.0073070590 0.0023026210 0 0
-0.0063049950 0.0026216100 0 0
-0.0052599290 0.0033027170 0 0
-0.0042200240 0.0042751430 0 0
-0.0032423170 0.0054291720 0 0
-0.0023858830 0.0066252560 0 0
-0.0017026310 0.0077099670 0 0
-0.0012277780 0.0085344430 0 0
-0.0009724300 0.0089720080 0 0
-0.0009214500 0.0089346290 0 0
-0.0010388200 0.0083867350 0 0
-0.0012785480 0.0073523660 0 0
-0.0015954400 0.0059130630 0 0
-0.0019512180 0.0041970300 0 0
-0.0023157970 0.0023620310 0 0
-0.0026661030 0.0005759370 0 0
-0.0029841140 -0.0010017020 0 0
-0.0032547880 -0.0022355140 0 0
-0.0034650060 -0.0030265780 0 0
-0.0036045650 -0.0033202280 0 0
-0.0036687730 -0.0031093140 0 0
-0.0036613400 -0.0024331890 0 0
-0.0035962050 -0.0013726080 0 0
-0.0034970070 -0.0000411275 0 0
-0.0033937110 0.0014262090 0 0
-0.0033173210 0.0028861210 0 0
-0.0032944000 0.0042013810 0 0
-0.0033429380 0.0052547680 0 0
-0.0034701230 0.0059612760 0 0
-0.0036712320 0.0062776340 0 0
-0.0039288940 0.0062070840 0 0
-0.0042136930 0.0057969400 0 0
-0.0044878390 0.0051297700 0 0
-0.0047120210 0.0043116530 0 0
-0.0048536060 0.0034593860 0 0
-0.0048935970 0.0026869840 0 0
-0.0048297940 0.0020923700 0 0
-0.0046747080 0.0017460460 0 0
-0.0044492790 0.0016844920 0 0
-0.0041754220 0.0019103950 0 0
-0.0038707130 0.0023979560 0 0
-0.0035470660 0.0030987870 0 0
-0.0032129170 0.0039466190 0 0
-0.0028767910 0.0048629550 0 0
-0.0025499090 0.0057653250 0 0
-0.0022465930 0.0065764390 0 0
-0.0019827520 0.0072309970 0 0
-0.0017736570 0.0076783800 0 0
-0.0016317070 0.0078824330 0 0
-0.0015641130 0.0078210770 0 0
-0.0015706620 0.0074874640 0 0
-0.0016425850 0.0068925940 0 0
-0.0017641980 0.0060683550 0 0
-0.0019176590 0.0050691830 0 0
-0.0020883480 0.0039699800 0 0
-0.0022675930 0.0028595510 0 0
-0.0024517610 0.0018314880 0 0
-0.0026390690 0.0009746680 0 0
-0.0028263050 0.0003636880 0 0
-0.0030074150 0.0000493504 0 0
-0.0031746460 0.0000512511 0 0
-0.0033211680 0.0003551140 0 0
-0.0034432430 0.0009157240 0 0
-0.0035412560 0.0016645380 0 0
-0.0036198820 0.0025197910 0 0
-0.0036871460 0.0033959310 0 0
-0.0037518960 0.0042102130 0 0
-0.0038199930 0.0048875880 0 0
-0.0038902440 0.0053669440 0 0
-0.0039520750 0.0056090430 0 0
-0.0039869620 0.0056024640 0 0
-0.0039731770 0.0053636420 0 0
-0.0038914410 0.0049307300 0 0
-0.0037299050 0.0043550540 0 0
-0.0034878010 0.0036945410 0 0
-0.0031773140 0.0030102260 0 0
-0.0028236610 0.0023641860 0 0
-0.0024632690 0.0018177940 0 0
-0.0021393480 0.0014294750 0 0
-0.0018950360 0.0012501420 0 0
-0.0017657660 0.0013154850 0 0
-0.0017731960 0.0016367120 0 0
-0.0019225080 0.0021925440 0 0
-0.0022034360 0.0029259550 0 0
-0.0025938500 0.0037489120 0 0
-0.0030642810 0.0045551110 0 0
-0.0035822010 0.0052367480 0 0
-0.0041154230 0.0057004380 0 0
-0.0046343160 0.0058792540 0 0
-0.0051127120 0.0057401390 0 0
-0.0055275750 0.0052874190 0 0
-0.0058579780 0.0045630250 0 0
-0.0060848390 0.0036427440 0 0
-0.0061927960 0.0026271120 0 0
-0.0061734590 0.0016271140 0 0
-0.0060275620 0.0007477980 0 0
-0.0057648860 0.0000752954 0 0
-0.0054028100 -0.0003285910 0 0
-0.0049641330 -0.0004259220 0 0
-0.0044747160 -0.0002017670 0 0
-0.0039622070 0.0003341360 0 0
-0.0034559060 0.0011453310 0 0
-0.0029860650 0.0021700260 0 0
-0.0025807720 0.0033278970 0 0
-0.0022605570 0.0045310040 0 0
-0.0020333560 0.0056944890 0 0
-0.0018929440 0.0067428550 0 0
-0.0018217470 0.0076118960 0 0
-0.0017964020 0.0082498620 0 0
-0.0017935610 0.0086199490 0 0
-0.0017941600 0.0087028280 0 0
-0.0017856680 0.0084979910 0 0
-0.0017630700 0.0080243320 0 0
-0.0017288470 0.0073192240 0 0
-0.0016912300 0.0064345120 0 0
-0.0016608160 0.0054303440 0 0
-0.0016471780 0.0043706240 0 0
-0.0016568960 0.0033225120 0 0
-0.0016930680 0.0023568770 0 0
-0.0017557240 0.0015446370 0 0
-0.0018425240 0.0009490280 0 0
-0.0019491220 0.0006176170 0 0
-0.0020694670 0.0005761740 0 0
-0.0021972570 0.0008246250 0 0
-0.0023286190 0.0013349640 0 0
-0.0024640150 0.0020509360 0 0
-0.0026074240 0.0028902720 0 0
-0.0027632750 0.0037515540 0 0
-0.0029331170 0.0045264390 0 0
-0.0031134870 0.0051149930 0 0
-0.0032958410 0.0054401170 0 0
-0.0034689810 0.0054577620 0 0
-0.0036228550 0.0051619780 0 0
-0.0037513720 0.0045860290 0 0
-0.0038529930 0.0038010030 0 0
-0.0039299930 0.0029108790 0 0
-0.0039877530 0.0020416780 0 0
-0.0040343790 0.0013249880 0 0
-0.0040800970 0.0008787690 0 0
-0.0041360530 0.0007878920 0 0
-0.0042126450 0.0010873850 0 0
-0.0043175990 0.0017531820 0 0
-0.0044538410 0.0027038260 0 0
-0.0046174400 0.0038125720 0 0
-0.0047965970 0.0049271180 0 0
-0.0049727620 0.0058933680 0 0
-0.0051238070 0.0065782060 0 0
-0.0052279810 0.0068860420 0 0
-0.0052671660 0.0067666370 0 0
-0.0052285960 0.0062155190 0 0
-0.0051056710 0.0052695660 0 0
-0.0048986790 0.0039994380 0 0
-0.0046151900 0.0025002020 0 0
-0.0042698770 0.0008812090 0 0
-0.0038838340 -0.0007439720 0 0
-0.0034826150 -0.0022666540 0 0
-0.0030927030 -0.0035904050 0 0
-0.0027381070 -0.0046362550 0 0
-0.0024383940 -0.0053460580 0 0
-0.0022076280 -0.0056855420 0 0
-0.0020538930 -0.0056480840 0 0
-0.0019796140 -0.0052581080 0 0
-0.0019822890 -0.0045725240 0 0
-0.0020551980 -0.0036785020 0 0
-0.0021882400 -0.0026853980 0 0
-0.0023690200 -0.0017107240 0 0
-0.0025841550 -0.0008639700 0 0
-0.0028207850 -0.0002328800 0 0
-0.0030676110 0.0001252370 0 0
-0.0033145300 0.0001867910 0 0
-0.0035511260 -0.0000393910 0 0
-0.0037657160 -0.0005165140 0 0
-0.0039464690 -0.0011860230 0 0
-0.0040842580 -0.0019742960 0 0
-0.0041755710 -0.0027992180 0 0
-0.0042241340 -0.0035771400 0 0
-0.0042407780 -0.0042305300 0 0
-0.0042415930 -0.0046949390 0 0
-0.0042448870 -0.0049239480 0 0
-0.0042676630 -0.0048920440 0 0
-0.0043223960 -0.0045952070 0 0
-0.0044150860 -0.0040501270 0 0
-0.0045454650 -0.0032942920 0 0
-0.0047094220 -0.0023863400 0 0
-0.0049024880 -0.0014036210 0 0
-0.0051224150 -0.0004353080 0 0
-0.0053695550 0.0004289160 0 0
-0.0056455350 0.0011124670 0 0
-0.0059516860 0.0015626700 0 0
-0.0062878040 0.0017554750 0 0
-0.0066505410 0.0016953300 0 0
-0.0070311010 0.0014113610 0 0
-0.0074133970 0.0009499000 0 0
-0.0077740970 0.0003668030 0 0
-0.0080850880 -0.0002762650 0 0
-0.0083182210 -0.0009130650 0 0
-0.0084514080 -0.0014756840 0 0
-0.0084736260 -0.0019000480 0 0
-0.0083865410 -0.0021330300 0 0
-0.0082027670 -0.0021401090 0 0
-0.0079423500 -0.0019112220 0 0
-0.0076287530 -0.0014624620 0 0
-0.0072847720 -0.0008344680 0 0
-0.0069287980 -0.0000895568 0 0
-0.0065725950 0.0006923550 0 0
-0.0062218070 0.0014198710 0 0
-0.0058788520 0.0019985510 0 0
-0.0055461900 0.0023422670 0 0
-0.0052280740 0.0023869390 0 0
-0.0049304420 0.0021023130 0 0
-0.0046597600 0.0014963480 0 0
-0.0044221190 0.0006110260 0 0
-0.0042233960 -0.0004866540 0 0
-0.0040699590 -0.0017134690 0 0
-0.0039686060 -0.0029762920 0 0
-0.0039249450 -0.0041776210 0 0
-0.0039404320 -0.0052228780 0 0
-0.0040093710 -0.0060292460 0 0
-0.0041179580 -0.0065336690 0 0
-0.0042466840 -0.0066975920 0 0
-0.0043748810 -0.0065076160 0 0
-0.0044845420 -0.0059739560 0 0
-0.0045620780 -0.0051296300 0 0
-0.0045994160 -0.0040307330 0 0
-0.0045958250 -0.0027556840 0 0
-0.0045595760 -0.0014017360 0 0
-0.0045074090 -0.0000782061 0 0
-0.0044610880 0.0011038420 0 0
-0.0044420770 0.0020446940 0 0
-0.0044658740 0.0026689140 0 0
-0.0045375230 0.0029343030 0 0
-0.0046500560 0.0028345280 0 0
-0.0047869830 0.0023955760 0 0
-0.0049282260 0.0016686430 0 0
-0.0050574890 0.0007228380 0 0
-0.0051678100 -0.0003607890 0 0
-0.0052622580 -0.0014946510 0 0
-0.0053497520 -0.0025901670 0 0
-0.0054392060 -0.0035630630 0 0
-0.0055356500 -0.0043384900 0 0
-0.0056398550 -0.0048567990 0 0
-0.0057500510 -0.0050799280 0 0
-0.0058629180 -0.0049968940 0 0
-0.0059725240 -0.0046270190 0 0
-0.0060686250 -0.0040199690 0 0
-0.0061363390 -0.0032516840 0 0
-0.0061576860 -0.0024157070 0 0
-0.0061142940 -0.0016110790 0 0
-0.0059905290 -0.0009294550 0 0
-0.0057766880 -0.0004442270 0 0
-0.0054721840 -0.0002036080 0 0
-0.0050875430 -0.0002280200 0 0
-0.0046429990 -0.0005099870 0 0
-0.0041633630 -0.0010138960 0 0
-0.0036718660 -0.0016753840 0 0
-0.0031859870 -0.0024044700 0 0
-0.0027164170 -0.0030971790 0 0
-0.0022692150 -0.0036541540 0 0
-0.0018501620 -0.0039982200 0 0
-0.0014687190 -0.0040841630 0 0
-0.0011389610 -0.0039005900 0 0
-0.0008772040 -0.0034677370 0 0
-0.0006980060 -0.0028339120 0 0
-0.0006101690 -0.0020702680 0 0
-0.0006135680 -0.0012630170 0 0
-0.0006978250 -0.0005036480 0 0
-0.0008441930 0.0001216490 0 0
-0.0010308280 0.0005422010 0 0
-0.0012390630 0.0007111440 0 0
-0.0014570630 0.0006103270 0 0
-0.0016793720 0.0002511800 0 0
-0.0019039150 -0.0003285000 0 0
-0.0021288070 -0.0010713500 0 0
-0.0023499600 -0.0019096830 0 0
-0.0025591050 -0.0027751480 0 0
-0.0027428110 -0.0036062390 0 0
-0.0028844270 -0.0043520210 0 0
-0.0029696060 -0.0049724960 0 0
-0.0029927970 -0.0054373260 0 0
-0.0029606460 -0.0057250830 0 0
-0.0028902760 -0.0058244230 0 0
-0.0028040040 -0.0057365620 0 0
-0.0027235780 -0.0054774730 0 0
-0.0026658720 -0.0050792160 0 0
-0.0026408300 -0.0045900910 0 0
-0.0026521770 -0.0040717460 0 0
-0.0027001460 -0.0035919550 0 0
-0.0027837170 -0.0032152860 0 0
-0.0029003130 -0.0029947860 0 0
-0.0030434800 -0.0029654950 0 0
-0.0032004860 -0.0031401070 0 0
-0.0033514940 -0.0035082480 0 0
-0.0034716030 -0.0040395430 0 0
-0.0035357530 -0.0046884890 0 0
-0.0035240760 -0.0053992010 0 0
-0.0034246610 -0.0061097000 0 0
-0.0032328960 -0.0067559690 0 0
-0.0029489960 -0.0072753800 0 0
-0.0025759790 -0.0076099550 0 0
-0.0021195310 -0.0077114430 0 0
-0.0015899040 -0.0075482830 0 0
-0.0010049150 -0.0071116610 0 0
-0.0003921420 -0.0064183310 0 0
0.0002127230 -0.0055095050 0 0
0.0007730760 -0.0044465680 0 0
0.0012612210 -0.0033054760 0 0
0.0016647870 -0.0021712610 0 0
0.0019865130 -0.0011325490 0 0
0.0022390410 -0.0002752980 0 0
0.0024377320 0.0003247540 0 0
0.0025937140 0.0006107520 0 0
0.0027092370 0.0005532390 0 0
0.0027770820 0.0001558340 0 0
0.0027838590 -0.0005447150 0 0
0.0027151110 -0.0014839260 0 0
0.0025600530 -0.0025774520 0 0
0.0023145920 -0.0037298650 0 0
0.0019825210 -0.0048452140 0 0
0.0015762270 -0.0058381780 0 0
0.0011179340 -0.0066421010 0 0
0.0006398880 -0.0072123950 0 0
0.0001806260 -0.0075273420 0 0
-0.0002232430 -0.0075882210 0 0
-0.0005468600 -0.0074187450 0 0
-0.0007838410 -0.0070629410 0 0
-0.0009464110 -0.0065809540 0 0
-0.0010589030 -0.0060431800 0 0
-0.0011477090 -0.0055239640 0 0
-0.0012321420 -0.0050959010 0 0
-0.0013200310 -0.0048238660 0 0
-0.0014091850 -0.0047569450 0 0
-0.0014921430 -0.0049191430 0 0
-0.0015602290 -0.0053026970 0 0
-0.0016051960 -0.0058669660 0 0
-0.0016196580 -0.0065433400 0 0
-0.0015980870 -0.0072446040 0 0
-0.0015387720 -0.0078752690 0 0
-0.0014457010 -0.0083403680 0 0
-0.0013288680 -0.0085539540 0 0
-0.0012019470 -0.0084490330 0 0
-0.0010774850 -0.0079874230 0 0
-0.0009620580 -0.0071670700 0 0
-0.0008549000 -0.0060263150 0 0
-0.0007512880 -0.0046447330 0 0
-0.0006483550 -0.0031385380 0 0
-0.0005497070 -0.0016495240 0 0
-0.0004664850 -0.0003292370 0 0
-0.0004145220 0.0006791450 0 0
-0.0004091140 0.0012592650 0 0
-0.0004602260 0.0013376350 0 0
-0.0005702980 0.0008941620 0 0
-0.0007345170 -0.0000342454 0 0
-0.0009423720 -0.0013572850 0 0
-0.0011801320 -0.0029424680 0 0
-0.0014340600 -0.0046325740 0 0
-0.0016926790 -0.0062653320 0 0
-0.0019459310 -0.0076913830 0 0
-0.0021816110 -0.0087888070 0 0
-0.0023824570 -0.0094738420 0 0
-0.0025270430 -0.0097072450 0 0
-0.0025943230 -0.0094955960 0 0
-0.0025695470 -0.0088877790 0 0
-0.0024494400 -0.0079677250 0 0
-0.0022453360 -0.0068441920 0 0
-0.0019829370 -0.0056381340 0 0
-0.0016973920 -0.0044690550 0 0
-0.0014245040 -0.0034427690 0 0
-0.0011919200 -0.0026427770 0 0
-0.0010142280 -0.0021254250 0 0
-0.0008928550 -0.0019175890 0 0
-0.0008192810 -0.0020167150 0 0
-0.0007798010 -0.0023941510 0 0
-0.0007603460 -0.0030011330 0 0
-0.0007503960 -0.0037748350 0 0
-0.0007457420 -0.0046427670 0 0
-0.0007497390 -0.0055260820 0 0
-0.0007725200 -0.0063431790 0 0
-0.0008288650 -0.0070138710 0 0
-0.0009358620 -0.0074633430 0 0
-0.0011104000 -0.0076260520 0 0
-0.0013661140 -0.0074512050 0 0
-0.0017098150 -0.0069104410 0 0
-0.0021381110 -0.0060062120 0 0
-0.0026359200 -0.0047789210 0 0
-0.0031786610 -0.0033109520 0 0
-0.0037380550 -0.0017252870 0 0
-0.0042890010 -0.0001771740 0 0
-0.0048142570 0.0011614580 0 0
-0.0053052940 0.0021241690 0 0
-0.0057598780 0.0025759500 0 0
-0.0061779530 0.0024364050 0 0
-0.0065572280 0.0016927230 0 0
-0.0068900800 0.0003998630 0 0
-0.0071633950 -0.0013290170 0 0
-0.0073611220 -0.0033380140 0 0
-0.0074668600 -0.0054472300 0 0
-0.0074644570 -0.0074725100 0 0
-0.0073378850 -0.0092442100 0 0
-0.0070729290 -0.0106235480 0 0
-0.0066617810 -0.0115148390 0 0
-0.0061096790 -0.0118722140 0 0
-0.0054408640 -0.0117006910 0 0
-0.0046998550 -0.0110521670 0 0
-0.0039453100 -0.0100164850 0 0
-0.0032379620 -0.0087089940 0 0
-0.0026278770 -0.0072578390 0 0
-0.0021456090 -0.0057927900 0 0
-0.0017984250 -0.0044345960 0 0
-0.0015711770 -0.0032838530 0 0
-0.0014319410 -0.0024103910 0 0
-0.0013413880 -0.0018460750 0 0
-0.0012624830 -0.0015832160 0 0
-0.0011674840 -0.0015777750 0 0
-0.0010418820 -0.0017566720 0 0
-0.0008858980 -0.0020303140 0 0
-0.0007131130 -0.0023087250 0 0
-0.0005459720 -0.0025154720 0 0
-0.0004096600 -0.0025949140 0 0
-0.0003264030 -0.0025134460 0 0
-0.0003110260 -0.0022576850 0 0
-0.0003688660 -0.0018310660 0 0
-0.0004973010 -0.0012496290 0 0
-0.0006894680 -0.0005390750 0 0
-0.0009367140 0.0002653580 0 0
-0.0012284330 0.0011178040 0 0
-0.0015509910 0.0019614660 0 0
-0.0018878420 0.0027289130 0 0
-0.0022212080 0.0033435990 0 0
-0.0025342190 0.0037255100 0 0
-0.0028123810 0.0038025210 0 0
-0.0030439730 0.0035252060 0 0
-0.0032192710 0.0028796570 0 0
-0.0033291490 0.0018927950 0 0
-0.0033645720 0.0006290770 0 0
-0.0033180000 -0.0008178830 0 0
-0.0031862430 -0.0023357190 0 0
-0.0029733730 -0.0038053390 0 0
-0.0026919270 -0.0051139420 0 0
-0.0023614480 -0.0061666160 0 0
-0.0020050310 -0.0068941990 0 0
-0.0016450590 -0.0072567800 0 0
-0.0012990600 -0.0072440940 0 0
-0.0009770660 -0.0068750420 0 0
-0.0006817140 -0.0061967550 0 0
-0.0004106070 -0.0052808600 0 0
-0.0001591540 -0.0042157630 0 0
0.0000773236 -0.0030971090 0 0
0.0003021050 -0.0020191180 0 0
0.0005155630 -0.0010674560 0 0
0.0007136810 -0.0003131730 0 0
0.0008882220 0.0001926200 0 0
0.0010303090 0.0004230840 0 0
0.0011366960 0.0003783740 0 0
0.0012144080 0.0000860125 0 0
0.0012791000 -0.0004017360 0 0
0.0013476220 -0.0010135160 0 0
0.0014303060 -0.0016665090 0 0
0.0015273160 -0.0022749490 0 0
0.0016287890 -0.0027592890 0 0
0.0017171270 -0.0030551980 0 0
0.0017711460 -0.0031201100 0 0
0.0017714260 -0.0029359400 0 0
0.0017051550 -0.0025100240 0 0
0.0015691530 -0.0018767860 0 0
0.0013703590 -0.0010985980 0 0
0.0011230470 -0.0002617930 0 0
0.0008435520 0.0005337460 0 0
0.0005452340 0.0011889940 0 0
0.0002360930 0.0016204120 0 0
-0.0000805621 0.0017716270 0 0
-0.0004033510 0.0016201360 0 0
-0.0007293370 0.0011787860 0 0
-0.0010511960 0.0004935490 0 0
-0.0013559490 -0.0003612310 0 0
-0.0016254330 -0.0012906640 0 0
-0.0018385000 -0.0021909220 0 0
-0.0019749480 -0.0029630030 0 0
-0.0020203080 -0.0035252450 0 0
-0.0019695260 -0.0038220790 0 0
-0.0018280610 -0.0038288850 0 0
-0.0016103570 -0.0035536730 0 0
-0.0013369190 -0.0030356080 0 0
-0.0010314970 -0.0023403190 0 0
-0.0007191900 -0.0015523580 0 0
-0.0004250200 -0.0007653040 0 0
-0.0001719060 -0.0000705872 0 0
0.0000220423 0.0004530200 0 0
0.0001454320 0.0007473310 0 0
0.0001934200 0.0007789470 0 0
0.0001658740 0.0005392560 0 0
0.0000652463 0.0000412033 0 0
-0.0001044180 -0.0006845670 0 0
-0.0003367870 -0.0015918800 0 0
-0.0006216670 -0.0026194680 0 0
-0.0009439180 -0.0036919430 0 0
-0.0012837520 -0.0047242340 0 0
-0.0016182810 -0.0056302150 0 0
-0.0019236750 -0.0063330970 0 0
-0.0021778460 -0.0067744940 0 0
-0.0023641340 -0.0069200490 0 0
-0.0024758480 -0.0067597140 0 0
-0.0025198660 -0.0063033710 0 0
-0.0025168580 -0.0055765650 0 0
-0.0024974720 -0.0046199500 0 0
-0.0024963150 -0.0034911790 0 0
-0.0025458060 -0.0022662360 0 0
-0.0026707780 -0.0010379280 0 0
-0.0028843910 0.0000904082 0 0
-0.0031861690 0.0010165800 0 0
-0.0035624980 0.0016540950 0 0
-0.0039887300 0.0019449900 0 0
-0.0044315870 0.0018670460 0 0
-0.0048518840 0.0014348350 0 0
-0.0052092070 0.0006970750 0 0
-0.0054690560 -0.0002678970 0 0
-0.0056099640 -0.0013589130 0 0
-0.0056270690 -0.0024614530 0 0
-0.0055311940 -0.0034591520 0 0
-0.0053455570 -0.0042460650 0 0
-0.0051021530 -0.0047379450 0 0
-0.0048379210 -0.0048810720 0 0
-0.0045901170 -0.0046585020 0 0
-0.0043909050 -0.0040940650 0 0
-0.0042621170 -0.0032526890 0 0
-0.0042121260 -0.0022343860 0 0
-0.0042368120 -0.0011610830 0 0
-0.0043243540 -0.0001591220 0 0
-0.0044609500 0.0006579020 0 0
-0.0046344460 0.0012023030 0 0
-0.0048352790 0.0014200620 0 0
-0.0050560990 0.0012934780 0 0
-0.0052912500 0.0008394970 0 0
-0.0055357850 0.0001050570 0 0
-0.0057834050 -0.0008383840 0 0
-0.0060238730 -0.0018996260 0 0
-0.0062416660 -0.0029730800 0 0
-0.0064173940 -0.0039467570 0 0
-0.0065317370 -0.0047123390 0 0
-0.0065703810 -0.0051753470 0 0
-0.0065281690 -0.0052650330 0 0
-0.0064105870 -0.0049438730 0 0
-0.0062321600 -0.0042149060 0 0
-0.0060136340 -0.0031245360 0 0
-0.0057794200 -0.0017596590 0 0
-0.0055548250 -0.0002397500 0 0
-0.0053626060 0.0012950730 0 0
-0.0052198580 0.0026992390 0 0
-0.0051363320 0.0038382130 0 0
-0.0051142450 0.0046034310 0 0
-0.0051491020 0.0049238420 0 0
-0.0052309870 0.0047733090 0 0
-0.0053452220 0.0041733130 0 0
-0.0054716250 0.0031907160 0 0
-0.0055836360 0.0019304010 0 0
-0.0056497910 0.0005227710 0 0
-0.0056383160 -0.0008926510 0 0
-0.0055234560 -0.0021846580 0 0
-0.0052915490 -0.0032456680 0 0
-0.0049450810 -0.0040024000 0 0
-0.0045034360 -0.0044202690 0 0
-0.0040000490 -0.0045014280 0 0
-0.0034765650 -0.0042783510 0 0
-0.0029754630 -0.0038057650 0 0
-0.0025333200 -0.0031529860 0 0
-0.0021766810 -0.0023974090 0 0
-0.0019209200 -0.0016188750 0 0
-0.0017713570 -0.0008942960 0 0
-0.0017255290 -0.0002923640 0 0
-0.0017753310 0.0001317830 0 0
-0.0019080070 0.0003421030 0 0
-0.0021060980 0.0003259560 0 0
-0.0023470840 0.0000946767 0 0
-0.0026036970 -0.0003191180 0 0
-0.0028458220 -0.0008641350 0 0
-0.0030440220 -0.0014721500 0 0
-0.0031737420 -0.0020627390 0 0
-0.0032188530 -0.0025538640 0 0
-0.0031735260 -0.0028757740 0 0
-0.0030425800 -0.0029829100 0 0
-0.0028410050 -0.0028598120 0 0
-0.0025925070 -0.0025193700 0 0
-0.0023267380 -0.0019946120 0 0
-0.0020755010 -0.0013285380 0 0
-0.0018679860 -0.0005671670 0 0
-0.0017252460 0.0002422490 0 0
-0.0016555330 0.0010497910 0 0
-0.0016529130 0.0018016110 0 0
-0.0017002210 0.0024405710 0 0
-0.0017749030 0.0029085590 0 0
-0.0018545770 0.0031506990 0 0
-0.0019199510 0.0031223790 0 0
-0.0019554230 0.0027985580 0 0
-0.0019492580 0.0021818000 0 0
-0.0018942010 0.0013051570 0 0
-0.0017879270 0.0002293690 0 0
-0.0016330010 -0.0009633760 0 0
-0.0014366170 -0.0021774400 0 0
-0.0012095670 -0.0033129870 0 0
-0.0009633630 -0.0042754800 0 0
-0.0007063940 -0.0049840250 0 0
-0.0004418730 -0.0053790640 0 0
-0.0001690640 -0.0054303280 0 0
0.0001136120 -0.0051422840 0 0
0.0004061530 -0.0045530210 0 0
0.0007072280 -0.0037271050 0 0
0.0010172680 -0.0027464150 0 0
0.0013417280 -0.0017013300 0 0
0.0016906240 -0.0006823550 0 0
0.0020729490 0.0002280480 0 0
0.0024890880 0.0009639150 0 0
0.0029261100 0.0014849890 0 0
0.0033585250 0.0017843850 0 0
0.0037537900 0.0018895630 0 0
0.0040801550 0.0018542510 0 0
0.0043141800 0.0017453230 0 0
0.0044456440 0.0016304150 0 0
0.0044781930 0.0015685420 0 0
0.0044258420 0.0016030120 0 0
0.0043074110 0.0017557740 0 0
0.0041409390 0.0020237270 0 0
0.0039397160 0.0023784480 0 0
0.0037119010 0.0027700830 0 0
0.0034637880 0.0031346890 0 0
0.0032035910 0.0034037600 0 0
0.0029425000 0.0035146980 0 0
0.0026928330 0.0034209530 0 0
0.0024654440 0.0031000640 0 0
0.0022682330 0.0025572990 0 0
0.0021060240 0.0018235300 0 0
0.0019810140 0.0009483850 0 0
0.0018931930 -0.0000087483 0 0
0.0018409040 -0.0009874460 0 0
0.0018212990 -0.0019330070 0 0
0.0018295600 -0.0028001990 0 0
0.0018570650 -0.0035536870 0 0
0.0018910580 -0.0041661180 0 0
0.0019175420 -0.0046157560 0 0
0.0019255720 -0.0048848080 0 0
0.0019096100 -0.0049584600 0 0
0.0018688480 -0.0048250750 0 0
0.0018050810 -0.0044789170 0 0
0.0017210610 -0.0039253980 0 0
0.0016198880 -0.0031863920 0 0
0.0015050030 -0.0023027040 0 0
0.0013800330 -0.0013322370 0 0
0.0012478910 -0.0003443220 0 0
0.0011093230 0.0005875310 0 0
0.0009619350 0.0013925010 0 0
0.0008006360 0.0020090050 0 0
0.0006196940 0.0023918130 0 0
0.0004153890 0.0025192990 0 0
0.0001880350 0.0023987140 0 0
-0.0000570618 0.0020670370 0 0
-0.0003097240 0.0015855260 0 0
-0.0005559590 0.0010278200 0 0
-0.0007793540 0.0004656620 0 0
-0.0009626670 -0.0000412948 0 0
-0.0010904520 -0.0004489090 0 0
-0.0011530550 -0.0007276220 0 0
-0.0011504910 -0.0008599400 0 0
-0.0010937400 -0.0008376350 0 0
-0.0010027120 -0.0006608530 0 0
-0.0009024020 -0.0003409300 0 0
-0.0008186530 0.0000954102 0 0
-0.0007736840 0.0006044840 0 0
-0.0007822710 0.0011279210 0 0
-0.0008505300 0.0015984620 0 0
-0.0009775450 0.0019487770 0 0
-0.0011579380 0.0021212380 0 0
-0.0013838530 0.0020760440 0 0
-0.0016460960 0.0017967000 0 0
-0.0019342470 0.0012929890 0 0
-0.0022356650 0.0006013100 0 0
-0.0025346780 -0.0002179410 0 0
-0.0028137110 -0.0010857840 0 0
-0.0030562500 -0.0019126210 0 0
-0.0032496300 -0.0026089010 0 0
-0.0033859790 -0.0030976510 0 0
-0.0034614500 -0.0033257590 0 0
-0.0034757340 -0.0032703840 0 0
-0.0034334040 -0.0029393690 0 0
-0.0033459520 -0.0023672520 0 0
-0.0032319290 -0.0016091660 0 0
-0.0031138110 -0.0007336760 0 0
-0.0030127080 0.0001850180 0 0
-0.0029435670 0.0010739190 0 0
-0.0029129120 0.0018653910 0 0
-0.0029189480 0.0024990750 0 0
-0.0029523930 0.0029233570 0 0
-0.0029971040 0.0030977720 0 0
-0.0030311970 0.0029973880 0 0
-0.0030297440 0.0026192430 0 0
-0.0029690860 0.0019883120 0 0
-0.0028319320 0.0011592020 0 0
-0.0026119300 0.0002121380 0 0
-0.0023156990 -0.0007552550 0 0
-0.0019608470 -0.0016390610 0 0
-0.0015712860 -0.0023423550 0 0
-0.0011725030 -0.0027876630 0 0
-0.0007875860 -0.0029252380 0 0
-0.0004331440 -0.0027375540 0 0
-0.0001159630 -0.0022421920 0 0
0.0001670120 -0.0014925690 0 0
0.0004244240 -0.0005734930 0 0
0.0006645350 0.0004096680 0 0
0.0008911150 0.0013456140 0 0
0.0011026040 0.0021316550 0 0
0.0012934240 0.0026860970 0 0
0.0014559190 0.0029580050 0 0
0.0015819150 0.0029330970 0 0
0.0016632040 0.0026340590 0 0
0.0016914140 0.0021158750 0 0
0.0016588670 0.0014581640 0 0
0.0015609500 0.0007554680 0 0
0.0013987750 0.0001063260 0 0
0.0011808630 -0.0003973820 0 0
0.0009233610 -0.0006801620 0 0
0.0006484860 -0.0006907180 0 0
0.0003812260 -0.0004057310 0 0
0.0001452410 0.0001704810 0 0
-0.0000403571 0.0010077940 0 0
-0.0001621330 0.0020522740 0 0
-0.0002117830 0.0032295640 0 0
-0.0001858700 0.0044504250 0 0
-0.0000873096 0.0056176480 0 0
0.0000720297 0.0066337380 0 0
0.0002698350 0.0074093170 0 0
0.0004747280 0.0078719730 0 0
0.0006511150 0.0079747260 0 0
0.0007668910 0.0077024300 0 0
0.0008018090 0.0070738460 0 0
0.0007534310 0.0061379400 0 0
0.0006382910 0.0049654860 0 0
0.0004873000 0.0036395370 0 0
0.0003365310 0.0022481360 0 0
0.0002170640 0.0008799270 0 0
0.0001478120 -0.0003786500 0 0
0.0001328600 -0.0014461060 0 0
0.0001625910 -0.0022500210 0 0
0.0002172300 -0.0027337600 0 0
0.0002717040 -0.0028653500 0 0
0.0003004980 -0.0026454440 0 0
0.0002809480 -0.0021105520 0 0
0.0001946030 -0.0013300310 0 0
0.0000278492 -0.0003979480 0 0
-0.0002267320 0.0005781180 0 0
-0.0005679980 0.0014896010 0 0
-0.0009843010 0.0022391190 0 0
-0.0014538620 0.0027505610 0 0
-0.0019482880 0.0029756700 0 0
-0.0024381670 0.0028965910 0 0
-0.0028982100 0.0025257840 0 0
-0.0033094680 0.0019059030 0 0
-0.0036582470 0.0011097810 0 0
-0.0039335460 0.0002375030 0 0
-0.0041251070 -0.0005919200 0 0
-0.0042227230 -0.0012534000 0 0
-0.0042163440 -0.0016306680 0 0
-0.0040965410 -0.0016321370 0 0
-0.0038552790 -0.0012067050 0 0
-0.0034876270 -0.0003557180 0 0
-0.0029952450 0.0008635400 0 0
-0.0023905060 0.0023446730 0 0
-0.0016979580 0.0039474910 0 0
-0.0009508230 0.0055177330 0 0
-0.0001840120 0.0069066610 0 0
0.0005721450 0.0079871020 0 0
0.0012944970 0.0086645330 0 0
0.0019665630 0.0088832050 0 0
0.0025770050 0.0086283090 0 0
0.0031183120 0.0079258670 0 0
0.0035860330 0.0068411720 0 0
0.0039788450 0.0054745540 0 0
0.0042994240 0.0039527640 0 0
0.0045552900 0.0024161940 0 0
0.0047583210 0.0010039170 0 0
0.0049224630 -0.0001614670 0 0
0.0050604200 -0.0009867080 0 0
0.0051802080 -0.0014153480 0 0
0.0052821080 -0.0014290460 0 0
0.0053572100 -0.0010449800 0 0
0.0053890810 -0.0003109880 0 0
0.0053585220 0.0007002730 0 0
0.0052493430 0.0018964350 0 0
0.0050530100 0.0031704440 0 0
0.0047711570 0.0044082690 0 0
0.0044156070 0.0054999490 0 0
0.0040059380 0.0063512630 0 0
0.0035657310 0.0068928100 0 0
0.0031192270 0.0070853320 0 0
0.0026891170 0.0069215590 0 0
0.0022948230 0.0064251280 0 0
0.0019504680 0.0056483150 0 0
0.0016628010 0.0046698310 0 0
0.0014304320 0.0035902990 0 0
0.0012455050 0.0025223490 0 0
0.0010974700 0.0015769090 0 0
0.0009771050 0.0008504950 0 0
0.0008788220 0.0004169310 0 0
0.0008006040 0.0003236480 0 0
0.0007425160 0.0005904980 0 0
0.0007049170 0.0012092410 0 0
0.0006870020 0.0021437790 0 0
0.0006863750 0.0033323400 0 0
0.0007003650 0.0046921070 0 0
0.0007283480 0.0061257730 0 0
0.0007729760 0.0075290490 0 0
0.0008389460 0.0087980110 0 0
0.0009299770 0.0098358270 0 0
0.0010458160 0.0105596080 0 0
0.0011808390 0.0109083050 0 0
0.0013247290 0.0108508120 0 0
0.0014645760 0.0103922200 0 0
0.0015871460 0.0095761330 0 0
0.0016800990 0.0084814010 0 0
0.0017317620 0.0072136900 0 0
0.0017308070 0.0058945820 0 0
0.0016677070 0.0046498080 0 0
0.0015377020 0.0035963510 0 0
0.0013430450 0.0028295410 0 0
0.0010935200 0.0024124460 0 0
0.0008061400 0.0023693710 0 0
0.0005042150 0.0026850160 0 0
0.0002144590 0.0033091890 0 0
-0.0000383915 0.0041637140 0 0
-0.0002374760 0.0051483110 0 0
-0.0003772290 0.0061466710 0 0
-0.0004628840 0.0070361260 0 0
-0.0005067630 0.0077013480 0 0
-0.0005229140 0.0080490760 0 0
-0.0005218690 0.0080205450 0 0
-0.0005072480 0.0075996880 0 0
-0.0004749790 0.0068158560 0 0
-0.0004144330 0.0057405430 0 0
-0.0003104210 0.0044791050 0 0
-0.0001457070 0.0031590170 0 0
0.0000954956 0.0019156200 0 0
0.0004226300 0.0008765890 0 0
0.0008336820 0.0001478190 0 0
0.0013121530 -0.0001961820 0 0
0.0018277630 -0.0001160910 0 0
0.0023415170 0.0003926660 0 0
0.0028147160 0.0013012170 0 0
0.0032187580 0.0025465860 0 0
0.0035408580 0.0040300270 0 0
0.0037832220 0.0056192330 0 0
0.0039572140 0.0071588600 0 0
0.0040758880 0.0084889480 0 0
0.0041483360 0.0094666980 0 0
0.0041779840 0.0099862550 0 0
0.0041641270 0.0099923320 0 0
0.0041039790 0.0094850390 0 0
0.0039930690 0.0085150650 0 0
0.0038241140 0.0071711640 0 0
0.0035860490 0.0055643240 0 0
0.0032637650 0.0038127670 0 0
0.0028372180 0.0020301970 0 0
0.0022796190 0.0003184110 0 0
0.0015569130 -0.0012359740 0 0
0.0006303770 -0.0025625110 0 0
-0.0005391180 -0.0036083640 0 0
-0.0019875970 -0.0043415810 0 0
-0.0037452730 -0.0047551120 0 0
-0.0058331050 -0.0048697230 0 0
-0.0082591140 -0.0047345720 0 0
-0.0110167500 -0.0044237440 0 0
-0.0140864390 -0.0040279970 0 0
-0.0174397690 -0.0036441360 0 0
-0.0210450610 -0.0033649240 0 0
-0.0248723470 -0.0032705900 0 0
-0.0288958490 -0.0034223540 0 0
-0.0330938530 -0.0038573550 -1 0
-0.0374478440 -0.0045836110 -1 0
-0.0419423240 -0.0055755320 -1 0
-0.0465654390 -0.0067725510 -1 0
-0.0513100280 -0.0080836250 -1 0
-0.0561744740 -0.0093987010 -1 0
-0.0611624800 -0.0106051520 -1 0
-0.0662816360 -0.0116053130 -1 0
-0.0715409420 -0.0123317110 -1 0
-0.0769472050 -0.0127563030 -1 0
-0.0825013080 -0.0128904960 -1 0
-0.0881963900 -0.0127777940 -1 0
-0.0940184490 -0.0124854620 -1 0
-0.0999482410 -0.0120987590 -1 0
-0.1059634290 -0.0117155870 -1 0
-0.1120403790 -0.0114389290 -1 0
-0.1181546990 -0.0113675130 -1 0
-0.1242803350 -0.0115861000 -1 0
-0.1303884120 -0.0121559800 -1 0
-0.1364472100 -0.0131068280 -1 0
-0.1424237170 -0.0144321800 -1 0
-0.1482862030 -0.0160900690 -1 0
-0.1540070110 -0.0180081610 -1 0
-0.1595647760 -0.0200912590 -1 0
-0.1649455230 -0.0222292200 -1 0
-0.1701430630 -0.0243045240 -1 0
-0.1751595440 -0.0262001610 -1 0
-0.1800056300 -0.0278091640 -1 0
-0.1846989500 -0.0290458890 -1 0
-0.1892606270 -0.0298569550 -1 0
-0.1937109770 -0.0302290750 -1 -1
-0.1980659030 -0.0301918660 -1 -1
-0.2023353980 -0.0298146370 -1 0
-0.2065245980 -0.0291978280 -1 0
-0.2106361160 -0.0284610830 -1 0
-0.2146718870 -0.0277296320 -1 0
-0.2186342840 -0.0271199760 -1 0
-0.2225269780 -0.0267261240 -1 0
-0.2263549430 -0.0266084990 -1 0
-0.2301228510 -0.0267878930 -1 0
-0.2338326050 -0.0272453550 -1 0
-0.2374821970 -0.0279270420 -1 0
-0.2410672480 -0.0287519790 -1 0
-0.2445836910 -0.0296209440 -1 0
-0.2480286900 -0.0304254320 -1 -1
-0.2513988770 -0.0310561880 -1 -1
-0.2546870680 -0.0314125360 -1 -1
-0.2578792090 -0.0314151140 -1 -1
-0.2609529030 -0.0310216710 -1 -1
-0.2638783080 -0.0302402240 -1 -1
-0.2666217200 -0.0291329790 -1 0
-0.2691515670 -0.0278086780 -1 0
-0.2714451940 -0.0264053500 -1 0
-0.2734937100 -0.0250679400 -1 0
-0.2753027140 -0.0239266650 -1 0
-0.2768888300 -0.0230812700 -1 0
-0.2782739080 -0.0225932650 -1 0
-0.2794794560 -0.0224849110 -1 0
-0.2805231890 -0.0227427920 -1 0
-0.2814181310 -0.0233248610 -1 0
-0.2821735450 -0.0241694690 -1 0
-0.2827964120 -0.0252035070 -1 0
-0.2832924300 -0.0263479240 -1 0
-0.2836666770 -0.0275215770 -1 0
-0.2839246110 -0.0286440940 -1 0
-0.2840731870 -0.0296372850 -1 0
-0.2841217120 -0.0304266170 -1 -1
-0.2840828830 -0.0309454950 -1 -1
-0.2839741040 -0.0311429330 -1 -1
-0.2838182810 -0.0309929220 -1 -1
-0.2836434340 -0.0305026260 -1 -1
-0.2834804990 -0.0297160140 -1 0
-0.2833587850 -0.0287116710 -1 0
-0.2833000730 -0.0275956370 -1 0
-0.2833142980 -0.0264894010 -1 0
-0.2833993690 -0.0255141240 -1 0
-0.2835450600 -0.0247753520 -1 0
-0.2837380280 -0.0243521970 -1 0
-0.2839644680 -0.0242911610 -1 0
-0.2842095970 -0.0246026850 -1 0
-0.2844558120 -0.0252593140 -1 0
-0.2846819180 -0.0261955920 -1 0
-0.2848646760 -0.0273106340 -1 0
-0.2849820610 -0.0284751890 -1 0
-0.2850166590 -0.0295450260 -1 0
-0.2849586180 -0.0303804090 -1 -1
-0.2848086190 -0.0308679590 -1 -1
-0.2845803380 -0.0309387310 -1 -1
-0.2843006240 -0.0305773090 -1 -1
-0.2840063880 -0.0298206140 -1 0
-0.2837389850 -0.0287485360 -1 0
-0.2835378030 -0.0274696700 -1 0
-0.2834343900 -0.0261051520 -1 0
-0.2834481010 -0.0247731590 -1 0
-0.2835843640 -0.0235766360 -1 0
-0.2838359450 -0.0225963700 -1 0
-0.2841858950 -0.0218895430 -1 0
-0.2846100060 -0.0214915390 -1 0
-0.2850781680 -0.0214174280 -1 0
-0.2855559310 -0.0216606410 -1 0
-0.2860070250 -0.0221897590 -1 0
-0.2863957100 -0.0229471150 -1 0
-0.2866883770 -0.0238523230 -1 0
-0.2868552730 -0.0248109810 -1 0
-0.2868730540 -0.0257266900 -1 0
-0.2867278700 -0.0265136910 -1 0
-0.2864181380 -0.0271069600 -1 0
-0.2859557410 -0.0274674270 -1 0
-0.2853646750 -0.0275828140 -1 0
-0.2846773760 -0.0274661810 -1 0
-0.2839303670 -0.0271526260 -1 0
-0.2831612620 -0.0266935340 -1 0
-0.2824077900 -0.0261494700 -1 0
-0.2817068970 -0.0255838440 -1 0
-0.2810914670 -0.0250579640 -1 0
-0.2805850360 -0.0246270590 -1 0
-0.2801973910 -0.0243370440 -1 0
-0.2799229240 -0.0242211080 -1 0
-0.2797415240 -0.0242955120 -1 0
-0.2796219330 -0.0245564660 -1 0
-0.2795278590 -0.0249801900 -1 0
-0.2794256460 -0.0255258500 -1 0
-0.2792905740 -0.0261400040 -1 0
-0.2791089960 -0.0267612600 -1 0
-0.2788757900 -0.0273238520 -1 0
-0.2785896680 -0.0277605250 -1 0
-0.2782502110 -0.0280074350 -1 0
-0.2778585610 -0.0280127970 -1 0
-0.2774200530 -0.0277459840 -1 0
-0.2769459270 -0.0272017120 -1 0
-0.2764529780 -0.0263991620 -1 0
-0.2759615430 -0.0253804750 -1 0
-0.2754929460 -0.0242096440 -1 0
-0.2750677570 -0.0229683960 -1 0
-0.2747049650 -0.0217479260 -1 0
-0.2744206900 -0.0206395750 -1 0
-0.2742254480 -0.0197277070 -1 0
-0.2741208970 -0.0190851330 -1 0
-0.2740982210 -0.0187687350 -1 0
-0.2741396960 -0.0188132110 -1 0
-0.2742231370 -0.0192234970 -1 0
-0.2743271980 -0.0199689360 -1 0
-0.2744351250 -0.0209828430 -1 0
-0.2745359850 -0.0221689940 -1 0
-0.2746235230 -0.0234132450 -1 0
-0.2746936110 -0.0245970460 -1 0
-0.2747420680 -0.0256105310 -1 0
-0.2747647080 -0.0263640280 -1 0
-0.2747597660 -0.0267967200 -1 0
-0.2747307760 -0.0268812640 -1 0
-0.2746875500 -0.0266248300 -1 0
-0.2746446940 -0.0260676820 -1 0
-0.2746188690 -0.0252782260 -1 0
-0.2746259700 -0.0243430030 -1 0
-0.2746783000 -0.0233537980 -1 0
-0.2747819520 -0.0223965550 -1 0
-0.2749350230 -0.0215445440 -1 0
-0.2751269490 -0.0208553400 -1 0
-0.2753390680 -0.0203700290 -1 0
-0.2755468060 -0.0201127370 -1 0
-0.2757237090 -0.0200900880 -1 0
-0.2758469460 -0.0202915520 -1 0
-0.2759032120 -0.0206905610 -1 0
-0.2758932420 -0.0212449560 -1 0
-0.2758326540 -0.0218960370 -1 0
-0.2757476970 -0.0225680110 -1 0
-0.2756675440 -0.0231716960 -1 0
-0.2756173870 -0.0236152550 -1 0
-0.2756152550 -0.0238207510 -1 0
-0.2756720470 -0.0237413920 -1 0
-0.2757925470 -0.0233727410 -1 0
-0.2759759070 -0.0227539640 -1 0
-0.2762156460 -0.0219606400 -1 0
-0.2765002820 -0.0210931240 -1 0
-0.2768146930 -0.0202628480 -1 0
-0.2771411180 -0.0195780720 -1 0
-0.2774593550 -0.0191308500 -1 0
-0.2777468460 -0.0189863850 -1 0
-0.2779791340 -0.0191761170 -1 0
-0.2781308090 -0.0196964250 -1 0
-0.2781771300 -0.0205125310 -1 0
-0.2780962420 -0.0215646650 -1 0
-0.2778719390 -0.0227745700 -1 0
-0.2774970930 -0.0240520120 -1 0
-0.2769769670 -0.0253006620 -1 0
-0.2763309130 -0.0264234900 -1 0
-0.2755914960 -0.0273293580 -1 0
-0.2748007330 -0.0279412580 -1 0
-0.2740042700 -0.0282039190 -1 0
-0.2732456450 -0.0280888230 -1 0
-0.2725621200 -0.0275967610 -1 0
-0.2719820370 -0.0267586970 -1 0
-0.2715236500 -0.0256354660 -1 0
-0.2711957370 -0.0243157490 -1 0
-0.2709994020 -0.0229104950 -1 0
-0.2709297810 -0.0215430200 -1 0
-0.2709767420 -0.0203361370 -1 0
-0.2711243770 -0.0193981280 -1 0
-0.2713501940 -0.0188096510 -1 0
-0.2716261580 -0.0186139440 -1 0
-0.2719232290 -0.0188118630 -1 0
-0.2722180710 -0.0193630980 -1 0
-0.2724981870 -0.0201940010 -1 0
-0.2727624640 -0.0212094550 -1 0
-0.2730172040 -0.0223046830 -1 0
-0.2732703050 -0.0233747520 -1 0
-0.2735263270 -0.0243225220 -1 0
-0.2737832980 -0.0250666710 -1 0
-0.2740315160 -0.0255492040 -1 0
-0.2742550360 -0.0257395570 -1 0
-0.2744356850 -0.0256330780 -1 0
-0.2745581120 -0.0252452920 -1 0
-0.2746143640 -0.0246073710 -1 0
-0.2746065200 -0.0237670790 -1 0
-0.2745458410 -0.0227927740 -1 0
-0.2744483590 -0.0217738270 -1 0
-0.2743293430 -0.0208137900 -1 0
-0.2741997660 -0.0200179400 -1 0
-0.2740659470 -0.0194788790 -1 0
-0.2739310640 -0.0192632320 -1 0
-0.2737966690 -0.0194017690 -1 0
-0.2736636590 -0.0198843560 -1 0
-0.2735329630 -0.0206600850 -1 0
-0.2734056730 -0.0216427590 -1 0
-0.2732823830 -0.0227217790 -1 0
-0.2731624660 -0.0237769750 -1 0
-0.2730449810 -0.0246940610 -1 0
-0.2729325990 -0.0253771500 -1 0
-0.2728376080 -0.0257562350 -1 0
-0.2727866360 -0.0257905380 -1 0
-0.2728206030 -0.0254712920 -1 0
-0.2729888500 -0.0248260040 -1 0
-0.2733398520 -0.0239212910 -1 0
-0.2739124690 -0.0228598690 -1 0
-0.2747300660 -0.0217702820 -1 0
-0.2757971140 -0.0207904710 -1 0
-0.2770970070 -0.0200485110 -1 0
-0.2785910630 -0.0196453010 -1 0
-0.2802202250 -0.0196420460 -1 0
-0.2819104810 -0.0200523290 -1 0
-0.2835809580 -0.0208391090 -1 0
-0.2851524840 -0.0219194470 -1 0
-0.2865551810 -0.0231784150 -1 0
-0.2877345720 -0.0244884620 -1 0
-0.2886558410 -0.0257280090 -1 0
-0.2893055010 -0.0267951810 -1 0
-0.2896896440 -0.0276155330 -1 0
-0.2898295460 -0.0281441590 -1 0
-0.2897572480 -0.0283633710 -1 0
-0.2895127300 -0.0282781170 -1 0
-0.2891416250 -0.0279121860 -1 0
-0.2886916160 -0.0273070010 -1 0
-0.2882074400 -0.0265211740 -1 0
-0.2877267870 -0.0256274860 -1 0
-0.2872791800 -0.0247062670 -1 0
-0.2868870200 -0.0238366270 -1 0
-0.2865663660 -0.0230875880 -1 0
-0.2863264040 -0.0225112380 -1 0
-0.2861682240 -0.0221393960 -1 0
-0.2860835640 -0.0219826700 -1 0
-0.2860541480 -0.0220290040 -1 0
-0.2860529840 -0.0222415280 -1 0
-0.2860489050 -0.0225601610 -1 0
-0.2860134790 -0.0229104580 -1 0
-0.2859277200 -0.0232175560 -1 0
-0.2857860130 -0.0234199570 -1 0
-0.2855958420 -0.0234791900 -1 0
-0.2853740830 -0.0233838770 -1 0
-0.2851423700 -0.0231485040 -1 0
-0.2849233850 -0.0228085360 -1 0
-0.2847381130 -0.0224146180 -1 0
-0.2846036320 -0.0220277100 -1 0
-0.2845316260 -0.0217148620 -1 0
-0.2845274260 -0.0215449240 -1 0
-0.2845885990 -0.0215841050 -1 0
-0.2847029250 -0.0218914040 -1 0
-0.2848475270 -0.0225137300 -1 0
-0.2849911450 -0.0234802750 -1 0
-0.2850992210 -0.0247960500 -1 0
-0.2851392480 -0.0264360960 -1 0
-0.2850843530 -0.0283428880 -1 0
-0.2849152280 -0.0304286520 -1 -1
-0.2846212860 -0.0325829030 -1 -1
-0.2842010520 -0.0346842970 -1 -1
-0.2836614230 -0.0366143850 -1 -1
-0.2830163070 -0.0382698540 -1 -1
-0.2822854070 -0.0395707020 -1 -1
-0.2814931350 -0.0404642220 -1 -1
-0.2806670620 -0.0409262050 -1 -1
-0.2798354750 -0.0409604640 -1 -1
-0.2790241990 -0.0405968740 -1 -1
-0.2782537750 -0.0398878860 -1 -1
-0.2775390010 -0.0389038680 -1 -1
-0.2768914780 -0.0377279190 -1 -1
-0.2763226020 -0.0364506500 -1 -1
-0.2758436490 -0.0351656040 -1 -1
-0.2754628200 -0.0339662270 -1 -1
-0.2751820990 -0.0329436080 -1 -1
-0.2749964700 -0.0321817380 -1 -1
-0.2748953150 -0.0317481810 -1 -1
-0.2748638780 -0.0316824150 -1 -1
-0.2748835130 -0.0319865420 -1 -1
-0.2749321700 -0.0326214260 -1 -1
-0.2749873050 -0.0335092330 -1 -1
-0.2750310710 -0.0345420150 -1 -1
-0.2750550710 -0.0355943390 -1 -1
-0.2750620670 -0.0365375520 -1 -1
-0.2750640080 -0.0372544350 -1 -1
-0.2750772290 -0.0376531310 -1 -1
-0.2751166300 -0.0376789830 -1 -1
-0.2751912170 -0.0373234070 -1 -1
-0.2753025400 -0.0366280520 -1 -1
-0.2754458430 -0.0356812620 -1 -1
-0.2756129250 -0.0346056180 -1 -1
-0.2757955330 -0.0335393720 -1 -1
-0.2759877330 -0.0326168790 -1 -1
-0.2761860300 -0.0319523470 -1 -1
-0.2763875450 -0.0316296060 -1 -1
-0.2765877190 -0.0316980980 -1 -1
-0.2767789860 -0.0321722690 -1 -1
-0.2769514060 -0.0330313160 -1 -1
-0.2770952960 -0.0342193150 -1 -1
-0.2772044960 -0.0356476980 -1 -1
-0.2772780620 -0.0372015790 -1 -1
-0.2773187830 -0.0387498370 -1 -1
-0.2773290960 -0.0401569760 -1 -1
-0.2773069690 -0.0412951730 -1 -1
-0.2772441640 -0.0420568490 -1 -1
-0.2771275280 -0.0423664430 -1 -1
-0.2769424680 -0.0421875160 -1 -1
-0.2766773360 -0.0415243410 -1 -1
-0.2763275360 -0.0404214460 -1 -1
-0.2758984220 -0.0389618640 -1 -1
-0.2754065260 -0.0372604930 -1 -1
-0.2748787080 -0.0354518830 -1 -1
-0.2743489960 -0.0336765970 -1 -1
-0.2738537870 -0.0320692320 -1 -1
-0.2734270980 -0.0307473660 -1 -1
-0.2730969750 -0.0298008050 -1 0
-0.2728829560 -0.0292833770 -1 0
-0.2727943410 -0.0292096950 -1 0
-0.2728299160 -0.0295560590 -1 0
-0.2729795850 -0.0302632160 -1 -1
-0.2732271540 -0.0312406700 -1 -1
-0.2735529310 -0.0323739180 -1 -1
-0.2739356440 -0.0335351020 -1 -1
-0.2743537340 -0.0345961580 -1 -1
-0.2747858170 -0.0354429820 -1 -1
-0.2752102250 -0.0359885090 -1 -1
-0.2756047860 -0.0361821560 -1 -1
-0.2759484990 -0.0360144530 -1 -1
-0.2762253240 -0.0355174420 -1 -1
-0.2764284610 -0.0347614210 -1 -1
-0.2765632840 -0.0338474270 -1 -1
-0.2766474520 -0.0328949520 -1 -1
-0.2767072470 -0.0320265300 -1 -1
-0.2767708120 -0.0313526290 -1 -1
-0.2768609050 -0.0309593630 -1 -1
-0.2769895460 -0.0308998160 -1 -1
-0.2771552990 -0.0311893610 -1 -1
-0.2773432620 -0.0318058270 -1 -1
-0.2775276370 -0.0326948330 -1 -1
-0.2776760870 -0.0337787240 -1 -1
-0.2777543310 -0.0349663640 -1 -1
-0.2777298940 -0.0361617750 -1 -1
-0.2775749950 -0.0372713570 -1 -1
-0.2772691810 -0.0382104120 -1 -1
-0.2768024600 -0.0389090440 -1 -1
-0.2761791740 -0.0393169390 -1 -1
-0.2754216010 -0.0394069750 -1 -1
-0.2745707650 -0.0391778700 -1 -1
-0.2736822120 -0.0386555540 -1 -1
-0.2728170700 -0.0378924280 -1 -1
-0.2720312780 -0.0369635210 -1 -1
-0.2713666550 -0.0359591060 -1 -1
-0.2708460820 -0.0349744990 -1 -1
-0.2704726000 -0.0340989350 -1 -1
-0.2702308770 -0.0334064490 -1 -1
-0.2700898030 -0.0329507520 -1 -1
-0.2700064070 -0.0327634960 -1 -1
-0.2699321270 -0.0328539260 -1 -1
-0.2698208780 -0.0332087190 -1 -1
-0.2696361140 -0.0337916670 -1 -1
-0.2693545520 -0.0345431150 -1 -1
-0.2689662990 -0.0353811260 -1 -1
-0.2684726520 -0.0362081330 -1 -1
-0.2678836080 -0.0369239860 -1 -1
-0.2672168410 -0.0374420090 -1 -1
-0.2664978600 -0.0377038860 -1 -1
-0.2657594860 -0.0376893150 -1 -1
-0.2650393230 -0.0374170600 -1 -1
-0.2643753360 -0.0369378490 -1 -1
-0.2638006490 -0.0363236040 -1 -1
-0.2633392970 -0.0356571300 -1 -1
-0.2630041450 -0.0350231230 -1 -1
-0.2627964880 -0.0344993460 -1 -1
-0.2627065760 -0.0341473870 -1 -1
-0.2627149690 -0.0340045490 -1 -1
-0.2627947520 -0.0340798680 -1 -1
-0.2629143430 -0.0343562490 -1 -1
-0.2630404660 -0.0347976760 -1 -1
-0.2631409860 -0.0353579060 -1 -1
-0.2631878930 -0.0359869440 -1 -1
-0.2631606680 -0.0366342070 -1 -1
-0.2630493320 -0.0372499020 -1 -1
-0.2628560990 -0.0377861690 -1 -1
-0.2625950430 -0.0381983500 -1 -1
-0.2622894430 -0.0384467340 -1 -1
-0.2619666320 -0.0384994590 -1 -1
-0.2616512810 -0.0383366910 -1 -1
-0.2613591830 -0.0379553320 -1 -1
-0.2610939590 -0.0373728780 -1 -1
-0.2608483270 -0.0366289090 -1 -1
-0.2606096630 -0.0357834500 -1 -1
-0.2603670740 -0.0349119970 -1 -1
-0.2601159340 -0.0340971400 -1 -1
-0.2598576980 -0.0334176400 -1 -1
-0.2595966490 -0.0329370700 -1 -1
-0.2593371880 -0.0326942830 -1 -1
-0.2590832490 -0.0326982240 -1 -1
-0.2588384920 -0.0329291280 -1 -1
-0.2586055690 -0.0333447820 -1 -1
-0.2583847800 -0.0338878000 -1 -1
-0.2581734890 -0.0344912680 -1 -1
-0.2579667110 -0.0350829120 -1 -1
-0.2577578230 -0.0355890250 -1 -1
-0.2575390050 -0.0359395720 -1 -1
-0.2573024660 -0.0360751430 -1 -1
-0.2570431810 -0.0359549520 -1 -1
-0.2567618410 -0.0355643150 -1 -1
-0.2564660460 -0.0349200270 -1 -1
-0.2561692750 -0.0340720380 -1 -1
-0.2558886440 -0.0331003530 -1 -1
-0.2556425210 -0.0321068810 -1 -1
-0.2554481340 -0.0312023310 -1 -1
-0.2553186110 -0.0304897180 -1 -1
-0.2552589850 -0.0300493200 -1 -1
-0.2552620480 -0.0299305290 -1 0
-0.2553065810 -0.0301510600 -1 -1
-0.2553598190 -0.0306992070 -1 -1
-0.2553836170 -0.0315362590 -1 -1
-0.2553422160 -0.0325999820 -1 -1
-0.2552093880 -0.0338104150 -1 -1
-0.2549728790 -0.0350770360 -1 -1
-0.2546345890 -0.0363060010 -1 -1
-0.2542067150 -0.0374076990 -1 -1
-0.2537062590 -0.0383045990 -1 -1
-0.2531506990 -0.0389378130 -1 -1
-0.2525558300 -0.0392715170 -1 -1
-0.2519350630 -0.0392955850 -1 -1
-0.2512998790 -0.0390258550 -1 -1
-0.2506614580 -0.0385013430 -1 -1
-0.2500324350 -0.0377795000 -1 -1
-0.2494277990 -0.0369309500 -1 -1
-0.2488651000 -0.0360343370 -1 -1
-0.2483638220 -0.0351713040 -1 -1
-0.2479426590 -0.0344211790 -1 -1
-0.2476146110 -0.0338545380 -1 -1
-0.2473818250 -0.0335260000 -1 -1
-0.2472327240 -0.0334680840 -1 -1
-0.2471431260 -0.0336868760 -1 -1
-0.2470812440 -0.0341586610 -1 -1
-0.2470149890 -0.0348284480 -1 -1
-0.2469193260 -0.0356132390 -1 -1
-0.2467814440 -0.0364110850 -1 -1
-0.2466025230 -0.0371146130 -1 -1
-0.2463961780 -0.0376267800 -1 -1
-0.2461840540 -0.0378754330 -1 -1
-0.2459895010 -0.0378220250 -1 -1
-0.2458311440 -0.0374625970 -1 -1
-0.2457183510 -0.0368243870 -1 -1
-0.2456498680 -0.0359623760 -1 -1
-0.2456159700 -0.0349558120 -1 -1
-0.2456030070 -0.0339017050 -1 -1
-0.2455979990 -0.0329040980 -1 -1
-0.2455914530 -0.0320619880 -1 -1
-0.2455786100 -0.0314595670 -1 -1
-0.2455602800 -0.0311590040 -1 -1
-0.2455431910 -0.0311941830 -1 -1
-0.2455380320 -0.0315658980 -1 -1
-0.2455544040 -0.0322400670 -1 -1
-0.2455952500 -0.0331498760 -1 -1
-0.2456544830 -0.0342033400 -1 -1
-0.2457188700 -0.0352966630 -1 -1
-0.2457722680 -0.0363294590 -1 -1
-0.2457995040 -0.0372160180 -1 -1
-0.2457879600 -0.0378903050 -1 -1
-0.2457268130 -0.0383065310 -1 -1
-0.2456059970 -0.0384388180 -1 -1
-0.2454170570 -0.0382822700 -1 -1
-0.2451556010 -0.0378553040 -1 -1
-0.2448232620 -0.0372011860 -1 -1
-0.2444280470 -0.0363860860 -1 -1
-0.2439833210 -0.0354915010 -1 -1
-0.2435060470 -0.0346016200 -1 -1
-0.2430146450 -0.0337905520 -1 -1
-0.2425264690 -0.0331153730 -1 -1
-0.2420553690 -0.0326153490 -1 -1
-0.2416101940 -0.0323128070 -1 -1
-0.2411945710 -0.0322130310 -1 -1
-0.2408082060 -0.0323043610 -1 -1
-0.2404502190 -0.0325601370 -1 -1
-0.2401237130 -0.0329427730 -1 -1
-0.2398389450 -0.0334080170 -1 -1
-0.2396122930 -0.0339068320 -1 -1
-0.2394606660 -0.0343857940 -1 -1
-0.2393943580 -0.0347895220 -1 -1
-0.2394123590 -0.0350667700 -1 -1
-0.2395021820 -0.0351788290 -1 -1
-0.2396437500 -0.0351065790 -1 -1
-0.2398151070 -0.0348526090 -1 -1
-0.2399972860 -0.0344384530 -1 -1
-0.2401769770 -0.0339000240 -1 -1
-0.2403472240 -0.0332833180 -1 -1
-0.2405062160 -0.0326399520 -1 -1
-0.2406538370 -0.0320221290 -1 -1
-0.2407866490 -0.0314784910 -1 -1
-0.2408934490 -0.0310520600 -1 -1
-0.2409541620 -0.0307794290 -1 -1
-0.2409437320 -0.0306900690 -1 -1
-0.2408396370 -0.0308045670 -1 -1
-0.2406289360 -0.0311301870 -1 -1
-0.2403113950 -0.0316541690 -1 -1
-0.2398982930 -0.0323379450 -1 -1
-0.2394089070 -0.0331158630 -1 -1
-0.2388669040 -0.0339008690 -1 -1
-0.2382978570 -0.0345976740 -1 -1
-0.2377278150 -0.0351202360 -1 -1
-0.2371819970 -0.0354071730 -1 -1
-0.2366833780 -0.0354301270 -1 -1
-0.2362516570 -0.0351949990 -1 -1
-0.2359026370 -0.0347384090 -1 -1
-0.2356477820 -0.0341208280 -1 -1
-0.2354939370 -0.0334173980 -1 -1
-0.2354426780 -0.0327085020 -1 -1
-0.2354888420 -0.0320721850 -1 -1
-0.2356191880 -0.0315791200 -1 -1
-0.2358126680 -0.0312897030 -1 -1
-0.2360426120 -0.0312522320 -1 -1
-0.2362804040 -0.0315003330 -1 -1
-0.2365000370 -0.0320486260 -1 -1
-0.2366819620 -0.0328880880 -1 -1
-0.2368140850 -0.0339834470 -1 -1
-0.2368895750 -0.0352731630 -1 -1
-0.2369039900 -0.0366716920 -1 -1
-0.2368545190 -0.0380748110 -1 -1
-0.2367413860 -0.0393686830 -1 -1
-0.2365694080 -0.0404416200 -1 -1
-0.2363486740 -0.0411968040 -1 -1
-0.2360945010 -0.0415645970 -1 -1
-0.2358261120 -0.0415131790 -1 -1
-0.2355633580 -0.0410558570 -1 -1
-0.2353225690 -0.0402522670 -1 -1
-0.2351136590 -0.0392007080 -1 -1
-0.2349394260 -0.0380217250 -1 -1
-0.2347962980 -0.0368373550 -1 -1
-0.2346751930 -0.0357530650 -1 -1
-0.2345617710 -0.0348479490 -1 -1
-0.2344368750 -0.0341730400 -1 -1
-0.2342789230 -0.0337534570 -1 -1
-0.2340689230 -0.0335913090 -1 -1
-0.2337956690 -0.0336686800 -1 -1
-0.2334571500 -0.0339507110 -1 -1
-0.2330570450 -0.0343892980 -1 -1
-0.2325995510 -0.0349275210 -1 -1
-0.2320868470 -0.0355037830 -1 -1
-0.2315209140 -0.0360550520 -1 -1
-0.2309079190 -0.0365197910 -1 -1
-0.2302619460 -0.0368410720 -1 -1
-0.2296061730 -0.0369697520 -1 -1
-0.2289716250 -0.0368676850 -1 -1
-0.2283937520 -0.0365117060 -1 -1
-0.2279065460 -0.0358994250 -1 -1
-0.2275355390 -0.0350563790 -1 -1
-0.2272931490 -0.0340419580 -1 -1
-0.2271788990 -0.0329506840 -1 -1
-0.2271836190 -0.0319059710 -1 -1
-0.2272941980 -0.0310453800 -1 -1
-0.2274959430 -0.0304994690 -1 -1
-0.2277724680 -0.0303689490 -1 -1
-0.2281052850 -0.0307058120 -1 -1
-0.2284750530 -0.0315032700 -1 -1
-0.2288643380 -0.0326965070 -1 -1
-0.2292600800 -0.0341729650 -1 -1
-0.2296542090 -0.0357887440 -1 -1
-0.2300422050 -0.0373868250 -1 -1
-0.2304201430 -0.0388141100 -1 -1
-0.2307811980 -0.0399368800 -1 -1
-0.2311129950 -0.0406544450 -1 -1
-0.2313969390 -0.0409084520 -1 -1
-0.2316100440 -0.0406856400 -1 -1
-0.2317289160 -0.0400154220 -1 -1
-0.2317344710 -0.0389654440 -1 -1
-0.2316158680 -0.0376361260 -1 -1
-0.2313731470 -0.0361524740 -1 -1
-0.2310187480 -0.0346517070 -1 -1
-0.2305772860 -0.0332680570 -1 -1
-0.2300826260 -0.0321184300 -1 -1
-0.2295725990 -0.0312916640 -1 -1
-0.2290831870 -0.0308420530 -1 -1
-0.2286437650 -0.0307870860 -1 -1
-0.2282735710 -0.0311085650 -1 -1
-0.2279790220 -0.0317554600 -1 -1
-0.2277524990 -0.0326483660 -1 -1
-0.2275742510 -0.0336871490 -1 -1
-0.2274184090 -0.0347620650 -1 -1
-0.2272614910 -0.0357662940 -1 -1
-0.2270900040 -0.0366075780 -1 -1
-0.2269043610 -0.0372174150 -1 -1
-0.2267182900 -0.0375562540 -1 -1
-0.2265549000 -0.0376136190 -1 -1
-0.2264413340 -0.0374045690 -1 -1
-0.2264030210 -0.0369653910 -1 -1
-0.2264583790 -0.0363498270 -1 -1
-0.2266156720 -0.0356252070 -1 -1
-0.2268726000 -0.0348682710 -1 -1
-0.2272177210 -0.0341611580 -1 -1
-0.2276327710 -0.0335863770 -1 -1
-0.2280948370 -0.0332192090 -1 -1
-0.2285772880 -0.0331187170 -1 -1
-0.2290498930 -0.0333200670 -1 -1
-0.2294802160 -0.0338289540 -1 -1
-0.2298378860 -0.0346174410 -1 -1
-0.2301004620 -0.0356217320 -1 -1
-0.2302574000 -0.0367447210 -1 -1
-0.2303096430 -0.0378659700 -1 -1
-0.2302657200 -0.0388580070 -1 -1
-0.2301375040 -0.0396039630 -1 -1
-0.2299379090 -0.0400116220 -1 -1
-0.2296804860 -0.0400222610 -1 -1
-0.2293797400 -0.0396154000 -1 -1
-0.2290513230 -0.0388109930 -1 -1
-0.2287115660 -0.0376694110 -1 -1
-0.2283755990 -0.0362877940 -1 -1
-0.2280538300 -0.0347909440 -1 -1
-0.2277484520 -0.0333165540 -1 -1
-0.2274530670 -0.0319960960 -1 -1
-0.2271566370 -0.0309341680 -1 -1
-0.2268492740 -0.0301915710 -1 -1
-0.2265260260 -0.0297780670 -1 0
-0.2261870820 -0.0296573170 -1 0
-0.2258356510 -0.0297611810 -1 0
-0.2254758190 -0.0300072070 -1 -1
-0.2251118900 -0.0303137280 -1 -1
-0.2247488730 -0.0306096110 -1 -1
-0.2243926950 -0.0308375110 -1 -1
-0.2240495910 -0.0309519260 -1 -1
-0.2237255750 -0.0309169500 -1 -1
-0.2234265120 -0.0307077590 -1 -1
-0.2231579820 -0.0303145830 -1 -1
-0.2229239800 -0.0297454410 -1 0
-0.2227250710 -0.0290253380 -1 0
-0.2225572430 -0.0281920740 -1 0
-0.2224115620 -0.0272909360 -1 0
-0.2222743410 -0.0263712390 -1 0
-0.2221282320 -0.0254861990 -1 0
-0.2219539510 -0.0246944750 -1 0
-0.2217317150 -0.0240590780 -1 0
-0.2214429510 -0.0236406090 -1 0
-0.2210737750 -0.0234858660 -1 0
-0.2206198740 -0.0236154310 -1 0
-0.2200901050 -0.0240141980 -1 0
-0.2195062090 -0.0246288480 -1 0
-0.2188982890 -0.0253746990 -1 0
-0.2182976160 -0.0261497290 -1 0
-0.2177300510 -0.0268502160 -1 0
-0.2172134110 -0.0273838150 -1 0
-0.2167586370 -0.0276784760 -1 0
-0.2163715130 -0.0276873080 -1 0
-0.2160531230 -0.0273906260 -1 0
-0.2158003250 -0.0267963270 -1 0
-0.2156078290 -0.0259393250 -1 0
-0.2154710270 -0.0248803070 -1 0
-0.2153871990 -0.0237023920 -1 0
-0.2153543810 -0.0225036340 -1 0
-0.2153697040 -0.0213864430 -1 0
-0.2154295650 -0.0204480300 -1 0
-0.2155316170 -0.0197736620 -1 0
-0.2156759730 -0.0194306110 -1 0
-0.2158635660 -0.0194618030 -1 0
-0.2160921150 -0.0198802890 -1 0
-0.2163519220 -0.0206646920 -1 0
-0.2166243960 -0.0217563220 -1 0
-0.2168848890 -0.0230610130 -1 0
-0.2171086480 -0.0244570290 -1 0
-0.2172770580 -0.0258070750 -1 0
-0.2173816860 -0.0269728220 -1 0
-0.2174249830 -0.0278311620 -1 0
-0.2174183580 -0.0282899150 -1 0
-0.2173795330 -0.0283001620 -1 0
-0.2173299780 -0.0278631600 -1 0
-0.2172914340 -0.0270307290 -1 0
-0.2172815530 -0.0258987620 -1 0
-0.2173108250 -0.0245945390 -1 0
-0.2173824370 -0.0232602150 -1 0
-0.2174942850 -0.0220358050 -1 0
-0.2176409260 -0.0210434070 -1 0
-0.2178143760 -0.0203740930 -1 0
-0.2180047810 -0.0200798690 -1 0
-0.2182015530 -0.0201711510 -1 0
-0.2183937210 -0.0206172930 -1 0
-0.2185694180 -0.0213489420 -1 0
-0.2187160610 -0.0222639270 -1 0
-0.2188211610 -0.0232386400 -1 0
-0.2188724670 -0.0241449920 -1 0
-0.2188578480 -0.0248702860 -1 0
-0.2187663080 -0.0253344860 -1 0
-0.2185901340 -0.0254994050 -1 0
-0.2183267050 -0.0253685880 -1 0
-0.2179790820 -0.0249807950 -1 0
-0.2175561310 -0.0244004110 -1 0
-0.2170730500 -0.0237066090 -1 0
-0.2165517040 -0.0229818940 -1 0
-0.2160196450 -0.0223005740 -1 0
-0.2155076340 -0.0217197800 -1 0
-0.2150462620 -0.0212770120 -1 0
-0.2146618430 -0.0209950960 -1 0
-0.2143716590 -0.0208900700 -1 0
-0.2141799080 -0.0209760790 -1 0
-0.2140759350 -0.0212647460 -1 0
-0.2140347940 -0.0217604140 -1 0
-0.2140194730 -0.0224543840 -1 0
-0.2139850330 -0.0233208160 -1 0
-0.2138855750 -0.0243150570 -1 0
-0.2136839220 -0.0253738390 -1 0
-0.2133613470 -0.0264179770 -1 0
-0.2129228770 -0.0273599330 -1 0
-0.2123953100 -0.0281168830 -1 0
-0.2118193670 -0.0286255730 -1 0
-0.2112401930 -0.0288532170 -1 0
-0.2106998900 -0.0288011020 -1 0
-0.2102334160 -0.0285014430 -1 0
-0.2098673950 -0.0280104770 -1 0
-0.2096205470 -0.0274009060 -1 0
-0.2095038770 -0.0267550230 -1 0
-0.2095194740 -0.0261578680 -1 0
-0.2096584700 -0.0256897110 -1 0
-0.2098993540 -0.0254181100 -1 0
-0.2102074210 -0.0253899570 -1 0
-0.2105360040 -0.0256241180 -1 0
-0.2108302680 -0.0261067910 -1 0
-0.2110338770 -0.0267918300 -1 0
-0.2110972260 -0.0276066280 -1 0
-0.2109847860 -0.0284625710 -1 0
-0.2106795390 -0.0292675040 -1 0
-0.2101837740 -0.0299367780 -1 0
-0.2095169670 -0.0304011140 -1 -1
-0.2087124040 -0.0306120470 -1 -1
-0.2078140400 -0.0305455510 -1 -1
-0.2068734870 -0.0302024610 -1 -1
-0.2059453510 -0.0296041820 -1 0
-0.2050800500 -0.0287854280 -1 0
-0.2043162940 -0.0277891500 -1 0
-0.2036769140 -0.0266673050 -1 0
