0.0556691190 0.0306564530 1 1
0.0559823650 0.0306651220 1 1
0.0564437210 0.0314496760 1 1
0.0570084650 0.0328872290 1 1
0.0576283270 0.0348022600 1 1
0.0582593700 0.0369875230 1 1
0.0588689440 0.0392201850 1 1
0.0594390620 0.0412736030 1 1
0.0599635660 0.0429292470 1 1
0.0604398680 0.0439920080 1 1
0.0608609720 0.0443087010 1 1
0.0612132690 0.0437877940 1 1
0.0614799870 0.0424175700 1 1
0.0616461600 0.0402779250 1 1
0.0617023210 0.0375391340 1 1
0.0616474160 0.0344446720 1 1
0.0614916280 0.0312832470 1 1
0.0612576920 0.0283579270 1 0
0.0609788160 0.0259557080 1 0
0.0606933920 0.0243176050 1 0
0.0604391850 0.0236110080 1 0
0.0602503760 0.0239088160 1 0
0.0601579880 0.0251799800 1 0
0.0601897690 0.0272937850 1 0
0.0603654820 0.0300364850 1 1
0.0606891790 0.0331354670 1 1
0.0611441530 0.0362866980 1 1
0.0616940040 0.0391849390 1 1
0.0622882730 0.0415557170 1 1
0.0628695180 0.0431831070 1 1
0.0633809160 0.0439278220 1 1
0.0637751580 0.0437358160 1 1
0.0640238480 0.0426390820 1 1
0.0641241780 0.0407490010 1 1
0.0640997420 0.0382450180 1 1
0.0639948250 0.0353615470 1 1
0.0638638260 0.0323700190 1 1
0.0637591370 0.0295525710 1 0
0.0637216030 0.0271715460 1 0
0.0637755710 0.0254421500 1 0
0.0639272090 0.0245114160 1 0
0.0641642270 0.0244445360 1 0
0.0644573890 0.0252210280 1 0
0.0647654430 0.0267409450 1 0
0.0650431880 0.0288371390 1 0
0.0652494420 0.0312903320 1 1
0.0653517720 0.0338472290 1 1
0.0653282580 0.0362417280 1 1
0.0651686000 0.0382174550 1 1
0.0648755030 0.0395506530 1 1
0.0644659670 0.0400729560 1 1
0.0639715140 0.0396921610 1 1
0.0634352740 0.0384076630 1 1
0.0629045950 0.0363159840 1 1
0.0624215080 0.0336027730 1 1
0.0620156080 0.0305230310 1 1
0.0617019910 0.0273757160 1 0
0.0614831900 0.0244765050 1 0
0.0613521170 0.0221274850 1 0
0.0612942890 0.0205832340 1 0
0.0612900960 0.0200183120 1 0
0.0613179590 0.0205036880 1 0
0.0613570110 0.0219974140 1 0
0.0613877310 0.0243511620 1 0
0.0613908730 0.0273300470 1 0
0.0613461990 0.0306409220 1 1
0.0612323440 0.0339655270 1 1
0.0610290430 0.0369945520 1 1
0.0607221680 0.0394559850 1 1
0.0603099360 0.0411332150 1 1
0.0598075870 0.0418754910 1 1
0.0592486730 0.0416062830 1 1
0.0586817220 0.0403322660 1 1
0.0581615710 0.0381518720 1 1
0.0577369050 0.0352581980 1 1
0.0574387030 0.0319287060 1 1
0.0572748290 0.0284983240 1 0
0.0572323730 0.0253203300 1 0
0.0572848750 0.0227234920 1 0
0.0573998490 0.0209730500 1 0
0.0575435110 0.0202408960 1 0
0.0576829550 0.0205883540 1 0
0.0577881300 0.0219627570 1 0
0.0578353420 0.0242072000 1 0
0.0578119510 0.0270814940 1 0
0.0577197510 0.0302905700 1 1
0.0575734930 0.0335158860 1 1
0.0573934070 0.0364472630 1 1
0.0571951440 0.0388131540 1 1
0.0569828690 0.0404053120 1 1
0.0567492640 0.0410943870 1 1
0.0564821580 0.0408363240 1 1
0.0561739670 0.0396720560 1 1
0.0558287200 0.0377235360 1 1
0.0554632110 0.0351866430 1 1
0.0551025700 0.0323172600 1 1
0.0547730530 0.0294078580 1 0
0.0544956610 0.0267586080 1 0
0.0542837590 0.0246494790 1 0
0.0541452180 0.0233149950 1 0
0.0540862850 0.0229209960 1 0
0.0541133870 0.0235452650 1 0
0.0542308240 0.0251654570 1 0
0.0544354230 0.0276573900 1 0
0.0547115530 0.0308062140 1 1
0.0550299230 0.0343298680 1 1
0.0553514630 0.0379102070 1 1
0.0556347390 0.0412264910 1 1
0.0558438810 0.0439868440 1 1
0.0559549560 0.0459548820 1 1
0.0559603130 0.0469706110 1 1
0.0558705250 0.0469637560 1 1
0.0557128180 0.0459564700 1 1
0.0555252730 0.0440565550 1 1
0.0553479860 0.0414464090 1 1
0.0552145000 0.0383698590 1 1
0.0551470660 0.0351147450 1 1
0.0551569290 0.0319901250 1 1
0.0552475230 0.0292997910 1 0
0.0554175970 0.0273135020 1 0
0.0556628480 0.0262370030 1 0
0.0559761780 0.0261852230 1 0
0.0563472960 0.0271661130 1 0
0.0567626830 0.0290795390 1 0
0.0572066230 0.0317286310 1 1
0.0576628540 0.0348388740 1 1
0.0581158610 0.0380841300 1 1
0.0585515440 0.0411201780 1 1
0.0589575070 0.0436222990 1 1
0.0593230590 0.0453198470 1 1
0.0596392570 0.0460228600 1 1
0.0599000860 0.0456402910 1 1
0.0601054510 0.0441900120 1 1
0.0602647040 0.0417988860 1 1
0.0603970260 0.0386922700 1 1
0.0605253370 0.0351739960 1 1
0.0606654990 0.0315963640 1 1
0.0608173350 0.0283198610 1 0
0.0609631240 0.0256679790 1 0
0.0610737920 0.0238880320 1 0
0.0611182140 0.0231269520 1 0
0.0610707300 0.0234239610 1 0
0.0609150130 0.0247167090 1 0
0.0606448790 0.0268554260 1 0
0.0602634830 0.0296202370 1 0
0.0597821910 0.0327401750 1 1
0.0592192670 0.0359158830 1 1
0.0585967980 0.0388481220 1 1
0.0579357810 0.0412704620 1 1
0.0572532890 0.0429793320 1 1
0.0565652680 0.0438525130 1 1
0.0558919100 0.0438516010 1 1
0.0552583430 0.0430131220 1 1
0.0546881050 0.0414378600 1 1
0.0541943630 0.0392826310 1 1
0.0537751170 0.0367509220 1 1
0.0534146390 0.0340776740 1 1
0.0530894510 0.0315074780 1 1
0.0527753350 0.0292701840 1 0
0.0524526180 0.0275600290 1 0
0.0521089920 0.0265216540 1 0
0.0517402170 0.0262418710 1 0
0.0513491330 0.0267443230 1 0
0.0509431090 0.0279848320 1 0
0.0505302870 0.0298481150 1 0
0.0501163950 0.0321505280 1 1
0.0497044010 0.0346536960 1 1
0.0492968730 0.0370885120 1 1
0.0488981340 0.0391844910 1 1
0.0485140290 0.0406997270 1 1
0.0481501680 0.0414479900 1 1
0.0478109500 0.0413199330 1 1
0.0475004190 0.0402975310 1 1
0.0472240640 0.0384619230 1 1
0.0469900910 0.0359912450 1 1
0.0468100320 0.0331440020 1 1
0.0466990680 0.0302288940 1 1
0.0466740440 0.0275669560 1 0
0.0467471570 0.0254528750 1 0
0.0469185340 0.0241221690 1 0
0.0471735830 0.0237291790 1 0
0.0474860970 0.0243370040 1 0
0.0478228660 0.0259163570 1 0
0.0481470700 0.0283488270 1 0
0.0484212750 0.0314338230 1 1
0.0486101010 0.0349030320 1 1
0.0486814050 0.0384441880 1 1
0.0486075130 0.0417304870 1 1
0.0483694020 0.0444515140 1 1
0.0479636470 0.0463434060 1 1
0.0474087530 0.0472149240 1 1
0.0467474880 0.0469656770 1 1
0.0460432710 0.0455956270 1 1
0.0453706690 0.0432076660 1 1
0.0448033570 0.0400045720 1 1
0.0444050890 0.0362782220 1 1
0.0442272160 0.0323851510 1 1
0.0443109340 0.0287058450 1 0
0.0446877030 0.0255969250 1 0
0.0453722200 0.0233510750 1 0
0.0463505650 0.0221707770 1 0
0.0475732340 0.0221524410 1 0
0.0489601090 0.0232786550 1 0
0.0504153460 0.0254205990 1 0
0.0518439270 0.0283516430 1 0
0.0531622160 0.0317699160 1 1
0.0543010360 0.0353276920 1 1
0.0552057580 0.0386657310 1 1
0.0558379300 0.0414487270 1 1
0.0561790450 0.0433986150 1 1
0.0562343180 0.0443242150 1 1
0.0560337570 0.0441429210 1 1
0.0556286780 0.0428881160 1 1
0.0550836430 0.0407013500 1 1
0.0544657290 0.0378146190 1 1
0.0538349390 0.0345272310 1 1
0.0532394650 0.0311777990 1 1
0.0527160520 0.0281116970 1 0
0.0522920490 0.0256464510 1 0
0.0519861800 0.0240379050 1 0
0.0518078460 0.0234509870 1 0
0.0517558870 0.0239416890 1 0
0.0518178270 0.0254557190 1 0
0.0519710780 0.0278414040 1 0
0.0521868040 0.0308691880 1 1
0.0524349070 0.0342539030 1 1
0.0526877320 0.0376804740 1 1
0.0529214230 0.0408323640 1 1
0.0531157190 0.0434206870 1 1
0.0532538240 0.0452124670 1 1
0.0533236670 0.0460546530 1 1
0.0533203030 0.0458885510 1 1
0.0532474450 0.0447523980 1 1
0.0531163220 0.0427748130 1 1
0.0529429080 0.0401621350 1 1
0.0527464440 0.0371795480 1 1
0.0525497400 0.0341261670 1 1
0.0523779040 0.0313070240 1 1
0.0522533230 0.0290048930 1 0
0.0521895410 0.0274537170 1 0
0.0521876870 0.0268160880 1 0
0.0522359360 0.0271675920 1 0
0.0523115540 0.0284895560 1 0
0.0523862130 0.0306710100 1 1
0.0524335980 0.0335208280 1 1
0.0524359910 0.0367893420 1 1
0.0523871290 0.0401944370 1 1
0.0522908020 0.0434465000 1 1
0.0521566240 0.0462721510 1 1
0.0519956130 0.0484398000 1 1
0.0518168280 0.0497847710 1 1
0.0516245490 0.0502266040 1 1
0.0514170690 0.0497740380 1 1
0.0511897420 0.0485194580 1 1
0.0509419040 0.0466266570 1 1
0.0506839840 0.0443135340 1 1
0.0504413640 0.0418295440 1 1
0.0502531420 0.0394298970 1 1
0.0501652690 0.0373510580 1 1
0.0502194010 0.0357908460 1 1
0.0504416270 0.0348930940 1 1
0.0508362380 0.0347359770 1 1
0.0513862150 0.0353244720 1 1
0.0520576340 0.0365885940 1 1
0.0528050990 0.0383891980 1 1
0.0535774600 0.0405315300 1 1
0.0543232400 0.0427831500 1 1
0.0549950630 0.0448916560 1 1
0.0555530970 0.0466025340 1 1
0.0559675520 0.0476817390 1 1
0.0562202760 0.0479441460 1 1
0.0563060970 0.0472824230 1 1
0.0562338060 0.0456886410 1 1
0.0560255550 0.0432629920 1 1
0.0557140270 0.0402069850 1 1
0.0553383250 0.0368013420 1 1
0.0549403500 0.0333714090 1 1
0.0545622620 0.0302458370 1 1
0.0542431410 0.0277172860 1 0
0.0540130420 0.0260131100 1 0
0.0538863050 0.0252783630 1 0
0.0538578260 0.0255695630 1 0
0.0539035770 0.0268574390 1 0
0.0539847190 0.0290355050 1 0
0.0540555850 0.0319291540 1 1
0.0540750310 0.0353022180 1 1
0.0540171700 0.0388647650 1 1
0.0538766300 0.0422902660 1 1
0.0536665770 0.0452452450 1 1
0.0534113860 0.0474262640 1 1
0.0531382720 0.0485970620 1 1
0.0528723820 0.0486192740 1 1
0.0526361830 0.0474701120 1 1
0.0524500730 0.0452438140 1 1
0.0523318310 0.0421395480 1 1
0.0522951940 0.0384404100 1 1
0.0523485510 0.0344854570 1 1
0.0524938280 0.0306362590 1 1
0.0527256890 0.0272420830 1 0
0.0530317470 0.0246078450 1 0
0.0533937640 0.0229660380 1 0
0.0537892120 0.0224537120 1 0
0.0541936630 0.0230981720 1 0
0.0545844330 0.0248144590 1 0
0.0549438660 0.0274141440 1 0
0.0552598630 0.0306234950 1 1
0.0555230890 0.0341085030 1 1
0.0557233660 0.0375040310 1 1
0.0558485060 0.0404474320 1 1
0.0558860220 0.0426187180 1 1
0.0558260340 0.0437834930 1 1
0.0556651260 0.0438260620 1 1
0.0554115470 0.0427597370 1 1
0.0550894710 0.0407133260 1 1
0.0547382790 0.0379052880 1 1
0.0544055090 0.0346163600 1 1
0.0541367930 0.0311627020 1 1
0.0539683730 0.0278681470 1 0
0.0539252340 0.0250365010 1 0
0.0540221740 0.0229259700 1 0
0.0542625450 0.0217271790 1 0
0.0546341260 0.0215464310 1 0
0.0551074310 0.0223951050 1 0
0.0556396920 0.0241856560 1 0
0.0561813230 0.0267372490 1 0
0.0566806160 0.0297935890 1 0
0.0570866100 0.0330498910 1 1
0.0573529790 0.0361838370 1 1
0.0574444160 0.0388880890 1 1
0.0573435780 0.0409020600 1 1
0.0570544480 0.0420387120 1 1
0.0565994440 0.0422033900 1 1
0.0560124720 0.0414032830 1 1
0.0553330430 0.0397453290 1 1
0.0546041530 0.0374211230 1 1
0.0538725460 0.0346816340 1 1
0.0531881490 0.0318083010 1 1
0.0526001040 0.0290859080 1 0
0.0521493310 0.0267788270 1 0
0.0518605600 0.0251110650 1 0
0.0517374640 0.0242510300 1 0
0.0517629470 0.0243000480 1 0
0.0519043480 0.0252825930 1 0
0.0521214910 0.0271391240 1 0
0.0523743710 0.0297248350 1 0
0.0526281860 0.0328164720 1 1
0.0528555770 0.0361281790 1 1
0.0530368610 0.0393373470 1 1
0.0531585380 0.0421188690 1 1
0.0532105280 0.0441819580 1 1
0.0531838170 0.0453035760 1 1
0.0530705560 0.0453555970 1 1
0.0528670430 0.0443225660 1 1
0.0525778580 0.0423046790 1 1
0.0522184220 0.0395038580 1 1
0.0518139410 0.0361975320 1 1
0.0513949320 0.0327068620 1 1
0.0509918660 0.0293636670 1 0
0.0506312260 0.0264786700 1 0
0.0503332340 0.0243131770 1 0
0.0501104870 0.0230553250 1 0
0.0499668360 0.0228032700 1 0
0.0498959030 0.0235593100 1 0
0.0498796560 0.0252345580 1 0
0.0498891480 0.0276583800 1 0
0.0498895330 0.0305901280 1 1
0.0498489870 0.0337364470 1 1
0.0497480040 0.0367763390 1 1
0.0495847580 0.0393928600 1 1
0.0493745000 0.0413097220 1 1
0.0491437300 0.0423282460 1 1
0.0489221540 0.0423541890 1 1
0.0487360680 0.0414049830 1 1
0.0486053550 0.0395985280 1 1
0.0485440280 0.0371324760 1 1
0.0485624320 0.0342604370 1 1
0.0486684940 0.0312664660 1 1
0.0488660250 0.0284386230 1 0
0.0491509010 0.0260432900 1 0
0.0495087290 0.0243018950 1 0
0.0499161590 0.0233720790 1 0
0.0503439690 0.0233350850 1 0
0.0507591040 0.0241896880 1 0
0.0511257040 0.0258525870 1 0
0.0514078640 0.0281652590 1 0
0.0515758730 0.0309064650 1 1
0.0516138730 0.0338097600 1 1
0.0515248730 0.0365864980 1 1
0.0513310770 0.0389536780 1 1
0.0510703300 0.0406628080 1 1
0.0507895290 0.0415255550 1 1
0.0505349480 0.0414345210 1 1
0.0503412000 0.0403780100 1 1
0.0502234250 0.0384459160 1 1
0.0501770510 0.0358242750 1 1
0.0501851400 0.0327780000 1 1
0.0502291520 0.0296222040 1 0
0.0502980850 0.0266862600 1 0
0.0503928750 0.0242795520 1 0
0.0505252750 0.0226646610 1 0
0.0507123160 0.0220360530 1 0
0.0509688400 0.0225009760 1 0
0.0513007740 0.0240633720 1 0
0.0517004480 0.0266147260 1 0
0.0521445870 0.0299360610 1 0
0.0525962460 0.0337147820 1 1
0.0530107710 0.0375781890 1 1
0.0533434640 0.0411392890 1 1
0.0535563270 0.0440444500 1 1
0.0536228790 0.0460141010 1 1
0.0535311980 0.0468723120 1 1
0.0532857290 0.0465609980 1 1
0.0529079820 0.0451359460 1 1
0.0524350950 0.0427491150 1 1
0.0519141660 0.0396256900 1 1
0.0513920440 0.0360404850 1 1
0.0509044290 0.0322938260 1 1
0.0504698040 0.0286874900 1 0
0.0500899920 0.0255033240 1 0
0.0497541180 0.0229859600 1 0
0.0494418890 0.0213280440 1 0
0.0491252930 0.0206561250 1 0
0.0487718810 0.0210170970 1 0
0.0483532730 0.0223671560 1 0
0.0478564680 0.0245677020 1 0
0.0472891480 0.0273922780 1 0
0.0466733190 0.0305455480 1 1
0.0460309570 0.0336934550 1 1
0.0453709370 0.0365009680 1 1
0.0446854040 0.0386696270 1 1
0.0439576110 0.0399691140 1 1
0.0431758950 0.0402627370 1 1
0.0423458210 0.0395253560 1 1
0.0414956140 0.0378473440 1 1
0.0406744990 0.0354207570 1 1
0.0399457590 0.0325117370 1 1
0.0393764010 0.0294267800 1 0
0.0390245920 0.0264791650 1 0
0.0389266060 0.0239596170 1 0
0.0390871140 0.0221121900 1 0
0.0394768440 0.0211138400 1 0
0.0400381490 0.0210584620 1 0
0.0406950310 0.0219485630 1 0
0.0413636950 0.0236955210 1 0
0.0419624170 0.0261272690 1 0
0.0424212270 0.0290036990 1 0
0.0426906900 0.0320396320 1 1
0.0427475400 0.0349327470 1 1
0.0425947920 0.0373939400 1 1
0.0422558580 0.0391773190 1 1
0.0417661200 0.0401045240 1 1
0.0411668990 0.0400794300 1 1
0.0405028560 0.0390941700 1 1
0.0398204820 0.0372280280 1 1
0.0391659450 0.0346393750 1 1
0.0385819940 0.0315532660 1 1
0.0381038540 0.0282479470 1 0
0.0377544290 0.0250373110 1 0
0.0375406730 0.0222426620 1 0
0.0374535990 0.0201539750 1 0
0.0374720540 0.0189903760 1 0
0.0375674310 0.0188707510 1 0
0.0377073150 0.0198010740 1 0
0.0378586550 0.0216814940 1 0
0.0379915960 0.0243301090 1 0
0.0380837790 0.0275106300 1 0
0.0381234600 0.0309510220 1 1
0.0381100250 0.0343542580 1 1
0.0380523540 0.0374124770 1 1
0.0379665090 0.0398312920 1 1
0.0378729160 0.0413624850 1 1
0.0377924490 0.0418388210 1 1
0.0377417950 0.0412012970 1 1
0.0377297520 0.0395096350 1 1
0.0377562280 0.0369351240 1 1
0.0378145850 0.0337413060 1 1
0.0378965340 0.0302551420 1 1
0.0379973110 0.0268297690 1 0
0.0381174620 0.0238047010 1 0
0.0382593170 0.0214705490 1 0
0.0384214380 0.0200417850 1 0
0.0385964010 0.0196393840 1 0
0.0387736150 0.0202845430 1 0
0.0389451220 0.0219021720 1 0
0.0391117700 0.0243309700 1 0
0.0392872540 0.0273371150 1 0
0.0394966400 0.0306311760 1 1
0.0397671260 0.0338903330 1 1
0.0401139460 0.0367871890 1 1
0.0405296440 0.0390229310 1 1
0.0409837950 0.0403602200 1 1
0.0414326800 0.0406509980 1 1
0.0418320400 0.0398556280 1 1
0.0421462200 0.0380503770 1 1
0.0423517210 0.0354202970 1 1
0.0424373440 0.0322374340 1 1
0.0424040750 0.0288292770 1 0
0.0422658730 0.0255430990 1 0
0.0420498390 0.0227096560 1 0
0.0417934630 0.0206094090 1 0
0.0415385810 0.0194452150 1 0
0.0413238440 0.0193239050 1 0
0.0411782070 0.0202463380 1 0
0.0411170150 0.0221060680 1 0
0.0411403300 0.0246991880 1 0
0.0412330020 0.0277461870 1 0
0.0413674560 0.0309238800 1 1
0.0415096710 0.0339042440 1 1
0.0416266000 0.0363930290 1 1
0.0416926850 0.0381586920 1 1
0.0416937580 0.0390480980 1 1
0.0416273620 0.0389924180 1 1
0.0415003190 0.0380070640 1 1
0.0413264480 0.0361873710 1 1
0.0411262110 0.0337011640 1 1
0.0409266660 0.0307780690 1 1
0.0407590670 0.0276924200 1 0
0.0406538540 0.0247373700 1 0
0.0406347460 0.0221936540 1 0
0.0407128110 0.0202997580 1 0
0.0408811220 0.0192282950 1 0
0.0411129700 0.0190704520 1 0
0.0413670370 0.0198282110 1 0
0.0415985050 0.0214140500 1 0
0.0417703940 0.0236596530 1 0
0.0418596460 0.0263345550 1 0
0.0418577070 0.0291720930 1 0
0.0417695230 0.0318968060 1 1
0.0416124880 0.0342469300 1 1
0.0414130920 0.0359905240 1 1
0.0412009400 0.0369403620 1 1
0.0410032350 0.0369715700 1 1
0.0408420770 0.0360390860 1 1
0.0407342600 0.0341897100 1 1
0.0406915960 0.0315658370 1 1
0.0407198460 0.0283987980 1 0
0.0408169330 0.0249892400 1 0
0.0409734520 0.0216737940 1 0
0.0411765690 0.0187834020 1 0
0.0414149050 0.0166048800 1 0
0.0416811980 0.0153545480 1 0
0.0419711780 0.0151627710 1 0
0.0422798920 0.0160643640 1 0
0.0425988610 0.0179953250 1 0
0.0429162670 0.0207991110 1 0
0.0432192420 0.0242418650 1 0
0.0434963260 0.0280333160 1 0
0.0437393090 0.0318515420 1 1
0.0439439550 0.0353706540 1 1
0.0441095880 0.0382896860 1 1
0.0442389940 0.0403607640 1 1
0.0443394330 0.0414146330 1 1
0.0444225880 0.0413803360 1 1
0.0445012840 0.0402954780 1 1
0.0445845730 0.0383053020 1 1
0.0446747940 0.0356503100 1 1
0.0447680980 0.0326424820 1 1
0.0448567760 0.0296303140 1 0
0.0449311200 0.0269552960 1 0
0.0449803440 0.0249077090 1 0
0.0449936060 0.0236912150 1 0
0.0449619210 0.0234015940 1 0
0.0448805170 0.0240205150 1 0
0.0447501580 0.0254232300 1 0
0.0445763500 0.0273984370 1 0
0.0443670660 0.0296770070 1 0
0.0441304670 0.0319645900 1 1
0.0438730070 0.0339737830 1 1
0.0435982020 0.0354526710 1 1
0.0433075430 0.0362073330 1 1
0.0430045100 0.0361175720 1 1
0.0427001340 0.0351455390 1 1
0.0424160830 0.0333372940 1 1
0.0421818750 0.0308190260 1 1
0.0420272450 0.0277893710 1 0
0.0419749660 0.0245068710 1 0
0.0420380390 0.0212701120 1 0
0.0422199420 0.0183899630 1 0
0.0425149250 0.0161573680 1 0
0.0429083450 0.0148118820 1 0
0.0433782670 0.0145144770 1 0
0.0438972250 0.0153268210 1 0
0.0444320190 0.0172004450 1 0
0.0449418130 0.0199793480 1 0
0.0453774950 0.0234159690 1 0
0.0456860450 0.0271977700 1 0
0.0458209330 0.0309822180 1 1
0.0457546450 0.0344358730 1 1
0.0454868230 0.0372689740 1 1
0.0450445050 0.0392575090 1 1
0.0444755880 0.0402519220 1 1
0.0438388840 0.0401793110 1 1
0.0431940750 0.0390460150 1 1
0.0425940670 0.0369405510 1 1
0.0420808580 0.0340323790 1 1
0.0416844210 0.0305631160 1 1
0.0414234580 0.0268285510 1 0
0.0413070760 0.0231519050 1 0
0.0413364190 0.0198522930 1 0
0.0415053870 0.0172138010 1 0
0.0418006190 0.0154584530 1 0
0.0422016310 0.0147253310 1 0
0.0426813300 0.0150585730 1 0
0.0432067980 0.0164052400 1 0
0.0437408010 0.0186214900 1 0
0.0442442930 0.0214857490 1 0
0.0446791360 0.0247196130 1 0
0.0450102560 0.0280163480 1 0
0.0452082600 0.0310724780 1 1
0.0452540770 0.0336160390 1 1
0.0451438200 0.0354293780 1 1
0.0448895130 0.0363674300 1 1
0.0445148280 0.0363692860 1 1
0.0440501330 0.0354599550 1 1
0.0435304100 0.0337444950 1 1
0.0429946350 0.0313995460 1 1
0.0424833960 0.0286633410 1 0
0.0420341490 0.0258208140 1 0
0.0416761970 0.0231803070 1 0
0.0414279520 0.0210406570 1 0
0.0412968740 0.0196521570 1 0
0.0412799420 0.0191807630 1 0
0.0413631750 0.0196853450 1 0
0.0415218160 0.0211112870 1 0
0.0417230960 0.0232985460 1 0
0.0419309800 0.0260018680 1 0
0.0421116290 0.0289208580 1 0
0.0422391080 0.0317349350 1 1
0.0422993580 0.0341371120 1 1
0.0422895560 0.0358631850 1 1
0.0422135590 0.0367154390 1 1
0.0420778260 0.0365800160 1 1
0.0418904900 0.0354369520 1 1
0.0416622330 0.0333624410 1 1
0.0414065100 0.0305227890 1 1
0.0411381440 0.0271599580 1 0
0.0408709070 0.0235707460 1 0
0.0406156230 0.0200826330 1 0
0.0403800070 0.0170270600 1 0
0.0401698450 0.0147089120 1 0
0.0399900360 0.0133727220 1 0
0.0398448060 0.0131705700 1 0
0.0397380990 0.0141393250 1 0
0.0396751700 0.0161930770 1 0
0.0396639050 0.0191318220 1 0
0.0397128100 0.0226636430 1 0
0.0398250880 0.0264373580 1 0
0.0399917720 0.0300829600 1 1
0.0401879040 0.0332541950 1 1
0.0403747670 0.0356652230 1 1
0.0405088050 0.0371160430 1 1
0.0405537410 0.0375053090 1 1
0.0404896370 0.0368308830 1 1
0.0403147210 0.0351810340 1 1
0.0400414210 0.0327214360 1 1
0.0396913740 0.0296810960 1 0
0.0392926330 0.0263359720 1 0
0.0388786900 0.0229879040 1 0
0.0384872250 0.0199395610 1 0
0.0381568580 0.0174691630 1 0
0.0379215580 0.0158076370 1 0
0.0378039910 0.0151177670 1 0
0.0378104820 0.0154747770 1 0
0.0379300540 0.0168512800 1 0
0.0381378670 0.0191124470 1 0
0.0384013870 0.0220256780 1 0
0.0386868670 0.0252847550 1 0
0.0389644260 0.0285443150 1 0
0.0392113160 0.0314580990 1 1
0.0394128910 0.0337156110 1 1
0.0395605650 0.0350753210 1 1
0.0396474520 0.0353924930 1 1
0.0396644560 0.0346365820 1 1
0.0395998360 0.0328928330 1 1
0.0394433160 0.0303474500 1 1
0.0391930420 0.0272617960 1 0
0.0388619860 0.0239430060 1 0
0.0384798120 0.0207153800 1 0
0.0380873830 0.0178932580 1 0
0.0377249610 0.0157544530 1 0
0.0374200630 0.0145141860 1 0
0.0371818030 0.0143020100 1 0
0.0370037320 0.0151455110 1 0
0.0368716300 0.0169639200 1 0
0.0367713640 0.0195735960 1 0
0.0366937050 0.0227058530 1 0
0.0366354830 0.0260358540 1 0
0.0365983350 0.0292196130 1 0
0.0365868500 0.0319335890 1 1
0.0366069150 0.0339095630 1 1
0.0366636630 0.0349595590 1 1
0.0367586290 0.0349896220 1 1
0.0368872180 0.0340034770 1 1
0.0370383580 0.0320983160 1 1
0.0371971830 0.0294552000 1 0
0.0373499350 0.0263239540 1 0
0.0374890370 0.0230004610 1 0
0.0376162730 0.0197974240 1 0
0.0377430200 0.0170140740 1 0
0.0378880260 0.0149106000 1 0
0.0380735710 0.0136894000 1 0
0.0383202390 0.0134810030 1 0
0.0386409960 0.0143316530 1 0
0.0390363310 0.0161938360 1 0
0.0394921510 0.0189241690 1 0
0.0399813890 0.0222902350 1 0
0.0404696060 0.0259862900 1 0
0.0409233500 0.0296600830 1 0
0.0413176880 0.0329509400 1 1
0.0416391950 0.0355328650 1 1
0.0418840410 0.0371550080 1 1
0.0420540200 0.0376743340 1 1
0.0421539400 0.0370750320 1 1
0.0421933310 0.0354684910 1 1
0.0421925370 0.0330730660 1 1
0.0421877790 0.0301809380 1 1
0.0422281850 0.0271212600 1 0
0.0423640130 0.0242249310 1 0
0.0426323480 0.0217933520 1 0
0.0430469760 0.0200723640 1 0
0.0435958290 0.0192318410 1 0
0.0442460330 0.0193522800 1 0
0.0449533590 0.0204199930 1 0
0.0456714960 0.0223303460 1 0
0.0463586130 0.0248973860 1 0
0.0469809480 0.0278693860 1 0
0.0475136760 0.0309507280 1 1
0.0479399230 0.0338295040 1 1
0.0482500280 0.0362078620 1 1
0.0484429470 0.0378321660 1 1
0.0485291860 0.0385218630 1 1
0.0485322980 0.0381931100 1 1
0.0484862760 0.0368694280 1 1
0.0484286080 0.0346757870 1 1
0.0483911910 0.0318201770 1 1
0.0483924360 0.0285691500 1 0
0.0484337850 0.0252219080 1 0
0.0485023850 0.0220852600 1 0
0.0485781780 0.0194499780 1 0
0.0486411910 0.0175678630 1 0
0.0486763860 0.0166285940 1 0
0.0486758030 0.0167373770 1 0
0.0486378350 0.0178985700 1 0
0.0485642900 0.0200109080 1 0
0.0484578730 0.0228760380 1 0
0.0483221600 0.0262198440 1 0
0.0481637870 0.0297233240 1 0
0.0479947310 0.0330554640 1 1
0.0478317750 0.0359025890 1 1
0.0476918030 0.0379947280 1 1
0.0475860200 0.0391293540 1 1
0.0475186650 0.0391900910 1 1
0.0474916390 0.0381587230 1 1
0.0475102240 0.0361187790 1 1
0.0475840060 0.0332478840 1 1
0.0477219170 0.0298002570 1 0
0.0479251760 0.0260856300 1 0
0.0481828500 0.0224463850 1 0
0.0484723260 0.0192278420 1 0
0.0487640580 0.0167409320 1 0
0.0490280870 0.0152258320 1 0
0.0492392630 0.0148255620 1 0
0.0493790930 0.0155721510 1 0
0.0494342030 0.0173838550 1 0
0.0493935350 0.0200721520 1 0
0.0492471780 0.0233588360 1 0
0.0489879000 0.0269037090 1 0
0.0486139570 0.0303415360 1 1
0.0481316190 0.0333242560 1 1
0.0475568220 0.0355620540 1 1
0.0469145820 0.0368560590 1 1
0.0462351210 0.0371158940 1 1
0.0455490230 0.0363584140 1 1
0.0448854190 0.0346918460 1 1
0.0442743350 0.0322964330 1 1
0.0437500290 0.0294090640 1 0
0.0433505620 0.0263098280 1 0
0.0431118820 0.0233047350 1 0
0.0430595520 0.0207008230 1 0
0.0432029930 0.0187729270 1 0
0.0435341970 0.0177268530 1 0
0.0440291460 0.0176691680 1 0
0.0446495230 0.0185918320 1 0
0.0453442570 0.0203725100 1 0
0.0460521750 0.0227881360 1 0
0.0467074850 0.0255410540 1 0
0.0472484320 0.0282965240 1 0
0.0476272360 0.0307254430 1 1
0.0478183040 0.0325425080 1 1
0.0478216310 0.0335330660 1 1
0.0476595480 0.0335686400 1 1
0.0473688680 0.0326134900 1 1
0.0469935940 0.0307232320 1 1
0.0465806720 0.0280378020 1 0
0.0461767060 0.0247722580 1 0
0.0458236630 0.0212044520 1 0
0.0455543060 0.0176550460 1 0
0.0453890520 0.0144590350 1 0
0.0453357510 0.0119328110 1 0
0.0453929280 0.0103412680 1 0
0.0455547110 0.0098682380 1 0
0.0458136370 0.0105932740 1 0
0.0461589450 0.0124788600 1 0
0.0465714500 0.0153728450 1 0
0.0470186840 0.0190278580 1 0
0.0474544320 0.0231328650 1 0
0.0478245420 0.0273472320 1 0
0.0480768780 0.0313306310 1 1
0.0481708480 0.0347696200 1 1
0.0480827880 0.0374033460 1 1
0.0478065530 0.0390457940 1 1
0.0473512320 0.0395993720 1 1
0.0467380660 0.0390579450 1 1
0.0459972960 0.0375017580 1 1
0.0451649940 0.0350868980 1 1
0.0442809300 0.0320303220 1 1
0.0433886660 0.0285931260 1 0
0.0425366600 0.0250645280 1 0
0.0417769380 0.0217440470 1 0
0.0411594680 0.0189184030 1 0
0.0407241580 0.0168337830 1 0
0.0404938570 0.0156672070 1 0
0.0404700520 0.0155032370 1 0
0.0406317640 0.0163230930 1 0
0.0409378630 0.0180088780 1 0
0.0413317550 0.0203598060 1 0
0.0417471130 0.0231152540 1 0
0.0421150130 0.0259813810 1 0
0.0423734560 0.0286603480 1 0
0.0424778970 0.0308811700 1 1
0.0424090080 0.0324295730 1 1
0.0421740920 0.0331719260 1 1
0.0418017220 0.0330686190 1 1
0.0413334830 0.0321763210 1 1
0.0408179390 0.0306399780 1 1
0.0403073400 0.0286735570 1 0
0.0398534910 0.0265310910 1 0
0.0395014000 0.0244754790 1 0
0.0392833860 0.0227525360 1 0
0.0392161940 0.0215719470 1 0
0.0393008790 0.0210925660 1 0
0.0395240030 0.0214098390 1 0
0.0398595930 0.0225450530 1 0
0.0402720990 0.0244380120 1 0
0.0407205660 0.0269469910 1 0
0.0411633900 0.0298588110 1 0
0.0415625520 0.0329069370 1 1
0.0418871860 0.0357938180 1 1
0.0421174510 0.0382175740 1 1
0.0422478540 0.0399041870 1 1
0.0422863750 0.0406409730 1 1
0.0422480320 0.0403033140 1 1
0.0421473220 0.0388700750 1 1
0.0419944300 0.0364283620 1 1
0.0417958720 0.0331689030 1 1
0.0415585380 0.0293700950 1 0
0.0412962410 0.0253685830 1 0
0.0410357590 0.0215197060 1 0
0.0408172930 0.0181562300 1 0
0.0406868580 0.0155535470 1 0
0.0406841120 0.0139059720 1 0
0.0408321950 0.0133152850 1 0
0.0411330220 0.0137903330 1 0
0.0415666810 0.0152547200 1 0
0.0420932120 0.0175585910 1 0
0.0426576040 0.0204917150 1 0
0.0431982280 0.0237985850 1 0
0.0436562700 0.0271978050 1 0
0.0439839600 0.0304056650 1 1
0.0441513800 0.0331614770 1 1
0.0441512320 0.0352524620 1 1
0.0439995890 0.0365353020 1 1
0.0437317020 0.0369493910 1 1
0.0433945380 0.0365187690 1 1
0.0430388510 0.0353444860 1 1
0.0427123040 0.0335909940 1 1
0.0424541730 0.0314694500 1 1
0.0422923470 0.0292200370 1 0
0.0422422690 0.0270945140 1 0
0.0423057370 0.0253376110 1 0
0.0424688560 0.0241635400 1 0
0.0427013790 0.0237278260 1 0
0.0429599940 0.0241021210 1 0
0.0431951650 0.0252610200 1 0
0.0433588970 0.0270841660 1 0
0.0434112790 0.0293710310 1 0
0.0433247900 0.0318642210 1 1
0.0430860060 0.0342784230 1 1
0.0426956780 0.0363321590 1 1
0.0421690980 0.0377787060 1 1
0.0415373140 0.0384329150 1 1
0.0408472400 0.0381916010 1 1
0.0401574410 0.0370459370 1 1
0.0395287120 0.0350840240 1 1
0.0390132760 0.0324813180 1 1
0.0386480940 0.0294795660 1 0
0.0384538910 0.0263593360 1 0
0.0384369910 0.0234115230 1 0
0.0385910010 0.0209113980 1 0
0.0388981220 0.0190972210 1 0
0.0393307560 0.0181523560 1 0
0.0398530890 0.0181886900 1 0
0.0404223730 0.0192330100 1 0
0.0409908790 0.0212197030 1 0
0.0415100280 0.0239900780 1 0
0.0419369660 0.0272983930 1 0
0.0422415330 0.0308282050 1 1
0.0424106070 0.0342216360 1 1
0.0424481940 0.0371186220 1 1
0.0423718930 0.0391998410 1 1
0.0422079550 0.0402265860 1 1
0.0419869670 0.0400713300 1 1
0.0417404960 0.0387348850 1 1
0.0414977790 0.0363474740 1 1
0.0412826570 0.0331502840 1 1
0.0411123650 0.0294591290 1 0
0.0409983420 0.0256219120 1 0
0.0409464580 0.0219830970 1 0
0.0409550970 0.0188583320 1 0
0.0410130250 0.0165134210 1 0
0.0411002300 0.0151427700 1 0
0.0411924310 0.0148499670 1 0
0.0412664580 0.0156383520 1 0
0.0413031880 0.0174157480 1 0
0.0412879870 0.0200089700 1 0
0.0412114490 0.0231803330 1 0
0.0410721000 0.0266434200 1 0
0.0408793540 0.0300827160 1 1
0.0406531140 0.0331815760 1 1
0.0404179240 0.0356547260 1 1
0.0401935080 0.0372764990 1 1
0.0399866320 0.0379004230 1 1
0.0397885710 0.0374718500 1 1
0.0395790820 0.0360356090 1 1
0.0393347000 0.0337372380 1 1
0.0390377690 0.0308141600 1 1
0.0386826070 0.0275739900 1 0
0.0382762180 0.0243598390 1 0
0.0378333860 0.0215070920 1 0
0.0373690550 0.0193018780 1 0
0.0368923780 0.0179516860 1 0
0.0364057370 0.0175702560 1 0
0.0359092660 0.0181720470 1 0
0.0354076260 0.0196733700 1 0
0.0349138340 0.0219009300 1 0
0.0344474420 0.0246084880 1 0
0.0340286950 0.0275011020 1 0
0.0336717130 0.0302654970 1 1
0.0333784720 0.0326024510 1 1
0.0331353040 0.0342546650 1 1
0.0329146730 0.0350270950 1 1
0.0326834190 0.0348025100 1 1
0.0324149760 0.0335549570 1 1
0.0321006330 0.0313583660 1 1
0.0317550450 0.0283848470 1 0
0.0314137930 0.0248904900 1 0
0.0311247390 0.0211911660 1 0
0.0309368410 0.0176322310 1 0
0.0308889240 0.0145546210 1 0
0.0310002760 0.0122598640 1 0
0.0312656230 0.0109788730 1 0
0.0316564300 0.0108488060 1 0
0.0321280190 0.0118985220 1 0
0.0326297090 0.0140431060 1 0
0.0331143740 0.0170906840 1 0
0.0335449860 0.0207624160 1 0
0.0338975990 0.0247208870 1 0
0.0341615320 0.0286017940 1 0
0.0343378800 0.0320473630 1 1
0.0344374470 0.0347407930 1 1
0.0344790860 0.0364390520 1 1
0.0344886540 0.0369994060 1 1
0.0344973690 0.0363942900 1 1
0.0345379000 0.0347112730 1 1
0.0346383810 0.0321397250 1 1
0.0348169460 0.0289485310 1 0
0.0350796260 0.0254585420 1 0
0.0354218110 0.0220123510 1 0
0.0358303300 0.0189435340 1 0
0.0362834650 0.0165473170 1 0
0.0367500830 0.0150545980 1 0
0.0371914980 0.0146107140 1 0
0.0375674930 0.0152604990 1 0
0.0378445770 0.0169418550 1 0
0.0380027750 0.0194906880 1 0
0.0380379800 0.0226599050 1 0
0.0379596480 0.0261509920 1 0
0.0377865820 0.0296491600 1 0
0.0375440510 0.0328515860 1 1
0.0372628270 0.0354872780 1 1
0.0369778050 0.0373349550 1 1
0.0367241050 0.0382422090 1 1
0.0365313880 0.0381420430 1 1
0.0364192400 0.0370611140 1 1
0.0363961030 0.0351172830 1 1
0.0364616310 0.0325078830 1 1
0.0366096940 0.0294912650 1 0
0.0368293040 0.0263630790 1 0
0.0371037140 0.0234281230 1 0
0.0374100430 0.0209699370 1 0
0.0377209480 0.0192218340 1 0
0.0380080370 0.0183427960 1 0
0.0382453150 0.0184008910 1 0
0.0384107210 0.0193663490 1 0
0.0384857700 0.0211148620 1 0
0.0384558050 0.0234399780 1 0
0.0383125450 0.0260734390 1 0
0.0380573220 0.0287129500 1 0
0.0377021260 0.0310555540 1 1
0.0372674940 0.0328320180 1 1
0.0367786100 0.0338371100 1 1
0.0362615880 0.0339528480 1 1
0.0357410250 0.0331625730 1 1
0.0352387150 0.0315527540 1 1
0.0347733070 0.0293011710 1 0
0.0343611450 0.0266542280 1 0
0.0340174550 0.0238972940 1 0
0.0337558900 0.0213217900 1 0
0.0335859490 0.0191941450 1 0
0.0335105840 0.0177313030 1 0
0.0335258010 0.0170832580 1 0
0.0336209500 0.0173214950 1 0
0.0337778500 0.0184347150 1 0
0.0339700710 0.0203325460 1 0
0.0341652810 0.0228539530 1 0
0.0343308450 0.0257788250 1 0
0.0344397840 0.0288464080 1 0
0.0344743190 0.0317818520 1 1
0.0344260410 0.0343246490 1 1
0.0342934840 0.0362523820 1 1
0.0340793930 0.0373993420 1 1
0.0337900960 0.0376708460 1 1
0.0334373650 0.0370500820 1 1
0.0330408360 0.0355957370 1 1
0.0326285160 0.0334345750 1 1
0.0322340640 0.0307531370 1 1
0.0318913300 0.0277871700 1 0
0.0316278900 0.0248054470 1 0
0.0314593170 0.0220873630 1 0
0.0313854910 0.0198955490 1 0
0.0313905020 0.0184453140 1 0
0.0314474640 0.0178759860 1 0
0.0315276210 0.0182322500 1 0
0.0316103780 0.0194609290 1 0
0.0316890350 0.0214223280 1 0
0.0317685680 0.0239102970 1 0
0.0318568530 0.0266738880 1 0
0.0319553980 0.0294367760 1 0
0.0320562980 0.0319162700 1 1
0.0321476900 0.0338459700 1 1
0.0322226740 0.0350025330 1 1
0.0322828530 0.0352317670 1 1
0.0323327840 0.0344676800 1 1
0.0323708560 0.0327412140 1 1
0.0323849760 0.0301793540 1 1
0.0323559850 0.0269962190 1 0
0.0322652540 0.0234761220 1 0
0.0321015320 0.0199488130 1 0
0.0318647080 0.0167585320 1 0
0.0315667370 0.0142283710 1 0
0.0312301070 0.0126217090 1 0
0.0308832970 0.0121058340 1 0
0.0305533700 0.0127268310 1 0
0.0302581100 0.0144035910 1 0
0.0300008490 0.0169411160 1 0
0.0297693030 0.0200577720 0 0
0.0295376200 0.0234215840 0 0
0.0292705860 0.0266907150 0 0
0.0289294740 0.0295511210 0 0
0.0284782940 0.0317459880 0 1
0.0278889130 0.0330958070 0 1
0.0271460250 0.0335089840 0 1
0.0262540370 0.0329829080 0 1
0.0252439490 0.0315983890 0 1
0.0241746360 0.0295122580 0 0
0.0231250750 0.0269488280 0 0
0.0221798340 0.0241857450 0 0
0.0214135820 0.0215302390 0 0
0.0208791070 0.0192872560 0 0
0.0206003990 0.0177252190 0 0
0.0205708860 0.0170450610 0 0
0.0207566060 0.0173562990 0 0
0.0211037320 0.0186629710 0 0
0.0215487970 0.0208617930 0 0
0.0220289210 0.0237543950 0 0
0.0224897580 0.0270725110 0 0
0.0228908010 0.0305094820 0 1
0.0232085570 0.0337498640 0 1
0.0234369310 0.0364947910 0 1
0.0235838670 0.0384865100 0 1
0.0236651140 0.0395338150 0 1
0.0236978280 0.0395346470 0 1
0.0236971140 0.0384895570 0 1
0.0236768430 0.0365020270 0 1
0.0236525810 0.0337666030 0 1
0.0236426470 0.0305482690 0 1
0.0236651920 0.0271553770 0 0
0.0237325800 0.0239082180 0 0
0.0238463770 0.0211076930 0 0
0.0239955820 0.0190084690 0 0
0.0241584830 0.0177972860 0 0
0.0243067700 0.0175760800 0 0
0.0244108030 0.0183530380 0 0
0.0244457100 0.0200443700 0 0
0.0243971850 0.0224841200 0 0
0.0242644780 0.0254380720 0 0
0.0240589160 0.0286222600 0 0
0.0237992000 0.0317274770 0 1
0.0235064230 0.0344466490 0 1
0.0232010670 0.0365010650 0 1
0.0229023410 0.0376655090 0 1
0.0226286660 0.0377929030 0 1
0.0223977490 0.0368348780 0 1
0.0222260990 0.0348531730 0 1
0.0221290010 0.0320193570 0 1
0.0221209380 0.0286011750 0 0
0.0222147170 0.0249342010 0 0
0.0224182450 0.0213830920 0 0
0.0227306010 0.0183014260 0 0
0.0231402840 0.0159952080 0 0
0.0236263890 0.0146903720 0 0
0.0241610130 0.0145072660 0 0
0.0247119630 0.0154482330 0 0
0.0252465420 0.0174000150 0 0
0.0257363060 0.0201479900 0 0
0.0261607780 0.0234006280 0 0
0.0265086950 0.0268231260 0 0
0.0267776640 0.0300746470 0 1
0.0269737860 0.0328416360 0 1
0.0271112160 0.0348648270 0 1
0.0272104090 0.0359611840 0 1
0.0272950800 0.0360381920 0 1
0.0273896730 0.0350955970 0 1
0.0275186120 0.0332163410 0 1
0.0277057050 0.0305549120 0 1
0.0279711910 0.0273277790 0 0
0.0283268270 0.0238028250 0 0
0.0287717480 0.0202831340 0 0
0.0292909680 0.0170835210 0 0
0.0298568460 0.0145007880 0 0
0.0304328370 0.0127805950 1 0
0.0309781770 0.0120866940 1 0
0.0314523290 0.0124802270 1 0
0.0318184120 0.0139132590 1 0
0.0320450780 0.0162347960 1 0
0.0321077770 0.0192073290 1 0
0.0319914400 0.0225336800 1 0
0.0316945760 0.0258900060 1 0
0.0312318590 0.0289575620 1 0
0.0306326710 0.0314504620 1 1
0.0299360010 0.0331410870 0 1
0.0291841690 0.0338811280 0 1
0.0284184800 0.0336131530 0 1
0.0276783590 0.0323726340 0 1
0.0270020940 0.0302847580 0 1
0.0264257740 0.0275570530 0 0
0.0259795450 0.0244641140 0 0
0.0256834050 0.0213216450 0 0
0.0255448180 0.0184523510 0 0
0.0255581950 0.0161497020 0 0
0.0257052890 0.0146451940 0 0
0.0259569740 0.0140833110 0 0
0.0262770570 0.0145069870 0 0
0.0266268390 0.0158549240 0 0
0.0269683140 0.0179712590 0 0
0.0272657950 0.0206262570 0 0
0.0274878170 0.0235430640 0 0
0.0276109890 0.0264240880 0 0
0.0276245240 0.0289740780 0 0
0.0275321980 0.0309222450 0 1
0.0273502550 0.0320469450 0 1
0.0271025100 0.0322012550 0 1
0.0268144820 0.0313328200 0 1
0.0265084950 0.0294927880 0 0
0.0262013340 0.0268337700 0 0
0.0259044030 0.0235978140 0 0
0.0256252020 0.0200926810 0 0
0.0253699530 0.0166571660 0 0
0.0251474150 0.0136235400 0 0
0.0249718060 0.0112845850 0 0
0.0248614330 0.0098651870 0 0
0.0248320180 0.0094982500 0 0
0.0248877770 0.0102109450 0 0
0.0250157590 0.0119268630 0 0
0.0251880490 0.0144817190 0 0
0.0253719650 0.0176457060 0 0
0.0255423220 0.0211482740 0 0
0.0256872590 0.0247035300 0 0
0.0258042880 0.0280332300 0 0
0.0258915930 0.0308838510 0 1
0.0259419810 0.0330381050 0 1
0.0259424260 0.0343258860 0 1
0.0258776330 0.0346385010 0 1
0.0257348790 0.0339451290 0 1
0.0255082900 0.0323076730 0 1
0.0252020040 0.0298883140 0 0
0.0248321880 0.0269418690 0 0
0.0244269980 0.0237894290 0 0
0.0240231710 0.0207794900 0 0
0.0236602520 0.0182469410 0 0
0.0233758360 0.0164763120 0 0
0.0232029940 0.0156704080 0 0
0.0231666340 0.0159252030 0 0
0.0232764420 0.0172152180 0 0
0.0235205050 0.0193934610 0 0
0.0238667780 0.0222063730 0 0
0.0242737340 0.0253225220 0 0
0.0247031690 0.0283728680 0 0
0.0251265850 0.0309972250 0 1
0.0255230660 0.0328892830 0 1
0.0258733290 0.0338331520 0 1
0.0261555260 0.0337258640 0 1
0.0263448650 0.0325828270 0 1
0.0264162370 0.0305283440 0 1
0.0263485540 0.0277771190 0 0
0.0261304770 0.0246111020 0 0
0.0257669560 0.0213518060 0 0
0.0252835740 0.0183271040 0 0
0.0247247340 0.0158349040 0 0
0.0241450100 0.0141097110 0 0
0.0235971230 0.0132980650 0 0
0.0231211640 0.0134461480 0 0
0.0227385400 0.0145004020 0 0
0.0224517900 0.0163200410 0 0
0.0222490420 0.0186983600 0 0
0.0221108790 0.0213880010 0 0
0.0220174670 0.0241256970 0 0
0.0219533250 0.0266547800 0 0
0.0219079200 0.0287456190 0 0
0.0218738080 0.0302132990 0 1
0.0218462160 0.0309308230 0 1
0.0218251920 0.0308369500 0 1
0.0218178300 0.0299395220 0 0
0.0218378280 0.0283154740 0 0
0.0219021650 0.0261070950 0 0
0.0220264930 0.0235122120 0 0
0.0222209980 0.0207664770 0 0
0.0224881740 0.0181193710 0 0
0.0228233810 0.0158090280 0 0
0.0232177080 0.0140409420 0 0
0.0236613910 0.0129715450 0 0
0.0241457630 0.0126948590 0 0
0.0246627660 0.0132326920 0 0
0.0252037140 0.0145316880 0 0
0.0257599160 0.0164690070 0 0
0.0263246440 0.0188651160 0 0
0.0268932610 0.0215007270 0 0
0.0274599350 0.0241350600 0 0
0.0280128100 0.0265245120 0 0
0.0285312450 0.0284425440 0 0
0.0289881360 0.0297010530 0 0
0.0293572780 0.0301713800 0 1
0.0296220060 0.0298011130 0 0
0.0297800960 0.0286227950 0 0
0.0298424710 0.0267527640 0 0
0.0298271430 0.0243810170 0 0
0.0297518430 0.0217539880 0 0
0.0296281270 0.0191511720 0 0
0.0294586530 0.0168562540 0 0
0.0292386600 0.0151250320 0 0
0.0289610140 0.0141543120 0 0
0.0286220530 0.0140571030 0 0
0.0282257200 0.0148498200 0 0
0.0277856780 0.0164552500 0 0
0.0273258300 0.0187197700 0 0
0.0268784260 0.0214373400 0 0
0.0264783650 0.0243716180 0 0
0.0261545670 0.0272725380 0 0
0.0259222880 0.0298892820 0 0
0.0257799690 0.0319841980 0 1
0.0257106930 0.0333515610 0 1
0.0256863400 0.0338409340 0 1
0.0256733120 0.0333798500 0 1
0.0256393390 0.0319892660 0 1
0.0255603170 0.0297880790 0 0
0.0254254660 0.0269858310 0 0
0.0252387250 0.0238636990 0 0
0.0250152720 0.0207444140 0 0
0.0247750060 0.0179545380 0 0
0.0245372460 0.0157865310 0 0
0.0243187790 0.0144679700 0 0
0.0241328650 0.0141410040 0 0
0.0239864480 0.0148524790 0 0
0.0238769660 0.0165548750 0 0
0.0237924910 0.0191166270 0 0
0.0237164710 0.0223390170 0 0
0.0236346570 0.0259762620 0 0
0.0235410520 0.0297545690 0 0
0.0234413540 0.0333874350 0 1
0.0233532650 0.0365891680 0 1
0.0233032020 0.0390919800 0 1
0.0233203720 0.0406698220 0 1
0.0234305220 0.0411666000 0 1
0.0236513000 0.0405228190 0 1
0.0239899770 0.0387933820 0 1
0.0244424470 0.0361490820 0 1
0.0249911030 0.0328583390 0 1
0.0256022610 0.0292536030 0 0
0.0262280180 0.0256912710 0 0
0.0268148100 0.0225122760 0 0
0.0273138770 0.0200069220 0 0
0.0276871190 0.0183860240 0 0
0.0279073520 0.0177612530 0 0
0.0279570320 0.0181371850 0 0
0.0278286070 0.0194145510 0 0
0.0275262970 0.0214023540 0 0
0.0270682450 0.0238378780 0 0
0.0264881620 0.0264147580 0 0
0.0258344370 0.0288174890 0 0
0.0251644710 0.0307577730 0 1
0.0245348910 0.0320072780 0 1
0.0239913420 0.0324225080 0 1
0.0235618840 0.0319582890 0 1
0.0232557770 0.0306679110 0 1
0.0230666880 0.0286912150 0 0
0.0229776900 0.0262345270 0 0
0.0229657330 0.0235463160 0 0
0.0230049250 0.0208913680 0 0
0.0230695380 0.0185262640 0 0
0.0231378650 0.0166782130 0 0
0.0231966280 0.0155266910 0 0
0.0232439240 0.0151872390 0 0
0.0232884790 0.0156994460 0 0
0.0233446610 0.0170213130 0 0
0.0234247110 0.0190308570 0 0
0.0235315920 0.0215355790 0 0
0.0236570000 0.0242893360 0 0
0.0237862370 0.0270144930 0 0
0.0239064650 0.0294273730 0 0
0.0240126640 0.0312656220 0 1
0.0241074420 0.0323148930 0 1
0.0241950060 0.0324315440 0 1
0.0242738320 0.0315600170 0 1
0.0243330100 0.0297441350 0 0
0.0243539790 0.0271287980 0 0
0.0243168830 0.0239488930 0 0
0.0242093670 0.0205064530 0 0
0.0240332710 0.0171387750 0 0
0.0238040670 0.0141801980 0 0
0.0235429150 0.0119228320 0 0
0.0232674240 0.0105839610 0 0
0.0229871450 0.0102854890 0 0
0.0227050300 0.0110456710 0 0
0.0224229670 0.0127810950 0 0
0.0221475800 0.0153184280 0 0
0.0218913250 0.0184151960 0 0
0.0216674120 0.0217858190 0 0
0.0214832900 0.0251283610 0 0
0.0213384080 0.0281500800 0 0
0.0212267770 0.0305904770 0 1
0.0211408520 0.0322393910 0 1
0.0210742440 0.0329503020 0 1
0.0210232080 0.0326521990 0 1
0.0209878200 0.0313609570 0 1
0.0209736380 0.0291867660 0 0
0.0209931080 0.0263330410 0 0
0.0210641960 0.0230826850 0 0
0.0212052490 0.0197701440 0 0
0.0214284630 0.0167431470 0 0
0.0217346710 0.0143210540 0 0
0.0221102990 0.0127556140 0 0
0.0225269430 0.0122001500 0 0
0.0229439570 0.0126941930 0 0
0.0233134440 0.0141657110 0 0
0.0235868090 0.0164455850 0 0
0.0237226950 0.0192882110 0 0
0.0236956080 0.0223967520 0 0
0.0235021230 0.0254527350 0 0
0.0231610620 0.0281471650 0 0
0.0227075370 0.0302097560 0 1
0.0221841500 0.0314346370 0 1
0.0216326810 0.0317014660 0 1
0.0210885350 0.0309896470 0 1
0.0205795570 0.0293827180 0 0
0.0201289900 0.0270609600 0 0
0.0197595750 0.0242823280 0 0
0.0194948890 0.0213539590 0 0
0.0193564930 0.0185975140 0 0
0.0193589550 0.0163117960 0 0
0.0195063100 0.0147377330 0 0
0.0197917830 0.0140325540 0 0
0.0201993770 0.0142582610 0 0
0.0207044800 0.0153850600 0 0
0.0212727260 0.0173055670 0 0
0.0218593070 0.0198521450 0 0
0.0224117110 0.0228112750 0 0
0.0228766210 0.0259356800 0 0
0.0232084200 0.0289588650 0 0
0.0233759200 0.0316136570 0 1
0.0233661570 0.0336536280 0 1
0.0231859800 0.0348774570 0 1
0.0228615020 0.0351551880 0 1
0.0224344330 0.0344504590 0 1
0.0219552350 0.0328306890 0 1
0.0214747270 0.0304614670 0 1
0.0210364850 0.0275877080 0 0
0.0206716090 0.0245057740 0 0
0.0203962190 0.0215289510 0 0
0.0202115990 0.0189504140 0 0
0.0201074060 0.0170115270 0 0
0.0200674810 0.0158815280 0 0
0.0200749990 0.0156475870 0 0
0.0201134410 0.0163103920 0 0
0.0201640940 0.0177835630 0 0
0.0202039710 0.0199006080 0 0
0.0202059890 0.0224338670 0 0
0.0201405530 0.0251238110 0 0
0.0199790690 0.0277100980 0 0
0.0197006860 0.0299555500 0 0
0.0193004530 0.0316614700 0 1
0.0187946150 0.0326787780 0 1
0.0182205220 0.0329181160 0 1
0.0176315300 0.0323580830 0 1
0.0170884730 0.0310499780 0 1
0.0166493700 0.0291180560 0 0
0.0163596830 0.0267527540 0 0
0.0162462730 0.0241942830 0 0
0.0163172230 0.0217087420 0 0
0.0165664340 0.0195614060 0 0
0.0169791880 0.0179889870 0 0
0.0175347310 0.0171722470 0 0
0.0182040380 0.0172138710 0 0
0.0189448140 0.0181268110 0 0
0.0196984940 0.0198345420 0 0
0.0203926330 0.0221812490 0 0
0.0209490640 0.0249477840 0 0
0.0212962590 0.0278698930 0 0
0.0213830320 0.0306591360 0 1
0.0211896440 0.0330283630 0 1
0.0207320300 0.0347203490 0 1
0.0200574340 0.0355352150 0 1
0.0192342470 0.0353528960 0 1
0.0183407670 0.0341487540 0 1
0.0174551240 0.0320003820 0 1
0.0166462220 0.0290827130 0 0
0.0159668280 0.0256503490 0 0
0.0154516190 0.0220098090 0 0
0.0151205900 0.0184869440 0 0
0.0149837310 0.0153937220 0 0
0.0150420270 0.0129973010 0 0
0.0152843000 0.0114951390 0 0
0.0156841030 0.0109989750 0 0
0.0162005340 0.0115276980 0 0
0.0167828280 0.0130085990 0 0
0.0173763830 0.0152866270 0 0
0.0179286120 0.0181403180 0 0
0.0183940010 0.0213027410 0 0
0.0187381410 0.0244853360 0 0
0.0189408520 0.0274020330 0 0
0.0189983430 0.0297917210 0 0
0.0189231340 0.0314388190 0 1
0.0187405740 0.0321927190 0 1
0.0184836280 0.0319850960 0 1
0.0181896490 0.0308409590 0 1
0.0178994780 0.0288798590 0 0
0.0176543790 0.0263058020 0 0
0.0174883980 0.0233859500 0 0
0.0174200260 0.0204210820 0 0
0.0174484970 0.0177135210 0 0
0.0175562080 0.0155383080 0 0
0.0177153750 0.0141204600 0 0
0.0178960520 0.0136162630 0 0
0.0180729330 0.0140958790 0 0
0.0182290880 0.0155307480 0 0
0.0183566260 0.0177929820 0 0
0.0184558250 0.0206685250 0 0
0.0185331820 0.0238799540 0 0
0.0185973220 0.0271156740 0 0
0.0186535160 0.0300633410 0 1
0.0187002070 0.0324426320 0 1
0.0187295890 0.0340326540 0 1
0.0187310620 0.0346934170 0 1
0.0186954130 0.0343801020 0 1
0.0186185930 0.0331449700 0 1
0.0185041490 0.0311261950 0 1
0.0183632150 0.0285307740 0 0
0.0182123840 0.0256162220 0 0
0.0180716000 0.0226689490 0 0
0.0179630250 0.0199793230 0 0
0.0179084480 0.0178184660 0 0
0.0179231670 0.0164183440 0 0
0.0180092540 0.0159499560 0 0
0.0181532620 0.0164971910 0 0
0.0183292470 0.0180344500 0 0
0.0185037280 0.0204205920 0 0
0.0186402590 0.0234137480 0 0
0.0187039650 0.0267009150 0 0
0.0186659070 0.0299339230 0 0
0.0185058220 0.0327675280 0 1
0.0182133100 0.0348974260 0 1
0.0177896600 0.0360944650 0 1
0.0172510670 0.0362301540 0 1
0.0166301460 0.0352891830 0 1
0.0159722380 0.0333675150 0 1
0.0153273260 0.0306587060 0 1
0.0147418380 0.0274331100 0 0
0.0142542270 0.0240122580 0 0
0.0138952790 0.0207376630 0 0
0.0136903660 0.0179349830 0 0
0.0136588800 0.0158790960 0 0
0.0138087840 0.0147668490 0 0
0.0141295260 0.0147007130 0 0
0.0145890390 0.0156827940 0 0
0.0151376420 0.0176177270 0 0
0.0157168770 0.0203236770 0 0
0.0162687940 0.0235496060 0 0
0.0167424860 0.0269962220 0 0
0.0170976130 0.0303407830 0 1
0.0173066050 0.0332671230 0 1
0.0173571600 0.0354977540 0 1
0.0172550810 0.0368218550 0 1
0.0170251620 0.0371159280 0 1
0.0167072190 0.0363555750 0 1
0.0163474020 0.0346162170 0 1
0.0159883950 0.0320634120 0 1
0.0156620220 0.0289366170 0 0
0.0153859370 0.0255280250 0 0
0.0151653530 0.0221561320 0 0
0.0149987990 0.0191359410 0 0
0.0148843860 0.0167490490 0 0
0.0148240050 0.0152154970 0 0
0.0148254350 0.0146700760 0 0
0.0149023380 0.0151480770 0 0
0.0150714940 0.0165834940 0 0
0.0153480150 0.0188175870 0 0
0.0157404860 0.0216153010 0 0
0.0162467280 0.0246904480 0 0
0.0168498350 0.0277381330 0 0
0.0175159810 0.0304666750 0 1
0.0181970700 0.0326224740 0 1
0.0188387470 0.0340084070 0 1
0.0193906040 0.0344982880 0 1
0.0198148690 0.0340463260 0 1
0.0200916510 0.0326895550 0 1
0.0202200940 0.0305441450 0 1
0.0202153780 0.0277978150 0 0
0.0201027740 0.0246989270 0 0
0.0199115650 0.0215403470 0 0
0.0196715450 0.0186352860 0 0
0.0194120900 0.0162853140 0 0
0.0191611890 0.0147458090 0 0
0.0189426680 0.0141950820 0 0
0.0187729440 0.0147107880 0 0
0.0186596910 0.0162571120 0 0
0.0186025210 0.0186870840 0 0
0.0185941460 0.0217599490 0 0
0.0186216300 0.0251687660 0 0
0.0186686430 0.0285744860 0 0
0.0187188600 0.0316435250 0 1
0.0187592260 0.0340830060 0 1
0.0187818070 0.0356682380 0 1
0.0187843140 0.0362610210 0 1
0.0187698780 0.0358197350 0 1
0.0187461670 0.0344023370 0 1
0.0187240100 0.0321625530 0 1
0.0187159900 0.0293372200 0 0
0.0187350520 0.0262217300 0 0
0.0187929440 0.0231351730 0 0
0.0188985730 0.0203837250 0 0
0.0190556560 0.0182307840 0 0
0.0192586780 0.0168750670 0 0
0.0194890070 0.0164336030 0 0
0.0197154260 0.0169306450 0 0
0.0199006130 0.0182984320 0 0
0.0200110710 0.0203920090 0 0
0.0200270350 0.0230110140 0 0
0.0199492470 0.0259186140 0 0
0.0197998760 0.0288556060 0 0
0.0196164170 0.0315553600 0 1
0.0194402190 0.0337640430 0 1
0.0193040220 0.0352656030 0 1
0.0192234210 0.0359081400 0 1
0.0191948400 0.0356258660 0 1
0.0191996290 0.0344493840 0 1
0.0192122560 0.0325006160 0 1
0.0192090620 0.0299758180 0 0
0.0191732430 0.0271238850 0 0
0.0190951200 0.0242248300 0 0
0.0189717480 0.0215689100 0 0
0.0188094890 0.0194344130 0 0
0.0186270900 0.0180624300 0 0
0.0184539490 0.0176293730 0 0
0.0183226780 0.0182207920 0 0
0.0182601940 0.0198124930 0 0
0.0182811170 0.0222659770 0 0
0.0183849460 0.0253421480 0 0
0.0185572280 0.0287304920 0 0
0.0187730690 0.0320863060 0 1
0.0189999020 0.0350692890 0 1
0.0191988340 0.0373797500 0 1
0.0193279920 0.0387894490 0 1
0.0193505530 0.0391638940 0 1
0.0192447590 0.0384743920 0 1
0.0190105730 0.0367992330 0 1
0.0186704010 0.0343132270 0 1
0.0182648120 0.0312670890 0 1
0.0178450380 0.0279614160 0 0
0.0174637880 0.0247183750 0 0
0.0171661840 0.0218504070 0 0
0.0169826560 0.0196281200 0 0
0.0169247830 0.0182550480 0 0
0.0169842280 0.0178538860 0 0
0.0171350230 0.0184606220 0 0
0.0173391290 0.0200221070 0 0
0.0175537370 0.0223980380 0 0
0.0177381130 0.0253701130 0 0
0.0178588330 0.0286584640 0 0
0.0178931810 0.0319452230 0 1
0.0178308990 0.0349056750 0 1
0.0176754170 0.0372432920 0 1
0.0174453980 0.0387215610 0 1
0.0171745390 0.0391881780 0 1
0.0169062270 0.0385897800 0 1
0.0166831530 0.0369759500 0 1
0.0165365680 0.0344931590 0 1
0.0164802510 0.0313704860 0 1
0.0165112770 0.0278970860 0 0
0.0166166120 0.0243913730 0 0
0.0167817190 0.0211672840 0 0
0.0169959630 0.0185057140 0 0
0.0172521810 0.0166327830 0 0
0.0175428230 0.0157012160 0 0
0.0178566900 0.0157748780 0 0
0.0181779930 0.0168203300 0 0
0.0184875600 0.0187078520 0 0
0.0187658370 0.0212230570 0 0
0.0189971350 0.0240898390 0 0
0.0191737070 0.0270020540 0 0
0.0192977480 0.0296572270 0 0
0.0193798530 0.0317865830 0 1
0.0194335390 0.0331803600 0 1
0.0194681860 0.0337080350 0 1
0.0194855160 0.0333297670 0 1
0.0194825430 0.0320956550 0 1
0.0194578570 0.0301345860 0 1
0.0194155780 0.0276376360 0 0
0.0193650530 0.0248393470 0 0
0.0193184390 0.0219979880 0 0
0.0192879940 0.0193750610 0 0
0.0192828410 0.0172141660 0 0
0.0193053670 0.0157197090 0 0
0.0193491770 0.0150366940 0 0
0.0193862490 0.0152330760 0 0
0.0193018480 0.0162859730 0 0
0.0187730000 0.0180743680 0 0
0.0171921990 0.0203838180 0 0
0.0137378760 0.0229283440 0 0
0.0075624090 0.0253865860 0 0
-0.0020063880 0.0274401440 0 0
-0.0153224210 0.0288035860 0 0
-0.0323593280 0.0292460040 -1 0
-0.0527215090 0.0286089970 -1 0
-0.0757077010 0.0268224170 -1 0
-0.1004064130 0.0239153270 -1 0
-0.1258061680 0.0200185730 -1 0
-0.1509053990 0.0153562000 -1 0
-0.1748080800 0.0102263330 -1 0
-0.1967940910 0.0049750460 -1 0
-0.2163577920 -0.0000340609 -1 0
-0.2332135070 -0.0044532050 -1 0
-0.2472731180 -0.0079831740 -1 0
-0.2586078110 -0.0104002620 -1 0
-0.2674080220 -0.0115751410 -1 0
-0.2739493140 -0.0114844670 -1 0
-0.2785631210 -0.0102140480 -1 0
-0.2816085530 -0.0079504760 -1 0
-0.2834448260 -0.0049619230 -1 0
-0.2844072010 -0.0015728950 -1 0
-0.2847894090 0.0018643850 -1 0
-0.2848334610 0.0050022880 -1 0
-0.2847251510 0.0075311680 -1 0
-0.2845931850 0.0092083950 -1 0
-0.2845127300 0.0098799880 -1 0
-0.2845146270 0.0094930750 -1 0
-0.2845972680 0.0080962730 -1 0
-0.2847364450 0.0058282560 -1 0
-0.2848926730 0.0029004220 -1 0
-0.2850185820 -0.0004209200 -1 0
-0.2850673880 -0.0038340380 -1 0
-0.2850016590 -0.0070273860 -1 0
-0.2848013490 -0.0097101790 -1 0
-0.2844688860 -0.0116403480 -1 0
-0.2840277810 -0.0126450620 -1 0
-0.2835142480 -0.0126351550 -1 0
-0.2829670380 -0.0116139340 -1 0
-0.2824215380 -0.0096776990 -1 0
-0.2819094260 -0.0070072670 -1 0
-0.2814607370 -0.0038520470 -1 0
-0.2811041440 -0.0005070540 -1 0
-0.2808630110 0.0027167370 -1 0
-0.2807485400 0.0055252730 -1 0
-0.2807540070 0.0076711780 -1 0
-0.2808536750 0.0089755420 -1 0
-0.2810078440 0.0093426420 -1 0
-0.2811720320 0.0087701990 -1 0
-0.2813048720 0.0073527810 -1 0
-0.2813701790 0.0052742970 -1 0
-0.2813338570 0.0027892590 -1 0
-0.2811606710 0.0001940600 -1 0
-0.2808158870 -0.0022095830 -1 0
-0.2802731140 -0.0041518800 -1 0
-0.2795242760 -0.0054231440 -1 0
-0.2785845450 -0.0058888460 -1 0
-0.2774882300 -0.0054946860 -1 0
-0.2762790430 -0.0042654920 -1 0
-0.2750028230 -0.0022992410 -1 0
-0.2737080710 0.0002418220 -1 0
-0.2724522380 0.0031416160 -1 0
-0.2713063950 0.0061455550 -1 0
-0.2703519020 0.0089834720 -1 0
-0.2696686440 0.0113948070 -1 0
-0.2693201700 0.0131501280 -1 0
-0.2693423740 0.0140713510 -1 0
-0.2697389320 0.0140533060 -1 0
-0.2704823050 0.0130807930 -1 0
-0.2715182380 0.0112340160 -1 0
-0.2727730120 0.0086819300 -1 0
-0.2741622400 0.0056660340 -1 0
-0.2755985690 0.0024756440 -1 0
-0.2769966690 -0.0005832750 -1 0
-0.2782761640 -0.0032204610 -1 0
-0.2793640610 -0.0051898890 -1 0
-0.2801984370 -0.0063116450 -1 0
-0.2807347030 -0.0064852460 -1 0
-0.2809532630 -0.0056948850 -1 0
-0.2808642060 -0.0040098630 -1 0
-0.2805049650 -0.0015812950 -1 0
-0.2799317990 0.0013681630 -1 0
-0.2792104270 0.0045644690 -1 0
-0.2784098610 0.0077101040 -1 0
-0.2775980210 0.0105139330 -1 0
-0.2768352880 0.0127190150 -1 0
-0.2761657410 0.0141276090 -1 0
-0.2756103420 0.0146212000 -1 0
-0.2751662180 0.0141709640 -1 0
-0.2748120550 0.0128374040 -1 0
-0.2745157530 0.0107625160 -1 0
-0.2742402000 0.0081558960 -1 0
-0.2739478410 0.0052734230 -1 0
-0.2736082530 0.0023914290 -1 0
-0.2732081860 -0.0002169170 -1 0
-0.2727570050 -0.0023012240 -1 0
-0.2722830100 -0.0036537400 -1 0
-0.2718245780 -0.0041313060 -1 0
-0.2714230910 -0.0036753210 -1 0
-0.2711202980 -0.0023244380 -1 0
-0.2709579310 -0.0002166360 -1 0
-0.2709759800 0.0024222300 -1 0
-0.2712078660 0.0053039400 -1 0
-0.2716736740 0.0081119160 -1 0
-0.2723740110 0.0105356440 -1 0
-0.2732871940 0.0123014590 -1 0
-0.2743712270 0.0131990120 -1 0
-0.2755688880 0.0131027510 -1 0
-0.2768130990 0.0119867540 -1 0
-0.2780323410 0.0099309090 -1 0
-0.2791570310 0.0071164300 -1 0
-0.2801261450 0.0038089640 -1 0
-0.2808927010 0.0003310660 -1 0
-0.2814273200 -0.0029704790 -1 0
-0.2817190440 -0.0057587580 -1 0
-0.2817733430 -0.0077412740 -1 0
-0.2816088160 -0.0087031540 -1 0
-0.2812544000 -0.0085354990 -1 0
-0.2807475960 -0.0072536870 -1 0
-0.2801329710 -0.0050001930 -1 0
-0.2794597920 -0.0020294580 -1 0
-0.2787781100 0.0013233000 -1 0
-0.2781335090 0.0046842540 -1 0
-0.2775612870 0.0076867540 -1 0
-0.2770812710 0.0100126410 -1 0
-0.2766950860 0.0114240390 -1 0
-0.2763875280 0.0117841730 -1 0
-0.2761318010 0.0110663660 -1 0
-0.2758962450 0.0093511320 -1 0
-0.2756502440 0.0068143220 -1 0
-0.2753686930 0.0037101160 -1 0
-0.2750351860 0.0003493180 -1 0
-0.2746436520 -0.0029291050 -1 0
-0.2741982060 -0.0057929600 -1 0
-0.2737118080 -0.0079533280 -1 0
-0.2732044290 -0.0091960190 -1 0
-0.2727005810 -0.0094028730 -1 0
-0.2722260560 -0.0085594090 -1 0
-0.2718048300 -0.0067480420 -1 0
-0.2714576500 -0.0041317170 -1 0
-0.2712028780 -0.0009360580 -1 0
-0.2710586330 0.0025657550 -1 0
-0.2710433150 0.0060684030 -1 0
-0.2711716060 0.0092559660 -1 0
-0.2714468240 0.0118309530 -1 0
-0.2718546210 0.0135456970 -1 0
-0.2723621230 0.0142299540 -1 0
-0.2729222560 0.0138116210 -1 0
-0.2734804390 0.0123286330 -1 0
-0.2739814890 0.0099293550 -1 0
-0.2743760890 0.0068597700 -1 0
-0.2746264600 0.0034381800 -1 0
-0.2747105110 0.0000205115 -1 0
-0.2746244380 -0.0030383230 -1 0
-0.2743840200 -0.0054211280 -1 0
-0.2740230830 -0.0068799720 -1 0
-0.2735873590 -0.0072617210 -1 0
-0.2731256680 -0.0065253980 -1 0
-0.2726827120 -0.0047475810 -1 0
-0.2722955840 -0.0021138910 -1 0
-0.2719930590 0.0011026040 -1 0
-0.2717959890 0.0045738730 -1 0
-0.2717176430 0.0079559760 -1 0
-0.2717631660 0.0109281560 -1 0
-0.2719273790 0.0132256700 -1 0
-0.2721902650 0.0146620920 -1 0
-0.2725114500 0.0151397220 -1 0
-0.2728283850 0.0146497420 -1 0
-0.2730628880 0.0132654880 -1 0
-0.2731351390 0.0111322860 -1 0
-0.2729792900 0.0084556340 -1 0
-0.2725560890 0.0054870500 -1 0
-0.2718616710 0.0025052260 -1 0
-0.2709320170 -0.0002086660 -1 0
-0.2698402230 -0.0023989710 -1 0
-0.2686839030 -0.0038616340 -1 0
-0.2675650470 -0.0044640760 -1 0
-0.2665702210 -0.0041571230 -1 0
-0.2657586810 -0.0029789090 -1 0
-0.2651602380 -0.0010510180 -1 0
-0.2647798320 0.0014326080 -1 0
-0.2646051560 0.0042229280 -1 0
-0.2646152240 0.0070377570 -1 0
-0.2647886970 0.0095867560 -1 0
-0.2651100470 0.0115982690 -1 0
-0.2655707250 0.0128465440 -1 0
-0.2661639760 0.0131765910 -1 0
-0.2668758440 0.0125234290 -1 0
-0.2676778860 0.0109230090 -1 0
-0.2685256830 0.0085120010 -1 0
-0.2693627230 0.0055143680 -1 0
-0.2701266530 0.0022162510 -1 0
-0.2707569290 -0.0010655920 -1 0
-0.2712048700 -0.0040163550 -1 0
-0.2714442280 -0.0063533100 -1 0
-0.2714773470 -0.0078518760 -1 0
-0.2713342370 -0.0083673060 -1 0
-0.2710654370 -0.0078506020 -1 0
-0.2707310600 -0.0063551550 -1 0
-0.2703891200 -0.0040318460 -1 0
-0.2700865760 -0.0011137530 -1 0
-0.2698551320 0.0021071040 -1 0
-0.2697117770 0.0053085950 -1 0
-0.2696617670 0.0081700240 -1 0
-0.2697006460 0.0104031110 -1 0
-0.2698139960 0.0117799240 -1 0
-0.2699771340 0.0121568960 -1 0
-0.2701571220 0.0114927250 -1 0
-0.2703164640 0.0098553990 -1 0
-0.2704160830 0.0074159020 -1 0
-0.2704165710 0.0044302270 -1 0
-0.2702795570 0.0012102210 -1 0
-0.2699722600 -0.0019154930 -1 0
-0.2694760800 -0.0046415390 -1 0
-0.2687952520 -0.0067154940 -1 0
-0.2679589250 -0.0079550550 -1 0
-0.2670138870 -0.0082571100 -1 0
-0.2660133670 -0.0076010720 -1 0
-0.2650108540 -0.0060468110 -1 0
-0.2640615010 -0.0037284920 -1 0
-0.2632256370 -0.0008444440 -1 0
-0.2625680340 0.0023585100 -1 0
-0.2621511110 0.0056054480 -1 0
-0.2620238900 0.0086146190 -1 0
-0.2622103710 0.0111177290 -1 0
-0.2627016430 0.0128807520 -1 0
-0.2634546060 0.0137254030 -1 0
-0.2643969090 0.0135483220 -1 0
-0.2654358300 0.0123348310 -1 0
-0.2664696720 0.0101642720 -1 0
-0.2674010850 0.0072044020 -1 0
-0.2681506830 0.0036959480 -1 0
-0.2686675410 -0.0000688203 -1 0
-0.2689332590 -0.0037717910 -1 0
-0.2689594600 -0.0070985860 -1 0
-0.2687814060 -0.0097681040 -1 0
-0.2684498910 -0.0115574230 -1 0
-0.2680225330 -0.0123216140 -1 0
-0.2675564430 -0.0120090600 -1 0
-0.2671044450 -0.0106700110 -1 0
-0.2667147880 -0.0084546120 -1 0
-0.2664315180 -0.0055983350 -1 0
-0.2662919890 -0.0023958760 -1 0
-0.2663203750 0.0008326000 -1 0
-0.2665200510 0.0037775290 -1 0
-0.2668699390 0.0061723660 -1 0
-0.2673283990 0.0078175490 -1 0
-0.2678434570 0.0085955090 -1 0
-0.2683640020 0.0084786840 -1 0
-0.2688463750 0.0075298340 -1 0
-0.2692545170 0.0058929890 -1 0
-0.2695565930 0.0037774380 -1 0
-0.2697231320 0.0014381910 -1 0
-0.2697297520 -0.0008476940 -1 0
-0.2695632470 -0.0028088090 -1 0
-0.2692269210 -0.0042065030 -1 0
-0.2687417740 -0.0048583840 -1 0
-0.2681429850 -0.0046585030 -1 0
-0.2674740940 -0.0035913120 -1 0
-0.2667820290 -0.0017337770 -1 0
-0.2661137080 0.0007546650 -1 0
-0.2655118910 0.0036500520 -1 0
-0.2650090280 0.0066875150 -1 0
-0.2646217210 0.0095894950 -1 0
-0.2643497120 0.0120940940 -1 0
-0.2641804320 0.0139784730 -1 0
-0.2640964620 0.0150762450 -1 0
-0.2640815400 0.0152900730 -1 0
-0.2641220960 0.0145998770 -1 0
-0.2642051260 0.0130670470 -1 0
-0.2643166200 0.0108355320 -1 0
-0.2644441260 0.0081288480 -1 0
-0.2645822000 0.0052390110 -1 0
-0.2647352380 0.0025038440 -1 0
-0.2649133010 0.0002735250 -1 0
-0.2651224610 -0.0011292610 -1 0
-0.2653558870 -0.0014501790 -1 0
-0.2655912960 -0.0005384150 -1 0
-0.2657965020 0.0016315330 -1 0
-0.2659412210 0.0049566780 -1 0
-0.2660096300 0.0092204290 -1 0
-0.2660064540 0.0141208410 -1 0
-0.2659539210 0.0193065560 -1 0
-0.2658839180 0.0244146790 -1 0
-0.2658310120 0.0291063380 -1 0
-0.2658284490 0.0330986620 -1 1
-0.2659058820 0.0361921430 -1 1
-0.2660869080 0.0382913280 -1 1
-0.2663858980 0.0394172760 -1 1
-0.2668049550 0.0397107810 -1 1
-0.2673325150 0.0394240960 -1 1
-0.2679455120 0.0388982750 -1 1
-0.2686156940 0.0385275510 -1 1
-0.2693168080 0.0387178790 -1 1
-0.2700270620 0.0398462150 -1 1
-0.2707251780 0.0422228670 -1 1
-0.2713853870 0.0460579050 -1 1
-0.2719785500 0.0514351460 -1 1
-0.2724798530 0.0583003570 -1 1
-0.2728763710 0.0664684080 -1 1
-0.2731694080 0.0756477220 -1 1
-0.2733726600 0.0854766850 -1 1
-0.2735093390 0.0955659670 -1 1
-0.2736093870 0.1055390620 -1 1
-0.2737056040 0.1150640080 -1 1
-0.2738270550 0.1238742180 -1 1
-0.2739908130 0.1317812440 -1 1
-0.2741964790 0.1386833250 -1 1
-0.2744271630 0.1445702570 -1 1
-0.2746559480 0.1495215130 -1 1
-0.2748531080 0.1536971390 -1 1
-0.2749908450 0.1573253870 -1 1
-0.2750465860 0.1606876850 -1 1
-0.2750069930 0.1640947190 -1 1
-0.2748724160 0.1678497110 -1 1
-0.2746599240 0.1722042900 -1 1
-0.2744021980 0.1773177710 -1 1
-0.2741403320 0.1832303760 -1 1
-0.2739126430 0.1898583890 -1 1
-0.2737448110 0.1970120700 -1 1
-0.2736449930 0.2044272660 -1 1
-0.2736041890 0.2117993310 -1 1
-0.2736009140 0.2188143220 -1 1
-0.2736087290 0.2251761490 -1 1
-0.2736036130 0.2306278200 -1 1
-0.2735685200 0.2349661010 -1 1
-0.2734951910 0.2380515870 -1 1
-0.2733843690 0.2398169170 -1 1
-0.2732442150 0.2402743410 -1 1
-0.2730866260 0.2395216800 -1 1
-0.2729227860 0.2377439070 -1 1
-0.2727592270 0.2352050600 -1 1
-0.2725943040 0.2322256550 -1 1
-0.2724156360 0.2291476750 -1 1
-0.2722011380 0.2262962950 -1 1
-0.2719252940 0.2239467810 -1 1
-0.2715685000 0.2222998270 -1 1
-0.2711253580 0.2214667850 -1 1
-0.2706087510 0.2214655560 -1 1
-0.2700482450 0.2222251710 -1 1
-0.2694836430 0.2235968700 -1 1
-0.2689566510 0.2253708470 -1 1
-0.2685034230 0.2272961130 -1 1
-0.2681489650 0.2291004730 -1 1
-0.2679039870 0.2305116410 -1 1
-0.2677657120 0.2312822010 -1 1
-0.2677234410 0.2312170120 -1 1
-0.2677663600 0.2301975980 -1 1
-0.2678883970 0.2281988520 -1 1
-0.2680865690 0.2252964890 -1 1
-0.2683541930 0.2216643640 -1 1
-0.2686742200 0.2175603440 -1 1
-0.2690171210 0.2133014750 -1 1
-0.2693437640 0.2092312970 -1 1
-0.2696114230 0.2056817320 -1 1
-0.2697810660 0.2029332860 -1 1
-0.2698236850 0.2011810140 -1 1
-0.2697242640 0.2005135440 -1 1
-0.2694842320 0.2009081850 -1 1
-0.2691225120 0.2022412560 -1 1
-0.2686723510 0.2043093250 -1 1
-0.2681723260 0.2068543140 -1 1
-0.2676558170 0.2095861200 -1 1
-0.2671461350 0.2122012840 -1 1
-0.2666595770 0.2144020320 -1 1
-0.2662114410 0.2159204680 -1 1
-0.2658189850 0.2165462200 -1 1
-0.2655002420 0.2161496900 -1 1
-0.2652709530 0.2146935540 -1 1
-0.2651414460 0.2122316190 -1 1
-0.2651146390 0.2089012230 -1 1
-0.2651856480 0.2049153210 -1 1
-0.2653413850 0.2005531420 -1 1
-0.2655587140 0.1961420300 -1 1
-0.2658040370 0.1920248030 -1 1
-0.2660391070 0.1885171510 -1 1
-0.2662320470 0.1858692320 -1 1
-0.2663662730 0.1842425260 -1 1
-0.2664418880 0.1836996250 -1 1
-0.2664706270 0.1841988060 -1 1
-0.2664684010 0.1855930750 -1 1
-0.2664486270 0.1876411140 -1 1
-0.2664181380 0.1900342240 -1 1
-0.2663768490 0.1924350130 -1 1
-0.2663211010 0.1945184380 -1 1
-0.2662479540 0.1960061260 -1 1
-0.2661564360 0.1966898910 -1 1
-0.2660439760 0.1964469230 -1 1
-0.2659002220 0.1952506660 -1 1
-0.2657031200 0.1931766700 -1 1
-0.2654218850 0.1903993110 -1 1
-0.2650273160 0.1871768900 -1 1
-0.2645039400 0.1838251030 -1 1
-0.2638569190 0.1806813330 -1 1
-0.2631115860 0.1780661920 -1 1
-0.2623080290 0.1762495860 -1 1
-0.2614934040 0.1754238290 -1 1
-0.2607143210 0.1756835620 -1 1
-0.2600120000 0.1770149860 -1 1
-0.2594207620 0.1792981130 -1 1
-0.2589674750 0.1823204790 -1 1
-0.2586696060 0.1857971260 -1 1
-0.2585321170 0.1893960360 -1 1
-0.2585453590 0.1927714860 -1 1
-0.2586858490 0.1956018240 -1 1
-0.2589200090 0.1976222040 -1 1
-0.2592093110 0.1986472620 -1 1
-0.2595146040 0.1985857660 -1 1
-0.2597982390 0.1974486450 -1 1
-0.2600244950 0.1953478000 -1 1
-0.2601598960 0.1924839010 -1 1
-0.2601744960 0.1891253670 -1 1
-0.2600442220 0.1855823390 -1 1
-0.2597545340 0.1821782680 -1 1
-0.2593055830 0.1792202770 -1 1
-0.2587167390 0.1769690140 -1 1
-0.2580272280 0.1756110910 -1 1
-0.2572921140 0.1752411820 -1 1
-0.2565745960 0.1758588790 -1 1
-0.2559342720 0.1773765910 -1 1
-0.2554128200 0.1796306550 -1 1
-0.2550237520 0.1823931270 -1 1
-0.2547524190 0.1853872760 -1 1
-0.2545649350 0.1883087650 -1 1
-0.2544201870 0.1908516260 -1 1
-0.2542810140 0.1927379110 -1 1
-0.2541223460 0.1937492550 -1 1
-0.2539342380 0.1937555510 -1 1
-0.2537194960 0.1927347810 -1 1
-0.2534878160 0.1907790910 -1 1
-0.2532491630 0.1880839150 -1 1
-0.2530085990 0.1849225300 -1 1
-0.2527643750 0.1816136350 -1 1
-0.2525100640 0.1784878010 -1 1
-0.2522394750 0.1758555370 -1 1
-0.2519517700 0.1739791680 -1 1
-0.2516545510 0.1730487460 -1 1
-0.2513639100 0.1731625650 -1 1
-0.2511019620 0.1743178640 -1 1
-0.2508928450 0.1764161430 -1 1
-0.2507569070 0.1792782580 -1 1
-0.2507033140 0.1826612940 -1 1
-0.2507249940 0.1862755430 -1 1
-0.2508006900 0.1898053960 -1 1
-0.2509034860 0.1929374810 -1 1
-0.2510099240 0.1953943110 -1 1
-0.2511048690 0.1969673880 -1 1
-0.2511816870 0.1975433360 -1 1
-0.2512391580 0.1971190580 -1 1
-0.2512764120 0.1958043660 -1 1
-0.2512880400 0.1938105960 -1 1
-0.2512620670 0.1914245460 -1 1
-0.2511814880 0.1889727120 -1 1
-0.2510279670 0.1867841630 -1 1
-0.2507862190 0.1851574730 -1 1
-0.2504485300 0.1843329870 -1 1
-0.2500186270 0.1844699380 -1 1
-0.2495130360 0.1856299030 -1 1
-0.2489587640 0.1877712890 -1 1
-0.2483880130 0.1907578280 -1 1
-0.2478311830 0.1943783690 -1 1
-0.2473104230 0.1983715770 -1 1
-0.2468381020 0.2024504140 -1 1
-0.2464219490 0.2063253780 -1 1
-0.2460719570 0.2097280850 -1 1
-0.2458025470 0.2124353990 -1 1
-0.2456287180 0.2142910900 -1 1
-0.2455597940 0.2152217220 -1 1
-0.2455947620 0.2152454500 -1 1
-0.2457209610 0.2144730050 -1 1
-0.2459153430 0.2130996810 -1 1
-0.2461464880 0.2113874420 -1 1
-0.2463769820 0.2096383570 -1 1
-0.2465678910 0.2081635250 -1 1
-0.2466857920 0.2072521450 -1 1
-0.2467093230 0.2071432840 -1 1
-0.2466316400 0.2080022550 -1 1
-0.2464581450 0.2099046780 -1 1
-0.2462015400 0.2128309650 -1 1
-0.2458766890 0.2166707180 -1 1
-0.2454966740 0.2212340650 -1 1
-0.2450707570 0.2262674000 -1 1
-0.2446055050 0.2314733000 -1 1
-0.2441096370 0.2365358580 -1 1
-0.2435998740 0.2411507970 -1 1
-0.2431029360 0.2450566150 -1 1
-0.2426516290 0.2480628010 -1 1
-0.2422776690 0.2500720300 -1 1
-0.2420052020 0.2510917770 -1 1
-0.2418469420 0.2512307500 -1 1
-0.2418032980 0.2506808790 -1 1
-0.2418643170 0.2496911830 -1 1
-0.2420133090 0.2485398070 -1 1
-0.2422298940 0.2475074900 -1 1
-0.2424903760 0.2468542760 -1 1
-0.2427654720 0.2467999020 -1 1
-0.2430185540 0.2475066610 -1 1
-0.2432080920 0.2490648810 -1 1
-0.2432944890 0.2514828540 -1 1
-0.2432486940 0.2546815260 -1 1
-0.2430601110 0.2584943630 -1 1
-0.2427409760 0.2626765690 -1 1
-0.2423243030 0.2669280490 -1 1
-0.2418561110 0.2709279350 -1 1
-0.2413858420 0.2743733430 -1 1
-0.2409575090 0.2770151160 -1 1
-0.2406022370 0.2786846750 -1 1
-0.2403339490 0.2793081590 -1 1
-0.2401502240 0.2789083080 -1 1
-0.2400369880 0.2775977270 -1 1
-0.2399729100 0.2755664760 -1 1
-0.2399314750 0.2730644780 -1 1
-0.2398825220 0.2703780660 -1 1
-0.2397956120 0.2678019340 -1 1
-0.2396452760 0.2656111760 -1 1
-0.2394161560 0.2640377910 -1 1
-0.2391062360 0.2632516720 -1 1
-0.2387276570 0.2633451300 -1 1
-0.2383051950 0.2643234290 -1 1
-0.2378717100 0.2661043390 -1 1
-0.2374606140 0.2685259990 -1 1
-0.2370987640 0.2713599000 -1 1
-0.2368039520 0.2743276240 -1 1
-0.2365864620 0.2771231170 -1 1
-0.2364501760 0.2794417230 -1 1
-0.2363911570 0.2810131160 -1 1
-0.2363962090 0.2816319860 -1 1
-0.2364439930 0.2811811400 -1 1
-0.2365085630 0.2796448200 -1 1
-0.2365643330 0.2771121240 -1 1
-0.2365913550 0.2737709370 -1 1
-0.2365780220 0.2698925650 -1 1
-0.2365188750 0.2658069800 -1 1
-0.2364094070 0.2618693980 -1 1
-0.2362423160 0.2584217190 -1 1
-0.2360077510 0.2557551250 -1 1
-0.2356971510 0.2540794020 -1 1
-0.2353087140 0.2535008030 -1 1
-0.2348518630 0.2540090140 -1 1
-0.2343486550 0.2554758040 -1 1
-0.2338319640 0.2576676540 -1 1
-0.2333411060 0.2602711430 -1 1
-0.2329148030 0.2629277560 -1 1
-0.2325820930 0.2652737100 -1 1
-0.2323546870 0.2669788760 -1 1
-0.2322258750 0.2677794130 -1 1
-0.2321771470 0.2675015120 -1 1
-0.2321870230 0.2660758000 -1 1
-0.2322353550 0.2635425950 -1 1
-0.2323025700 0.2600481800 -1 1
-0.2323689590 0.2558319120 -1 1
-0.2324175380 0.2512036970 -1 1
-0.2324383470 0.2465122160 -1 1
-0.2324299550 0.2421082770 -1 1
-0.2323970350 0.2383109440 -1 1
-0.2323465650 0.2353805110 -1 1
-0.2322854870 0.2334962340 -1 1
-0.2322199890 0.2327379700 -1 1
-0.2321550660 0.2330762490 -1 1
-0.2320937010 0.2343749470 -1 1
-0.2320359270 0.2364058730 -1 1
-0.2319784160 0.2388731890 -1 1
-0.2319154990 0.2414464450 -1 1
-0.2318419950 0.2437985900 -1 1
-0.2317569270 0.2456417360 -1 1
-0.2316663660 0.2467538320 -1 1
-0.2315834340 0.2469932020 -1 1
-0.2315235490 0.2463017020 -1 1
-0.2314953800 0.2447004080 -1 1
-0.2314925260 0.2422829110 -1 1
-0.2314920680 0.2392080080 -1 1
-0.2314607500 0.2356891350 -1 1
-0.2313640080 0.2319783110 -1 1
-0.2311733960 0.2283462050 -1 1
-0.2308717240 0.2250612300 -1 1
-0.2304567350 0.2223687150 -1 1
-0.2299424030 0.2204695100 -1 1
-0.2293567370 0.2194989790 -1 1
-0.2287377780 0.2195102010 -1 1
-0.2281292680 0.2204637780 -1 1
-0.2275749540 0.2222244700 -1 1
-0.2271117070 0.2245676870 -1 1
-0.2267641550 0.2271993820 -1 1
-0.2265427200 0.2297872640 -1 1
-0.2264454630 0.2319983230 -1 1
-0.2264631310 0.2335385590 -1 1
-0.2265850470 0.2341882050 -1 1
-0.2268022130 0.2338238060 -1 1
-0.2271056630 0.2324251870 -1 1
-0.2274819040 0.2300723910 -1 1
-0.2279093230 0.2269366250 -1 1
-0.2283583240 0.2232657960 -1 1
-0.2287951770 0.2193640100 -1 1
-0.2291870530 0.2155629710 -1 1
-0.2295056110 0.2121847870 -1 1
-0.2297288080 0.2095028710 -1 1
-0.2298424300 0.2077115870 -1 1
-0.2298414700 0.2069094870 -1 1
-0.2297298870 0.2070934730 -1 1
-0.2295190310 0.2081607570 -1 1
-0.2292275570 0.2099192420 -1 1
-0.2288836430 0.2121078860 -1 1
-0.2285251890 0.2144255080 -1 1
-0.2281927350 0.2165633200 -1 1
-0.2279162020 0.2182363630 -1 1
-0.2277036070 0.2192113790 -1 1
-0.2275391430 0.2193296290 -1 1
-0.2273907780 0.2185210210 -1 1
-0.2272212410 0.2168062460 -1 1
-0.2269960640 0.2142894780 -1 1
-0.2266872790 0.2111470850 -1 1
-0.2262755550 0.2076134370 -1 1
-0.2257526530 0.2039615650 -1 1
-0.2251237650 0.2004793650 -1 1
-0.2244091170 0.1974448960 -1 1
-0.2236433620 0.1951025850 -1 1
-0.2228697610 0.1936407400 -1 1
-0.2221295250 0.1931728150 -1 1
-0.2214526600 0.1937260020 -1 1
-0.2208565580 0.1952372120 -1 1
-0.2203511300 0.1975529520 -1 1
-0.2199435820 0.2004339350 -1 1
-0.2196388670 0.2035717390 -1 1
-0.2194376910 0.2066205620 -1 1
-0.2193351290 0.2092370820 -1 1
-0.2193213210 0.2111195470 -1 1
-0.2193844240 0.2120419470 -1 1
-0.2195139910 0.2118794600 -1 1
-0.2197020710 0.2106191970 -1 1
-0.2199414140 0.2083551530 -1 1
-0.2202220380 0.2052730300 -1 1
-0.2205279010 0.2016293710 -1 1
-0.2208361250 0.1977267240 -1 1
-0.2211200360 0.1938875030 -1 1
-0.2213535100 0.1904269460 -1 1
-0.2215136020 0.1876226360 -1 1
-0.2215825300 0.1856830520 -1 1
-0.2215511900 0.1847246520 -1 1
-0.2214219620 0.1847637690 -1 1
-0.2212069730 0.1857204400 -1 1
-0.2209226690 0.1874296920 -1 1
-0.2205852600 0.1896606200 -1 1
-0.2202096020 0.1921432610 -1 1
-0.2198103120 0.1945972530 -1 1
-0.2194028210 0.1967555450 -1 1
-0.2190027380 0.1983828430 -1 1
-0.2186227150 0.1992924820 -1 1
-0.2182678810 0.1993629720 -1 1
-0.2179334080 0.1985518070 -1 1
-0.2176066920 0.1969028430 -1 1
-0.2172725130 0.1945447440 -1 1
-0.2169180570 0.1916806390 -1 1
-0.2165367340 0.1885702280 -1 1
-0.2161303430 0.1855042400 -1 1
-0.2157083770 0.1827717250 -1 1
-0.2152845500 0.1806255130 -1 1
-0.2148735110 0.1792540150 -1 1
-0.2144908500 0.1787638290 -1 1
-0.2141555610 0.1791729610 -1 1
-0.2138903300 0.1804142020 -1 1
-0.2137162710 0.1823471510 -1 1
-0.2136445760 0.1847738160 -1 1
-0.2136715890 0.1874537840 -1 1
-0.2137813510 0.1901204870 -1 1
-0.2139532730 0.1925013940 -1 1
-0.2141696160 0.1943419100 -1 1
-0.2144195290 0.1954314580 -1 1
-0.2146991580 0.1956298780 -1 1
-0.2150081420 0.1948896740 -1 1
-0.2153429000 0.1932677770 -1 1
-0.2156891620 0.1909220920 -1 1
-0.2160187420 0.1880909230 -1 1
-0.2162934870 0.1850584620 -1 1
-0.2164736120 0.1821163510 -1 1
-0.2165255390 0.1795327060 -1 1
-0.2164278800 0.1775326810 -1 1
-0.2161775650 0.1762867220 -1 1
-0.2157955150 0.1759010100 -1 1
-0.2153257130 0.1764072270 -1 1
-0.2148238950 0.1777526270 -1 1
-0.2143424200 0.1797962620 -1 1
-0.2139214030 0.1823186820 -1 1
-0.2135883580 0.1850453310 -1 1
-0.2133614290 0.1876757940 -1 1
-0.2132516990 0.1899129170 -1 1
-0.2132628810 0.1914916680 -1 1
-0.2133884690 0.1922071340 -1 1
-0.2136085240 0.1919376700 -1 1
-0.2138894280 0.1906599430 -1 1
-0.2141875900 0.1884541900 -1 1
-0.2144554440 0.1854971920 -1 1
-0.2146485240 0.1820429750 -1 1
-0.2147331840 0.1783966580 -1 1
-0.2146934000 0.1748863440 -1 1
-0.2145337680 0.1718325730 -1 1
-0.2142772680 0.1695150340 -1 1
-0.2139596190 0.1681410610 -1 1
-0.2136230500 0.1678218820 -1 1
-0.2133105400 0.1685610250 -1 1
-0.2130602550 0.1702573680 -1 1
-0.2129001680 0.1727208960 -1 1
-0.2128433100 0.1756941950 -1 1
-0.2128848670 0.1788750650 -1 1
-0.2130034530 0.1819434450 -1 1
-0.2131676750 0.1845953570 -1 1
-0.2133454160 0.1865770170 -1 1
-0.2135112340 0.1877095450 -1 1
-0.2136491460 0.1879024420 -1 1
-0.2137514460 0.1871584800 -1 1
-0.2138155680 0.1855705030 -1 1
-0.2138401920 0.1833101290 -1 1
-0.2138214980 0.1806097670 -1 1
-0.2137516390 0.1777384180 -1 1
-0.2136210300 0.1749723380 -1 1
-0.2134232620 0.1725652260 -1 1
-0.2131597260 0.1707233840 -1 1
-0.2128418320 0.1695882400 -1 1
-0.2124906120 0.1692267080 -1 1
-0.2121349490 0.1696294160 -1 1
-0.2118087480 0.1707151200 -1 1
-0.2115452200 0.1723384000 -1 1
-0.2113674400 0.1743005130 -1 1
-0.2112790000 0.1763666950 -1 1
-0.2112610270 0.1782903220 -1 1
-0.2112784850 0.1798380970 -1 1
-0.2112926720 0.1808106830 -1 1
-0.2112734320 0.1810595380 -1 1
-0.2112054910 0.1805024180 -1 1
-0.2110872730 0.1791359220 -1 1
-0.2109250620 0.1770411140 -1 1
-0.2107272230 0.1743793650 -1 1
-0.2105008180 0.1713776150 -1 1
-0.2102498680 0.1683042020 -1 1
-0.2099742500 0.1654385820 -1 1
-0.2096694170 0.1630399440 -1 1
-0.2093278520 0.1613194040 -1 1
-0.2089430130 0.1604188170 -1 1
-0.2085148160 0.1603979770 -1 1
-0.2080534010 0.1612311310 -1 1
-0.2075780400 0.1628126000 -1 1
-0.2071114080 0.1649696180 -1 1
-0.2066732790 0.1674795770 -1 1
-0.2062779720 0.1700894550 -1 1
-0.2059357450 0.1725365070 -1 1
-0.2056551110 0.1745702740 -1 1
-0.2054440860 0.1759751980 -1 1
-0.2053101250 0.1765909960 -1 1
-0.2052587480 0.1763279040 -1 1
-0.2052914010 0.1751756300 -1 1
-0.2054040080 0.1732058070 -1 1
-0.2055871270 0.1705683910 -1 1
-0.2058270450 0.1674814090 -1 1
-0.2061070510 0.1642119900 -1 1
-0.2064091680 0.1610493710 -1 1
-0.2067161460 0.1582754970 -1 1
-0.2070125330 0.1561385330 -1 1
-0.2072848580 0.1548298000 -1 1
-0.2075221190 0.1544634030 -1 1
-0.2077164800 0.1550618540 -1 1
-0.2078632550 0.1565526280 -1 1
-0.2079601230 0.1587768740 -1 1
-0.2080058920 0.1615071010 -1 1
-0.2079995020 0.1644686510 -1 1
-0.2079405230 0.1673626780 -1 1
-0.2078314300 0.1698923620 -1 1
-0.2076804310 0.1717911400 -1 1
-0.2075027800 0.1728477330 -1 1
-0.2073185590 0.1729257800 -1 1
-0.2071467950 0.1719794700 -1 1
-0.2069987210 0.1700643070 -1 1
-0.2068736310 0.1673389240 -1 1
-0.2067589530 0.1640545730 -1 1
-0.2066342760 0.1605319100 -1 1
-0.2064778930 0.1571267900 -1 1
-0.2062737280 0.1541882100 -1 1
-0.2060162060 0.1520136220 -1 1
-0.2057109430 0.1508087060 -1 1
-0.2053709430 0.1506602620 -1 1
-0.2050107290 0.1515300740 -1 1
-0.2046420410 0.1532698620 -1 1
-0.2042732820 0.1556479840 -1 1
-0.2039124620 0.1583784550 -1 1
-0.2035710020 0.1611499020 -1 1
-0.2032650340 0.1636555660 -1 1
-0.2030130870 0.1656235620 -1 1
-0.2028314440 0.1668445430 -1 1
-0.2027285220 0.1671932980 -1 1
-0.2026994370 0.1666396210 -1 1
-0.2027228730 0.1652444130 -1 1
-0.2027628430 0.1631432180 -1 1
-0.2027771350 0.1605257030 -1 1
-0.2027312510 0.1576175750 -1 1
-0.2026119540 0.1546645750 -1 1
-0.2024330610 0.1519156570 -1 1
-0.2022311680 0.1496042420 -1 1
-0.2020549830 0.1479285200 -1 1
-0.2019526460 0.1470331270 -1 1
-0.2019591700 0.1469948750 -1 1
-0.2020865410 0.1478150900 -1 1
-0.2023203680 0.1494196510 -1 1
-0.2026250070 0.1516648440 -1 1
-0.2029551320 0.1543467790 -1 1
-0.2032693450 0.1572150280 -1 1
-0.2035413710 0.1599921360 -1 1
-0.2037654850 0.1623982100 -1 1
-0.2039546130 0.1641774930 -1 1
-0.2041320400 0.1651246300 -1 1
-0.2043203960 0.1651098490 -1 1
-0.2045325970 0.1640993960 -1 1
-0.2047669800 0.1621634070 -1 1
-0.2050055150 0.1594668720 -1 1
-0.2052136470 0.1562482100 -1 1
-0.2053427060 0.1527935220 -1 1
-0.2053367810 0.1494114820 -1 1
-0.2051435250 0.1464090620 -1 1
-0.2047257710 0.1440648980 -1 1
-0.2040708930 0.1425990640 -1 1
-0.2031956660 0.1421443670 -1 1
-0.2021453680 0.1427271450 -1 1
-0.2009879770 0.1442628300 -1 1
-0.1998056090 0.1465666030 -1 1
-0.1986847310 0.1493754140 -1 1
-0.1977061850 0.1523769090 -1 1
-0.1969362400 0.1552416440 -1 1
-0.1964196130 0.1576548190 -1 1
-0.1961748450 0.1593447110 -1 1
-0.1961921190 0.1601074430 -1 1
-0.1964342970 0.1598279410 -1 1
-0.1968425130 0.1584943310 -1 1
-0.1973455310 0.1562024600 -1 1
-0.1978698500 0.1531498940 -1 1
-0.1983483390 0.1496199470 -1 1
-0.1987271940 0.1459547960 -1 1
-0.1989713740 0.1425181610 -1 1
-0.1990679500 0.1396530500 -1 1
-0.1990260760 0.1376426380 -1 1
-0.1988721000 0.1366801540 -1 1
-0.1986395620 0.1368502040 -1 1
-0.1983564520 0.1381221510 -1 1
-0.1980353140 0.1403553560 -1 1
-0.1976722590 0.1433154750 -1 1
-0.1972560660 0.1467000970 -1 1
-0.1967817110 0.1501703030 -1 1
-0.1962600550 0.1533846650 -1 1
-0.1957193410 0.1560336430 -1 1
-0.1952002720 0.1578710960 -1 1
-0.1947484620 0.1587377960 -1 1
-0.1944059100 0.1585746620 -1 1
-0.1942013700 0.1574265500 -1 1
-0.1941409240 0.1554358570 -1 1
-0.1942030430 0.1528243840 -1 1
-0.1943422350 0.1498659250 -1 1
-0.1945005630 0.1468549680 -1 1
-0.1946220950 0.1440760100 -1 1
-0.1946651820 0.1417767820 -1 1
-0.1946095980 0.1401481030 -1 1
-0.1944572220 0.1393110340 -1 1
-0.1942256030 0.1393101830 -1 1
-0.1939359370 0.1401127790 -1 1
-0.1936015730 0.1416140640 -1 1
-0.1932247730 0.1436474940 -1 1
-0.1928039470 0.1459975920 -1 1
-0.1923458620 0.1484166290 -1 1
-0.1918744810 0.1506470960 -1 1
-0.1914317760 0.1524471260 -1 1
-0.1910713030 0.1536136560 -1 1
-0.1908478130 0.1540020040 -1 1
-0.1908052990 0.1535423270 -1 1
-0.1909654660 0.1522495860 -1 1
-0.1913203870 0.1502240850 -1 1
-0.1918332310 0.1476442950 -1 1
-0.1924473070 0.1447525180 -1 1
-0.1930988120 0.1418301410 -1 1
-0.1937271990 0.1391635990 -1 1
-0.1942804080 0.1370097760 -1 1
-0.1947171810 0.1355687140 -1 1
-0.1950096930 0.1349652790 -1 1
-0.1951467430 0.1352401640 -1 1
-0.1951361930 0.1363513020 -1 1
-0.1950058130 0.1381825940 -1 1
-0.1948013310 0.1405545030 -1 1
-0.1945805280 0.1432361920 -1 1
-0.1944037610 0.1459630970 -1 1
-0.1943229940 0.1484602980 -1 1
-0.1943729200 0.1504670740 -1 1
-0.1945676200 0.1517593940 -1 1
-0.1949026670 0.1521721620 -1 1
-0.1953583960 0.1516224150 -1 1
-0.1959009750 0.1501277390 -1 1
-0.1964826480 0.1478111630 -1 1
-0.1970444290 0.1448889550 -1 1
-0.1975224620 0.1416444030 -1 1
-0.1978570870 0.1383930420 -1 1
-0.1980027840 0.1354449080 -1 1
-0.1979366350 0.1330704500 -1 1
-0.1976631700 0.1314758010 -1 1
-0.1972144070 0.1307875040 -1 1
-0.1966447310 0.1310438780 -1 1
-0.1960209380 0.1321942550 -1 1
-0.1954090330 0.1341085770 -1 1
-0.1948611010 0.1365937580 -1 1
-0.1944058210 0.1394110750 -1 1
-0.1940451500 0.1422943950 -1 1
-0.1937586260 0.1449717590 -1 1
-0.1935133930 0.1471888920 -1 1
-0.1932737370 0.1487308370 -1 1
-0.1930049510 0.1494406580 -1 1
-0.1926732090 0.1492350290 -1 1
-0.1922476010 0.1481139220 -1 1
-0.1917075640 0.1461626960 -1 1
-0.1910523540 0.1435481930 -1 1
-0.1903064410 0.1405091680 -1 1
-0.1895177530 0.1373379780 -1 1
-0.1887498960 0.1343520150 -1 1
-0.1880709530 0.1318588970 -1 1
-0.1875413260 0.1301220160 -1 1
-0.1872032180 0.1293307280 -1 1
-0.1870742880 0.1295770780 -1 1
-0.1871467910 0.1308414690 -1 1
-0.1873919760 0.1329913640 -1 1
-0.1877678610 0.1357961870 -1 1
-0.1882273590 0.1389569560 -1 1
-0.1887238610 0.1421445710 -1 1
-0.1892131140 0.1450396960 -1 1
-0.1896533120 0.1473682970 -1 1
-0.1900069270 0.1489272350 -1 1
-0.1902448650 0.1495958290 -1 1
-0.1903501470 0.1493352570 -1 1
-0.1903192720 0.1481826350 -1 1
-0.1901613880 0.1462435190 -1 1
-0.1898953290 0.1436813070 -1 1
-0.1895453630 0.1407034800 -1 1
-0.1891380410 0.1375473790 -1 1
-0.1887017630 0.1344656520 -1 1
-0.1882680640 0.1317091370 -1 1
-0.1878721470 0.1295071280 -1 1
-0.1875505890 0.1280466110 -1 1
-0.1873356260 0.1274515450 -1 1
-0.1872473360 0.1277644220 -1 1
-0.1872868430 0.1289349900 -1 1
-0.1874342220 0.1308206680 -1 1
-0.1876526240 0.1331994210 -1 1
-0.1878972670 0.1357928680 -1 1
-0.1881265530 0.1382968450 -1 1
-0.1883120650 0.1404165800 -1 1
-0.1884433320 0.1419025380 -1 1
-0.1885244090 0.1425807900 -1 1
-0.1885638440 0.1423712900 -1 1
-0.1885641380 0.1412914130 -1 1
-0.1885167920 0.1394475080 -1 1
-0.1884052440 0.1370189810 -1 1
-0.1882131690 0.1342380300 -1 1
-0.1879328680 0.1313665210 -1 1
-0.1875698740 0.1286717100 -1 1
-0.1871431000 0.1264034140 -1 1
-0.1866813890 0.1247740260 -1 1
-0.1862175570 0.1239408190 -1 1
-0.1857816380 0.1239909830 -1 1
-0.1853956750 0.1249325130 -1 1
-0.1850719330 0.1266930990 -1 1
-0.1848148870 0.1291250400 -1 1
-0.1846253750 0.1320143630 -1 1
-0.1845040200 0.1350970300 -1 1
-0.1844515000 0.1380847660 -1 1
-0.1844657000 0.1406970140 -1 1
-0.1845382640 0.1426928150 -1 1
-0.1846530750 0.1438981200 -1 1
-0.1847873150 0.1442249200 -1 1
-0.1849141840 0.1436789880 -1 1
-0.1850062120 0.1423551330 -1 1
-0.1850388380 0.1404222380 -1 1
-0.1849942080 0.1381016140 -1 1
-0.1848640530 0.1356413820 -1 1
-0.1846500030 0.1332902760 -1 1
-0.1843613800 0.1312753120 -1 1
-0.1840123090 0.1297853940 -1 1
-0.1836194450 0.1289593970 -1 1
-0.1832002880 0.1288766850 -1 1
-0.1827717160 0.1295496810 -1 1
-0.1823484290 0.1309191620 -1 1
-0.1819408730 0.1328536880 -1 1
-0.1815532950 0.1351559450 -1 1
-0.1811837530 0.1375789620 -1 1
-0.1808267210 0.1398514330 -1 1
-0.1804766450 0.1417063720 -1 1
-0.1801301620 0.1429071380 -1 1
-0.1797863630 0.1432695050 -1 1
-0.1794464150 0.1426811030 -1 1
-0.1791142390 0.1411170520 -1 1
-0.1787981560 0.1386477630 -1 1
-0.1785113780 0.1354360350 -1 1
-0.1782692900 0.1317239780 -1 1
-0.1780831650 0.1278118760 -1 1
-0.1779519760 0.1240302440 -1 1
-0.1778567710 0.1207067410 -1 1
-0.1777625560 0.1181322100 -1 1
-0.1776276550 0.1165310130 -1 1
-0.1774146100 0.1160382610 -1 1
-0.1770965980 0.1166840330 -1 1
-0.1766584060 0.1183857500 -1 1
-0.1760957640 0.1209524360 -1 1
-0.1754169420 0.1241039500 -1 1
-0.1746465180 0.1275044040 -1 1
-0.1738273960 0.1308039420 -1 1
-0.1730173310 0.1336805530 -1 1
-0.1722792590 0.1358748280 -1 1
-0.1716682150 0.1372133140 -1 1
-0.1712203000 0.1376188490 -1 1
-0.1709483130 0.1371091520 -1 1
-0.1708438050 0.1357863310 -1 1
-0.1708818320 0.1338203850 -1 1
-0.1710265470 0.1314300130 -1 1
-0.1712382270 0.1288628900 -1 1
-0.1714806710 0.1263752070 -1 1
-0.1717254920 0.1242101740 -1 1
-0.1719522510 0.1225778590 -1 1
-0.1721474190 0.1216394960 -1 1
-0.1723045300 0.1214964620 -1 1
-0.1724241980 0.1221822790 -1 1
-0.1725125800 0.1236569840 -1 1
-0.1725796350 0.1258043800 -1 1
-0.1726386190 0.1284339710 -1 1
-0.1727061930 0.1312917910 -1 1
-0.1728016820 0.1340838940 -1 1
-0.1729447580 0.1365095360 -1 1
-0.1731520010 0.1382949880 -1 1
-0.1734341660 0.1392218370 -1 1
-0.1737954110 0.1391500690 -1 1
-0.1742329450 0.1380362880 -1 1
-0.1747343910 0.1359436650 -1 1
-0.1752733280 0.1330398930 -1 1
-0.1758074130 0.1295831450 -1 1
-0.1762830620 0.1258989040 -1 1
-0.1766461050 0.1223487970 -1 1
-0.1768533790 0.1192903770 -1 1
-0.1768804600 0.1170308090 -1 1
-0.1767250180 0.1157849010 -1 1
-0.1764080810 0.1156497020 -1 1
-0.1759730050 0.1166007290 -1 1
-0.1754788010 0.1185063360 -1 1
-0.1749873830 0.1211528690 -1 1
-0.1745508830 0.1242729440 -1 1
-0.1742058210 0.1275712610 -1 1
-0.1739742470 0.1307472580 -1 1
-0.1738665910 0.1335174810 -1 1
-0.1738819890 0.1356385710 -1 1
-0.1740064210 0.1369279370 -1 1
-0.1742124210 0.1372790950 -1 1
-0.1744638720 0.1366712210 -1 1
-0.1747250370 0.1351728420 -1 1
-0.1749681870 0.1329379250 -1 1
-0.1751747120 0.1301922590 -1 1
-0.1753309400 0.1272105920 -1 1
-0.1754246890 0.1242880510 -1 1
-0.1754466350 0.1217101350 -1 1
-0.1753947700 0.1197242220 -1 1
-0.1752764590 0.1185151500 -1 1
-0.1751046170 0.1181883810 -1 1
-0.1748912200 0.1187629390 -1 1
-0.1746451450 0.1201717890 -1 1
-0.1743766730 0.1222656220 -1 1
-0.1741029080 0.1248208150 -1 1
-0.1738474110 0.1275574260 -1 1
-0.1736339570 0.1301702060 -1 1
-0.1734794670 0.1323665030 -1 1
-0.1733899920 0.1338999640 -1 1
-0.1733599570 0.1345933530 -1 1
-0.1733726580 0.1343507760 -1 1
-0.1734005060 0.1331617970 -1 1
-0.1734059690 0.1310998440 -1 1
-0.1733448870 0.1283170540 -1 1
-0.1731717610 0.1250351260 -1 1
-0.1728456740 0.1215284190 -1 1
-0.1723372080 0.1180976090 -1 1
-0.1716377490 0.1150391290 -1 1
-0.1707701050 0.1126178480 -1 1
-0.1697944540 0.1110447040 -1 1
-0.1688024550 0.1104557210 -1 1
-0.1678985840 0.1108924370 -1 1
-0.1671762380 0.1122912300 -1 1
-0.1666986030 0.1144884500 -1 1
-0.1664905150 0.1172397050 -1 1
-0.1665423060 0.1202468240 -1 1
-0.1668218980 0.1231883230 -1 1
-0.1672881380 0.1257522630 -1 1
-0.1678992320 0.1276698090 -1 1
-0.1686148760 0.1287450020 -1 1
-0.1693943320 0.1288755030 -1 1
-0.1701934330 0.1280616660 -1 1
-0.1709632610 0.1264039010 -1 1
-0.1716518820 0.1240893980 -1 1
-0.1722082050 0.1213703150 -1 1
-0.1725869710 0.1185360880 -1 1
-0.1727552400 0.1158828320 -1 1
-0.1726997040 0.1136835490 -1 1
-0.1724321230 0.1121627820 -1 1
-0.1719902030 0.1114779270 -1 1
-0.1714330580 0.1117081380 -1 1
-0.1708325770 0.1128511330 -1 1
-0.1702630160 0.1148263880 -1 1
-0.1697900790 0.1174813310 -1 1
-0.1694608630 0.1205993200 -1 1
-0.1692979600 0.1239132840 -1 1
-0.1692999270 0.1271291680 -1 1
-0.1694456960 0.1299558720 -1 1
-0.1696988300 0.1321334650 -1 1
-0.1700114130 0.1334567840 -1 1
-0.1703306360 0.1337967410 -1 1
-0.1706084210 0.1331177830 -1 1
-0.1708091150 0.1314857740 -1 1
-0.1709107070 0.1290633950 -1 1
-0.1709011560 0.1260941400 -1 1
-0.1707750500 0.1228769970 -1 1
-0.1705334580 0.1197336930 -1 1
-0.1701857290 0.1169718410 -1 1
-0.1697502280 0.1148500320 -1 1
-0.1692520390 0.1135511160 -1 1
-0.1687182260 0.1131669300 -1 1
-0.1681723840 0.1136941320 -1 1
-0.1676301900 0.1150388130 -1 1
-0.1670987110 0.1170286890 -1 1
-0.1665814170 0.1194331300 -1 1
-0.1660855990 0.1219901790 -1 1
-0.1656256820 0.1244368310 -1 1
-0.1652201700 0.1265362490 -1 1
-0.1648859230 0.1280971020 -1 1
-0.1646340420 0.1289857240 -1 1
-0.1644684920 0.1291340660 -1 1
-0.1643867050 0.1285431200 -1 1
-0.1643807910 0.1272797530 -1 1
-0.1644376190 0.1254672740 -1 1
-0.1645374640 0.1232721560 -1 1
-0.1646528530 0.1208897110 -1 1
-0.1647489690 0.1185304290 -1 1
-0.1647863320 0.1164066630 -1 1
-0.1647271430 0.1147181920 -1 1
-0.1645453740 0.1136358000 -1 1
-0.1642364650 0.1132839420 -1 1
-0.1638211130 0.1137248870 -1 1
-0.1633415750 0.1149462470 -1 1
-0.1628530050 0.1168533250 -1 1
-0.1624126510 0.1192688670 -1 1
-0.1620690190 0.1219445560 -1 1
-0.1618535680 0.1245873370 -1 1
-0.1617770330 0.1268967340 -1 1
-0.1618302100 0.1286033210 -1 1
-0.1619873400 0.1295001270 -1 1
-0.1622105510 0.1294638850 -1 1
-0.1624553340 0.1284656280 -1 1
-0.1626775690 0.1265712550 -1 1
-0.1628412610 0.1239334060 -1 1
-0.1629246010 0.1207764900 -1 1
-0.1629221330 0.1173766550 -1 1
-0.1628430830 0.1140377790 -1 1
-0.1627077740 0.1110636650 -1 1
-0.1625433610 0.1087273770 -1 1
-0.1623787220 0.1072414600 -1 1
-0.1622391960 0.1067340270 -1 1
-0.1621431600 0.1072342230 -1 1
-0.1621019660 0.1086694970 -1 1
-0.1621228920 0.1108756620 -1 1
-0.1622127310 0.1136179110 -1 1
-0.1623783020 0.1166189800 -1 1
-0.1626212600 0.1195895640 -1 1
-0.1629287660 0.1222563450 -1 1
-0.1632663060 0.1243856210 -1 1
-0.1635790870 0.1258018920 -1 1
-0.1638025690 0.1263992350 -1 1
-0.1638769560 0.1261442340 -1 1
-0.1637604730 0.1250724750 -1 1
-0.1634395430 0.1232818410 -1 1
-0.1629342250 0.1209255990 -1 1
-0.1622956470 0.1182060330 -1 1
-0.1615943860 0.1153652030 -1 1
-0.1609040480 0.1126683840 -1 1
-0.1602866050 0.1103792260 -1 1
-0.1597836260 0.1087292630 -1 1
-0.1594142370 0.1078873290 -1 1
-0.1591786600 0.1079354110 -1 1
-0.1590652640 0.1088559510 -1 1
-0.1590587020 0.1105327750 -1 1
-0.1591462830 0.1127644620 -1 1
-0.1593201370 0.1152874520 -1 1
-0.1595749320 0.1178069300 -1 1
-0.1599031150 0.1200319970 -1 1
-0.1602902880 0.1217090800 -1 1
-0.1607131280 0.1226486550 -1 1
-0.1611410800 0.1227430540 -1 1
-0.1615409930 0.1219739830 -1 1
-0.1618823590 0.1204099950 -1 1
-0.1621402280 0.1181973410 -1 1
-0.1622946980 0.1155468820 -1 1
-0.1623293270 0.1127159540 -1 1
-0.1622319670 0.1099835620 -1 1
-0.1619992800 0.1076208770 -1 1
-0.1616427140 0.1058621830 -1 1
-0.1611909010 0.1048814150 -1 1
-0.1606847110 0.1047773540 -1 1
-0.1601672310 0.1055676190 -1 1
-0.1596751200 0.1071894030 -1 1
-0.1592351070 0.1095053640 -1 1
-0.1588642470 0.1123147080 -1 1
-0.1585717880 0.1153704510 -1 1
-0.1583625730 0.1184034760 -1 1
-0.1582409200 0.1211502520 -1 1
-0.1582114150 0.1233778900 -1 1
-0.1582752120 0.1249024060 -1 1
-0.1584251970 0.1255998200 -1 1
-0.1586440070 0.1254118360 -1 1
-0.1589056590 0.1243488840 -1 1
-0.1591793180 0.1224917820 -1 1
-0.1594336320 0.1199908120 -1 1
-0.1596402410 0.1170599820 -1 1
-0.1597755490 0.1139631250 -1 1
-0.1598211360 0.1109901430 -1 1
-0.1597642040 0.1084267880 -1 1
-0.1595995180 0.1065232440 -1 1
-0.1593332090 0.1054655210 -1 1
-0.1589863270 0.1053539750 -1 1
-0.1585945870 0.1061918400 -1 1
-0.1582032040 0.1078826100 -1 1
-0.1578595240 0.1102359650 -1 1
-0.1576068370 0.1129859360 -1 1
-0.1574802410 0.1158226040 -1 1
-0.1575036770 0.1184313770 -1 1
-0.1576877880 0.1205310300 -1 1
-0.1580291020 0.1219048570 -1 1
-0.1585108610 0.1224223050 -1 1
-0.1591049650 0.1220494550 -1 1
-0.1597737840 0.1208483960 -1 1
-0.1604711180 0.1189675240 -1 1
-0.1611433450 0.1166248990 -1 1
-0.1617328640 0.1140860250 -1 1
-0.1621844920 0.1116376620 -1 1
-0.1624531350 0.1095598340 -1 1
-0.1625103500 0.1080987270 -1 1
-0.1623481570 0.1074428970 -1 1
-0.1619791540 0.1077029410 -1 1
-0.1614330760 0.1088946070 -1 1
-0.1607522030 0.1109295210 -1 1
-0.1599885490 0.1136193510 -1 1
-0.1592023930 0.1166946220 -1 1
-0.1584581790 0.1198351540 -1 1
-0.1578156590 0.1227082510 -1 1
-0.1573191960 0.1250094210 -1 1
-0.1569902220 0.1264979610 -1 1
-0.1568263430 0.1270199610 -1 1
-0.1568075140 0.1265161790 -1 1
-0.1569060660 0.1250188180 -1 1
-0.1570955370 0.1226431680 -1 1
-0.1573552230 0.1195770160 -1 1
-0.1576705510 0.1160680040 -1 1
-0.1580309070 0.1124080230 -1 1
-0.1584263300 0.1089125510 -1 1
-0.1588443480 0.1058935630 -1 1
-0.1592682280 0.1036275960 -1 1
-0.1596772770 0.1023234930 -1 1
-0.1600485690 0.1020968980 -1 1
-0.1603595460 0.1029580890 -1 1
-0.1605911870 0.1048137840 -1 1
-0.1607305840 0.1074785140 -1 1
-0.1607710050 0.1106923520 -1 1
-0.1607085470 0.1141445940 -1 1
-0.1605373420 0.1175025580 -1 1
-0.1602477020 0.1204423700 -1 1
-0.1598298220 0.1226780040 -1 1
-0.1592803120 0.1239872030 -1 1
-0.1586067040 0.1242343580 -1 1
-0.1578282560 0.1233880700 -1 1
-0.1569743280 0.1215287210 -1 1
-0.1560808480 0.1188419530 -1 1
-0.1551847590 0.1155975550 -1 1
-0.1543181340 0.1121185620 -1 1
-0.1535052100 0.1087472650 -1 1
-0.1527641180 0.1058118870 -1 1
-0.1521114910 0.1035952930 -1 1
-0.1515657810 0.1023068790 -1 1
-0.1511463510 0.1020592600 -1 1
-0.1508692990 0.1028540410 -1 1
-0.1507436010 0.1045827270 -1 1
-0.1507698910 0.1070443390 -1 1
-0.1509413850 0.1099743230 -1 1
-0.1512457720 0.1130766670 -1 1
-0.1516669570 0.1160532960 -1 1
-0.1521851980 0.1186287130 -1 1
-0.1527750670 0.1205714090 -1 1
-0.1534030510 0.1217141240 -1 1
-0.1540273730 0.1219724080 -1 1
-0.1546005500 0.1213578260 -1 1
-0.1550729950 0.1199806750 -1 1
-0.1553964540 0.1180391500 -1 1
-0.1555282920 0.1157965630 -1 1
-0.1554378590 0.1135509170 -1 1
-0.1551136130 0.1116008240 -1 1
-0.1545678610 0.1102124260 -1 1
-0.1538371460 0.1095936270 -1 1
-0.1529784950 0.1098797080 -1 1
-0.1520630950 0.1111282310 -1 1
-0.1511686410 0.1133186070 -1 1
-0.1503713460 0.1163565100 -1 1
-0.1497399520 0.1200866870 -1 1
-0.1493334710 0.1243124910 -1 1
-0.1491997790 0.1288151860 -1 1
-0.1493701110 0.1333707600 -1 1
-0.1498489300 0.1377672980 -1 1
-0.1506046830 0.1418228040 -1 1
-0.1515687450 0.1454000700 -1 1
-0.1526453310 0.1484186680 -1 1
-0.1537279850 0.1508661810 -1 1
-0.1547150330 0.1528064210 -1 1
-0.1555197610 0.1543797090 -1 1
-0.1560757360 0.1557936550 -1 1
-0.1563391310 0.1573059970 -1 1
-0.1562895910 0.1592011970 -1 1
-0.1559306630 0.1617621450 -1 1
-0.1552898970 0.1652388100 -1 1
-0.1544182030 0.1698176520 -1 1
-0.1533876610 0.1755972160 -1 1
-0.1522863000 0.1825738940 -1 1
-0.1512088330 0.1906394550 -1 1
-0.1502443350 0.1995912960 -1 1
-0.1494640490 0.2091549620 -1 1
-0.1489130810 0.2190143810 -1 1
-0.1486077530 0.2288425870 -1 1
-0.1485369720 0.2383268690 -1 1
-0.1486641330 0.2471866530 -1 1
-0.1489288350 0.2551887670 -1 1
-0.1492527130 0.2621670090 -1 1
-0.1495531170 0.2680456900 -1 1
-0.1497606740 0.2728576050 -1 1
-0.1498313390 0.2767452460 -1 1
-0.1497473280 0.2799402310 -1 1
-0.1495102350 0.2827257130 -1 1
-0.1491348340 0.2853943560 -1 1
-0.1486486730 0.2882136140 -1 1
-0.1480942010 0.2914017900 -1 1
-0.1475259860 0.2951116830 -1 1
-0.1470007870 0.2994195590 -1 1
-0.1465665970 0.3043205750 -1 1
-0.1462581220 0.3097310580 -1 1
-0.1460993500 0.3154961320 -1 1
-0.1461074620 0.3214022920 -1 1
-0.1462928840 0.3271963500 -1 1
-0.1466553780 0.3326102110 -1 1
-0.1471791250 0.3373870600 -1 1
-0.1478294370 0.3413051700 -1 1
-0.1485531410 0.3441992280 -1 1
-0.1492838850 0.3459786300 -1 1
-0.1499517400 0.3466396660 -1 1
-0.1504944710 0.3462689450 -1 1
-0.1508668590 0.3450367230 -1 1
-0.1510452730 0.3431800540 -1 1
-0.1510271800 0.3409778440 -1 1
-0.1508272690 0.3387218680 -1 1
-0.1504721300 0.3366888490 -1 1
-0.1499949010 0.3351178510 -1 1
-0.1494300170 0.3341933470 -1 1
-0.1488071840 0.3340304720 -1 1
-0.1481458700 0.3346604290 -1 1
-0.1474547860 0.3360207540 -1 1
-0.1467386970 0.3379577820 -1 1
-0.1460084590 0.3402425640 -1 1
-0.1452877860 0.3425954690 -1 1
-0.1446134930 0.3447156630 -1 1
-0.1440292390 0.3463144010 -1 1
-0.1435746440 0.3471494170 -1 1
-0.1432737210 0.3470534400 -1 1
-0.1431276510 0.3459502970 -1 1
-0.1431149700 0.3438577140 -1 1
-0.1431977570 0.3408804100 -1 1
-0.1433299790 0.3371978570 -1 1
-0.1434655430 0.3330489270 -1 1
-0.1435652610 0.3287121520 -1 1
-0.1436016730 0.3244805830 -1 1
-0.1435606800 0.3206344580 -1 1
-0.1434401560 0.3174164020 -1 1
-0.1432471910 0.3150114700 -1 1
-0.1429964660 0.3135332480 -1 1
-0.1427112810 0.3130174790 -1 1
-0.1424249790 0.3134208030 -1 1
-0.1421777230 0.3146185010 -1 1
-0.1420063040 0.3164025400 -1 1
-0.1419314960 0.3184915420 -1 1
-0.1419510610 0.3205605850 -1 1
-0.1420425720 0.3222846480 -1 1
-0.1421726350 0.3233820250 -1 1
-0.1423063570 0.3236474660 -1 1
-0.1424146540 0.3229712110 -1 1
-0.1424801550 0.3213443350 -1 1
-0.1425006870 0.3188543700 -1 1
-0.1424877020 0.3156766840 -1 1
-0.1424595570 0.3120626150 -1 1
-0.1424329620 0.3083201160 -1 1
-0.1424161140 0.3047847710 -1 1
-0.1424051170 0.3017849550 -1 1
-0.1423840000 0.2996066490 -1 1
-0.1423286440 0.2984620530 -1 1
-0.1422141700 0.2984657550 -1 1
-0.1420231830 0.2996214870 -1 1
-0.1417511370 0.3018196630 -1 1
-0.1414070210 0.3048446090 -1 1
-0.1410109950 0.3083917480 -1 1
-0.1405922770 0.3120947300 -1 1
-0.1401885220 0.3155602130 -1 1
-0.1398446020 0.3184077270 -1 1
-0.1396077760 0.3203121210 -1 1
-0.1395182260 0.3210427150 -1 1
-0.1395974360 0.3204903130 -1 1
-0.1398395950 0.3186763910 -1 1
-0.1402104250 0.3157445370 -1 1
-0.1406542470 0.3119379230 -1 1
-0.1411065890 0.3075688730 -1 1
-0.1415075910 0.3029872650 -1 1
-0.1418115540 0.2985512930 -1 1
-0.1419902610 0.2946002100 -1 1
-0.1420311550 0.2914285350 -1 1
-0.1419333390 0.2892624360 -1 1
-0.1417034970 0.2882390930 -1 1
-0.1413529140 0.2883917830 -1 1
-0.1408974300 0.2896452740 -1 1
-0.1403607050 0.2918216690 -1 1
-0.1397775040 0.2946533190 -1 1
-0.1391927810 0.2978038050 -1 1
-0.1386552700 0.3009002450 -1 1
-0.1382073070 0.3035743850 -1 1
-0.1378741430 0.3055048880 -1 1
-0.1376573310 0.3064535810 -1 1
-0.1375361440 0.3062903760 -1 1
-0.1374759990 0.3050031620 -1 1
-0.1374383660 0.3026920700 -1 1
-0.1373877030 0.2995522520 -1 1
-0.1372954120 0.2958526150 -1 1
-0.1371433570 0.2919161170 -1 1
-0.1369269330 0.2880999450 -1 1
-0.1366538240 0.2847673850 -1 1
-0.1363368440 0.2822475790 -1 1
-0.1359862650 0.2807923170 -1 1
-0.1356083850 0.2805438700 -1 1
-0.1352104640 0.2815200340 -1 1
-0.1348061560 0.2836142810 -1 1
-0.1344166590 0.2866076510 -1 1
-0.1340679620 0.2901918910 -1 1
-0.1337871500 0.2940042770 -1 1
-0.1335991010 0.2976703500 -1 1
-0.1335222990 0.3008463210 -1 1
-0.1335628090 0.3032535030 -1 1
-0.1337089940 0.3047006990 -1 1
-0.1339322480 0.3050938630 -1 1
-0.1341951630 0.3044350290 -1 1
-0.1344614860 0.3028146040 -1 1
-0.1347014320 0.3004008080 -1 1
-0.1348915570 0.2974263540 -1 1
-0.1350124370 0.2941701860 -1 1
-0.1350468700 0.2909338570 -1 1
-0.1349800390 0.2880138430 -1 1
-0.1348024690 0.2856712500 -1 1
-0.1345152500 0.2841024150 -1 1
-0.1341345840 0.2834168550 -1 1
-0.1336920110 0.2836283620 -1 1
-0.1332291640 0.2846600410 -1 1
-0.1327894460 0.2863580440 -1 1
-0.1324106810 0.2885076450 -1 1
-0.1321213430 0.2908507880 -1 1
-0.1319399770 0.2931078590 -1 1
-0.1318753560 0.2950036470 -1 1
-0.1319256700 0.2962947260 -1 1
-0.1320775960 0.2967952290 -1 1
-0.1323069200 0.2963980600 -1 1
-0.1325812710 0.2950887440 -1 1
-0.1328643250 0.2929494550 -1 1
-0.1331201320 0.2901514860 -1 1
-0.1333168400 0.2869365560 -1 1
-0.1334305080 0.2835905790 -1 1
-0.1334489830 0.2804148400 -1 1
-0.1333735990 0.2776975270 -1 1
-0.1332167380 0.2756873920 -1 1
-0.1329966310 0.2745721780 -1 1
-0.1327329830 0.2744630670 -1 1
-0.1324460310 0.2753845250 -1 1
-0.1321590440 0.2772704260 -1 1
-0.1319017020 0.2799687810 -1 1
-0.1317097450 0.2832547870 -1 1
-0.1316177680 0.2868491110 -1 1
-0.1316477910 0.2904396740 -1 1
-0.1318009250 0.2937075150 -1 1
-0.1320574040 0.2963559640 -1 1
-0.1323832900 0.2981399100 -1 1
-0.1327383410 0.2988921860 -1 1
-0.1330821310 0.2985441970 -1 1
-0.1333796240 0.2971365980 -1 1
-0.1336076050 0.2948170150 -1 1
-0.1337603190 0.2918255750 -1 1
-0.1338501440 0.2884704040 -1 1
-0.1339005550 0.2850946500 -1 1
-0.1339339360 0.2820385120 -1 1
-0.1339612490 0.2796028380 -1 1
-0.1339792870 0.2780208300 -1 1
-0.1339757010 0.2774404890 -1 1
-0.1339381990 0.2779164810 -1 1
-0.1338637000 0.2794095590 -1 1
-0.1337631230 0.2817929740 -1 1
-0.1336586400 0.2848641220 -1 1
-0.1335738670 0.2883579510 -1 1
-0.1335215470 0.2919613420 -1 1
-0.1334951050 0.2953329770 -1 1
-0.1334693260 0.2981340620 -1 1
-0.1334106270 0.3000686380 -1 1
-0.1332912910 0.3009240980 -1 1
-0.1330997550 0.3006011240 -1 1
-0.1328428730 0.2991282140 -1 1
-0.1325421360 0.2966612400 -1 1
-0.1322280170 0.2934676630 -1 1
-0.1319336380 0.2898935470 -1 1
-0.1316868710 0.2863164980 -1 1
-0.1315027220 0.2830946980 -1 1
-0.1313801360 0.2805234350 -1 1
-0.1313050250 0.2788068260 -1 1
-0.1312574600 0.2780472860 -1 1
-0.1312198540 0.2782498610 -1 1
-0.1311837400 0.2793353770 -1 1
-0.1311534080 0.2811568370 -1 1
-0.1311454300 0.2835161870 -1 1
-0.1311841250 0.2861814630 -1 1
-0.1312937250 0.2889054430 -1 1
-0.1314888350 0.2914439110 -1 1
-0.1317658040 0.2935693510 -1 1
-0.1320980590 0.2950805840 -1 1
-0.1324377210 0.2958152250 -1 1
-0.1327237400 0.2956693140 -1 1
-0.1328947330 0.2946196620 -1 1
-0.1329033770 0.2927401050 -1 1
-0.1327275010 0.2902050720 -1 1
-0.1323727060 0.2872764160 -1 1
-0.1318651730 0.2842725500 -1 1
-0.1312396270 0.2815265620 -1 1
-0.1305300020 0.2793446620 -1 1
-0.1297665220 0.2779707830 -1 1
-0.1289773380 0.2775581610 -1 1
-0.1281910460 0.2781526770 -1 1
-0.1274370750 0.2796934880 -1 1
-0.1267419060 0.2820276900 -1 1
-0.1261225780 0.2849307870 -1 1
-0.1255828770 0.2881290560 -1 1
-0.1251161220 0.2913233320 -1 1
-0.1247123020 0.2942126700 -1 1
-0.1243639800 0.2965167520 -1 1
-0.1240682840 0.2979986190 -1 1
-0.1238262800 0.2984885010 -1 1
-0.1236410270 0.2979041400 -1 1
-0.1235140590 0.2962612610 -1 1
-0.1234407990 0.2936731230 -1 1
-0.1234075730 0.2903422890 -1 1
-0.1233924980 0.2865456720 -1 1
-0.1233693770 0.2826119290 -1 1
-0.1233119330 0.2788923160 -1 1
-0.1231972180 0.2757278380 -1 1
-0.1230081870 0.2734144790 -1 1
-0.1227351040 0.2721684710 -1 1
-0.1223756180 0.2720966390 -1 1
-0.1219345920 0.2731795110 -1 1
-0.1214254920 0.2752717720 -1 1
-0.1208730500 0.2781179400 -1 1
-0.1203135670 0.2813797670 -1 1
-0.1197898220 0.2846752640 -1 1
-0.1193421400 0.2876262090 -1 1
-0.1189997000 0.2899037320 -1 1
-0.1187755370 0.2912626790 -1 1
-0.1186666370 0.2915630020 -1 1
-0.1186576060 0.2907793930 -1 1
-0.1187251570 0.2889986050 -1 1
-0.1188427910 0.2864048040 -1 1
-0.1189864600 0.2832565410 -1 1
-0.1191401300 0.2798591530 -1 1
-0.1192986110 0.2765343800 -1 1
-0.1194662750 0.2735894100 -1 1
-0.1196530590 0.2712898440 -1 1
-0.1198703290 0.2698401390 -1 1
-0.1201278850 0.2693710700 -1 1
-0.1204316270 0.2699323360 -1 1
-0.1207803040 0.2714891440 -1 1
-0.1211609310 0.2739215120 -1 1
-0.1215464830 0.2770275200 -1 1
-0.1219015080 0.2805357910 -1 1
-0.1221957940 0.2841299240 -1 1
-0.1224178770 0.2874797410 -1 1
-0.1225788960 0.2902723950 -1 1
-0.1227042440 0.2922417530 -1 1
-0.1228183810 0.2931963800 -1 1
-0.1229316890 0.2930425450 -1 1
-0.1230365210 0.2917969760 -1 1
-0.1231137510 0.2895871880 -1 1
-0.1231442290 0.2866391830 -1 1
-0.1231173760 0.2832519600 -1 1
-0.1230336020 0.2797612050 -1 1
-0.1229023420 0.2765001000 -1 1
-0.1227384040 0.2737656470 -1 1
-0.1225582150 0.2717930940 -1 1
-0.1223775170 0.2707372080 -1 1
-0.1222115640 0.2706601740 -1 1
-0.1220762970 0.2715262020 -1 1
-0.1219869810 0.2732028860 -1 1
-0.1219534240 0.2754717580 -1 1
-0.1219754180 0.2780501010 -1 1
-0.1220427410 0.2806215010 -1 1
-0.1221402310 0.2828698240 -1 1
-0.1222549500 0.2845130050 -1 1
-0.1223816150 0.2853346500 -1 1
-0.1225231430 0.2852093190 -1 1
-0.1226856930 0.2841155650 -1 1
-0.1228722030 0.2821344430 -1 1
-0.1230797020 0.2794364540 -1 1
-0.1233007720 0.2762613550 -1 1
-0.1235253300 0.2728933450 -1 1
-0.1237405260 0.2696328700 -1 1
-0.1239299770 0.2667675100 -1 1
-0.1240744290 0.2645457170 -1 1
-0.1241538760 0.2631554040 -1 1
-0.1241493630 0.2627070560 -1 1
-0.1240439420 0.2632226830 -1 1
-0.1238251280 0.2646331950 -1 1
-0.1234911180 0.2667835640 -1 1
-0.1230590280 0.2694446990 -1 1
-0.1225695220 0.2723332790 -1 1
-0.1220829320 0.2751384790 -1 1
-0.1216671620 0.2775515710 -1 1
-0.1213824940 0.2792957960 -1 1
-0.1212689010 0.2801557050 -1 1
-0.1213384980 0.2800043510 -1 1
-0.1215736700 0.2788229230 -1 1
-0.1219309500 0.2767056800 -1 1
-0.1223503130 0.2738490100 -1 1
-0.1227676410 0.2705301190 -1 1
-0.1231262970 0.2670793370 -1 1
-0.1233844200 0.2638450690 -1 1
-0.1235170580 0.2611514020 -1 1
-0.1235139630 0.2592556090 -1 1
-0.1233749640 0.2583166100 -1 1
-0.1231058440 0.2583810280 -1 1
-0.1227169660 0.2593874060 -1 1
-0.1222245790 0.2611850380 -1 1
-0.1216534280 0.2635600610 -1 1
-0.1210394490 0.2662607100 -1 1
-0.1204308500 0.2690179030 -1 1
-0.1198850490 0.2715625500 -1 1
-0.1194602450 0.2736429790 -1 1
-0.1192033890 0.2750438360 -1 1
-0.1191382760 0.2756050160 -1 1
-0.1192577520 0.2752384240 -1 1
-0.1195225930 0.2739400250 -1 1
-0.1198674140 0.2717942060 -1 1
-0.1202130850 0.2689682890 -1 1
-0.1204839090 0.2656971790 -1 1
-0.1206249150 0.2622602670 -1 1
-0.1206131930 0.2589537950 -1 1
-0.1204592900 0.2560619300 -1 1
-0.1201983670 0.2538299800 -1 1
-0.1198752330 0.2524427420 -1 1
-0.1195305590 0.2520089240 -1 1
-0.1191939200 0.2525519690 -1 1
-0.1188838290 0.2540081800 -1 1
-0.1186106880 0.2562312820 -1 1
-0.1183788550 0.2590017380 -1 1
-0.1181874540 0.2620421370 -1 1
-0.1180320360 0.2650412400 -1 1
-0.1179085010 0.2676857380 -1 1
-0.1178178730 0.2696950240 -1 1
-0.1177686930 0.2708534650 -1 1
-0.1177740780 0.2710352280 -1 1
-0.1178443270 0.2702178470 -1 1
-0.1179807240 0.2684831060 -1 1
-0.1181760310 0.2660066460 -1 1
-0.1184209470 0.2630377330 -1 1
-0.1187102740 0.2598697160 -1 1
-0.1190438600 0.2568060960 -1 1
-0.1194231370 0.2541312400 -1 1
-0.1198467910 0.2520896290 -1 1
-0.1203069960 0.2508694840 -1 1
-0.1207862040 0.2505862260 -1 1
-0.1212565710 0.2512679270 -1 1
-0.1216849930 0.2528500710 -1 1
-0.1220430560 0.2551835340 -1 1
-0.1223165980 0.2580523100 -1 1
-0.1225092260 0.2611947040 -1 1
-0.1226378570 0.2643235730 -1 1
-0.1227235000 0.2671447800 -1 1
-0.1227827760 0.2693768470 -1 1
-0.1228234210 0.2707751940 -1 1
-0.1228435170 0.2711605480 -1 1
-0.1228330250 0.2704462310 -1 1
-0.1227764490 0.2686564550 -1 1
-0.1226557980 0.2659293910 -1 1
-0.1224536780 0.2625037250 -1 1
-0.1221568770 0.2586918300 -1 1
-0.1217600310 0.2548438670 -1 1
-0.1212677120 0.2513071370 -1 1
-0.1206936040 0.2483868920 -1 1
-0.1200575040 0.2463156270 -1 1
-0.1193827260 0.2452353540 -1 1
-0.1186958820 0.2451933000 -1 1
-0.1180275160 0.2461469960 -1 1
-0.1174094920 0.2479723130 -1 1
-0.1168682070 0.2504719310 -1 1
-0.1164183100 0.2533878460 -1 1
-0.1160615850 0.2564219720 -1 1
-0.1157907180 0.2592643780 -1 1
-0.1155946440 0.2616245590 -1 1
-0.1154625910 0.2632600950 -1 1
-0.1153850000 0.2639989020 -1 1
-0.1153511010 0.2637540530 -1 1
-0.1153456250 0.2625315390 -1 1
-0.1153479120 0.2604310330 -1 1
-0.1153342680 0.2576393540 -1 1
-0.1152823910 0.2544160780 -1 1
-0.1151769180 0.2510703560 -1 1
-0.1150150890 0.2479291230 -1 1
-0.1148098980 0.2453002420 -1 1
-0.1145877520 0.2434376640 -1 1
-0.1143808290 0.2425151880 -1 1
-0.1142187610 0.2426104790 -1 1
-0.1141244210 0.2436972590 -1 1
-0.1141140340 0.2456449930 -1 1
-0.1141986730 0.2482288580 -1 1
-0.1143849660 0.2511525200 -1 1
-0.1146748010 0.2540813820 -1 1
-0.1150646650 0.2566796600 -1 1
-0.1155446380 0.2586456010 -1 1
-0.1160968670 0.2597427750 -1 1
-0.1166942690 0.2598255160 -1 1
-0.1173001060 0.2588548810 -1 1
-0.1178682090 0.2569022690 -1 1
-0.1183448570 0.2541405160 -1 1
-0.1186753400 0.2508238810 -1 1
-0.1188164140 0.2472584920 -1 1
-0.1187501930 0.2437667200 -1 1
-0.1184922240 0.2406521310 -1 1
-0.1180895280 0.2381710670 -1 1
-0.1176098120 0.2365125000 -1 1
-0.1171267470 0.2357858040 -1 1
-0.1167066180 0.2360169250 -1 1
-0.1163991360 0.2371518710 -1 1
-0.1162326720 0.2390631060 -1 1
-0.1162138720 0.2415565120 -1 1
-0.1163316600 0.2443834140 -1 1
-0.1165637470 0.2472621970 -1 1
-0.1168817260 0.2499059540 -1 1
-0.1172521870 0.2520502740 -1 1
-0.1176355680 0.2534797760 -1 1
-0.1179871730 0.2540518550 -1 1
-0.1182625380 0.2537127680 -1 1
-0.1184253920 0.2525026360 -1 1
-0.1184549660 0.2505496930 -1 1
-0.1183498630 0.2480549500 -1 1
-0.1181266540 0.2452682960 -1 1
-0.1178140410 0.2424593620 -1 1
-0.1174467790 0.2398889450 -1 1
-0.1170620590 0.2377852710 -1 1
-0.1166962180 0.2363260980 -1 1
-0.1163791490 0.2356264530 -1 1
-0.1161276900 0.2357310870 -1 1
-0.1159412520 0.2366096690 -1 1
-0.1158019330 0.2381558680 -1 1
-0.1156801660 0.2401952360 -1 1
-0.1155453690 0.2425033350 -1 1
-0.1153780990 0.2448303480 -1 1
-0.1151779560 0.2469284890 -1 1
-0.1149634550 0.2485786760 -1 1
-0.1147643750 0.2496113070 -1 1
-0.1146100450 0.2499186090 -1 1
-0.1145181960 0.2494614710 -1 1
-0.1144888460 0.2482735670 -1 1
-0.1145049050 0.2464602360 -1 1
-0.1145377690 0.2441891540 -1 1
-0.1145550930 0.2416748220 -1 1
-0.1145281680 0.2391590880 -1 1
-0.1144377440 0.2368873420 -1 1
-0.1142788240 0.2350835060 -1 1
-0.1140639500 0.2339294180 -1 1
-0.1138219050 0.2335483920 -1 1
-0.1135900450 0.2339895330 -1 1
-0.1134029210 0.2352150300 -1 1
-0.1132818610 0.2370974640 -1 1
-0.1132291330 0.2394314520 -1 1
-0.1132288200 0.2419580410 -1 1
-0.1132544310 0.2443958750 -1 1
-0.1132797310 0.2464726530 -1 1
-0.1132872610 0.2479536040 -1 1
-0.1132713260 0.2486660220 -1 1
-0.1132361620 0.2485175900 -1 1
-0.1131913560 0.2475055220 -1 1
-0.1131463920 0.2457155170 -1 1
-0.1131062820 0.2433107240 -1 1
-0.1130702650 0.2405112090 -1 1
-0.1130342140 0.2375667410 -1 1
-0.1129946790 0.2347287060 -1 1
-0.1129511680 0.2322274540 -1 1
-0.1129055470 0.2302584050 -1 1
-0.1128606400 0.2289741340 -1 1
-0.1128203860 0.2284753520 -1 1
-0.1127909760 0.2287968940 -1 1
-0.1127804720 0.2298934740 -1 1
-0.1127963840 0.2316347010 -1 1
-0.1128438060 0.2338146770 -1 1
-0.1129259010 0.2361744560 -1 1
-0.1130453080 0.2384326970 -1 1
-0.1132039310 0.2403193980 -1 1
-0.1134009420 0.2416069970 -1 1
-0.1136313850 0.2421332870 -1 1
-0.1138873680 0.2418139150 -1 1
-0.1141609650 0.2406460610 -1 1
-0.1144460940 0.2387063140 -1 1
-0.1147379050 0.2361451310 -1 1
-0.1150305350 0.2331776300 -1 1
-0.1153143890 0.2300675480 -1 1
-0.1155732730 0.2271017640 -1 1
-0.1157825900 0.2245580930 -1 1
-0.1159110900 0.2226743610 -1 1
-0.1159274820 0.2216251830 -1 1
-0.1158100750 0.2215071720 -1 1
-0.1155555690 0.2223316370 -1 1
-0.1151832170 0.2240248550 -1 1
-0.1147323300 0.2264357710 -1 1
-0.1142542820 0.2293502810 -1 1
-0.1138023520 0.2325108620 -1 1
-0.1134220390 0.2356398320 -1 1
-0.1131431790 0.2384633820 -1 1
-0.1129759740 0.2407329860 -1 1
-0.1129134030 0.2422436270 -1 1
-0.1129391230 0.2428509510 -1 1
-0.1130358980 0.2424866200 -1 1
-0.1131900930 0.2411677000 -1 1
-0.1133918330 0.2389979470 -1 1
-0.1136325980 0.2361623930 -1 1
-0.1139015840 0.2329152830 -1 1
-0.1141820110 0.2295581590 -1 1
-0.1144493020 0.2264074620 -1 1
-0.1146728520 0.2237577460 -1 1
-0.1148217210 0.2218485540 -1 1
-0.1148723770 0.2208395090 -1 1
-0.1148148770 0.2207950990 -1 1
-0.1146553840 0.2216795530 -1 1
-0.1144169020 0.2233620930 -1 1
-0.1141400860 0.2256323050 -1 1
-0.1138818990 0.2282239470 -1 1
-0.1137086150 0.2308433410 -1 1
-0.1136828110 0.2331972970 -1 1
-0.1138477890 0.2350181760 -1 1
-0.1142147400 0.2360877320 -1 1
-0.1147569750 0.2362609780 -1 1
-0.1154133290 0.2354871290 -1 1
-0.1161005840 0.2338210230 -1 1
-0.1167315240 0.2314183910 -1 1
-0.1172323060 0.2285141080 -1 1
-0.1175533220 0.2253909320 -1 1
-0.1176715810 0.2223485310 -1 1
-0.1175869600 0.2196778630 -1 1
-0.1173162560 0.2176398860 -1 1
-0.1168877880 0.2164446650 -1 1
-0.1163379760 0.2162289030 -1 1
-0.1157100280 0.2170354060 -1 1
-0.1150523300 0.2188009290 -1 1
-0.1144135840 0.2213565610 -1 1
-0.1138353700 0.2244408630 -1 1
-0.1133461750 0.2277244650 -1 1
-0.1129600930 0.2308448810 -1 1
-0.1126798890 0.2334486280 -1 1
-0.1125017210 0.2352343590 -1 1
-0.1124185730 0.2359900280 -1 1
-0.1124208600 0.2356188020 -1 1
-0.1124947650 0.2341489440 -1 1
-0.1126206010 0.2317246640 -1 1
-0.1127733250 0.2285812940 -1 1
-0.1129252660 0.2250133780 -1 1
-0.1130495970 0.2213431710 -1 1
-0.1131235160 0.2178925910 -1 1
-0.1131304810 0.2149592800 -1 1
-0.1130605110 0.2127964410 -1 1
-0.1129089890 0.2115945530 -1 1
-0.1126762210 0.2114637330 -1 1
-0.1123686210 0.2124184130 -1 1
-0.1119994040 0.2143675450 -1 1
-0.1115868900 0.2171143390 -1 1
-0.1111515010 0.2203705760 -1 1
-0.1107141060 0.2237874930 -1 1
-0.1102968270 0.2269984900 -1 1
-0.1099251360 0.2296650270 -1 1
-0.1096290600 0.2315175320 -1 1
-0.1094414290 0.2323841120 -1 1
-0.1093919720 0.2322022400 -1 1
-0.1094981350 0.2310144390 -1 1
-0.1097568490 0.2289537950 -1 1
-0.1101427090 0.2262246090 -1 1
-0.1106137050 0.2230803020 -1 1
-0.1111201310 0.2197997600 -1 1
-0.1116122450 0.2166649790 -1 1
-0.1120455180 0.2139431710 -1 1
-0.1123841380 0.2118717430 -1 1
-0.1126038160 0.2106403600 -1 1
-0.1126945370 0.2103694610 -1 1
-0.1126620100 0.2110926620 -1 1
-0.1125258870 0.2127493390 -1 1
-0.1123148580 0.2151881580 -1 1
-0.1120608090 0.2181805920 -1 1
-0.1117935200 0.2214430050 -1 1
-0.1115357080 0.2246638280 -1 1
-0.1112990890 0.2275319980 -1 1
-0.1110840020 0.2297654770 -1 1
-0.1108834760 0.2311401490 -1 1
-0.1106884490 0.2315154970 -1 1
-0.1104901420 0.2308489360 -1 1
-0.1102798490 0.2291947110 -1 1
-0.1100494050 0.2266925400 -1 1
-0.1097930620 0.2235535370 -1 1
-0.1095085260 0.2200456750 -1 1
-0.1091967650 0.2164755630 -1 1
-0.1088625670 0.2131623530 -1 1
-0.1085161450 0.2104041920 -1 1
-0.1081739360 0.2084440640 -1 1
-0.1078573400 0.2074430710 -1 1
-0.1075891900 0.2074641850 -1 1
-0.1073884450 0.2084653310 -1 1
-0.1072649210 0.2103016180 -1 1
-0.1072166250 0.2127387710 -1 1
-0.1072307150 0.2154786150 -1 1
-0.1072862600 0.2181939030 -1 1
-0.1073563130 0.2205672030 -1 1
-0.1074099930 0.2223271710 -1 1
-0.1074178800 0.2232762050 -1 1
-0.1073607080 0.2233069140 -1 1
-0.1072360890 0.2224069750 -1 1
-0.1070580290 0.2206522420 -1 1
-0.1068491320 0.2181915160 -1 1
-0.1066301200 0.2152294800 -1 1
-0.1064124140 0.2120107090 -1 1
-0.1061971660 0.2088024110 -1 1
-0.1059795410 0.2058744300 -1 1
-0.1057536090 0.2034784170 -1 1
-0.1055148140 0.2018275320 -1 1
-0.1052609700 0.2010764290 -1 1
-0.1049932820 0.2013037630 -1 1
-0.1047170360 0.2025011870 -1 1
-0.1044415790 0.2045692840 -1 1
-0.1041805330 0.2073199140 -1 1
-0.1039526820 0.2104884730 -1 1
-0.1037821060 0.2137592300 -1 1
-0.1036959840 0.2168012410 -1 1
-0.1037201120 0.2193086100 -1 1
-0.1038728570 0.2210384820 -1 1
-0.1041581620 0.2218401650 -1 1
-0.1045593060 0.2216686540 -1 1
-0.1050369760 0.2205795470 -1 1
-0.1055346890 0.2187110940 -1 1
-0.1059907230 0.2162631800 -1 1
-0.1063514010 0.2134763590 -1 1
-0.1065793890 0.2106086200 -1 1
-0.1066542650 0.2079121930 -1 1
-0.1065684030 0.2056156620 -1 1
-0.1063236460 0.2039109060 -1 1
-0.1059310920 0.2029405730 -1 1
-0.1054122180 0.2027851570 -1 1
-0.1047990270 0.2034514510 -1 1
-0.1041321300 0.2048649090 -1 1
-0.1034565700 0.2068705180 -1 1
-0.1028166270 0.2092464770 -1 1
-0.1022517560 0.2117292890 -1 1
-0.1017941350 0.2140434360 -1 1
-0.1014659840 0.2159297820 -1 1
-0.1012754170 0.2171716050 -1 1
-0.1012126340 0.2176172310 -1 1
-0.1012500410 0.2171958430 -1 1
-0.1013481330 0.2159252300 -1 1
-0.1014652130 0.2139120760 -1 1
-0.1015661040 0.2113425600 -1 1
-0.1016260070 0.2084620300 -1 1
-0.1016298330 0.2055483590 -1 1
-0.1015700100 0.2028841670 -1 1
-0.1014446400 0.2007286960 -1 1
-0.1012564420 0.1992909700 -1 1
-0.1010127730 0.1987100680 -1 1
-0.1007269340 0.1990462480 -1 1
-0.1004199460 0.2002801570 -1 1
-0.1001203090 0.2023157560 -1 1
-0.0998590200 0.2049854620 -1 1
-0.0996610280 0.2080584330 -1 1
-0.0995385500 0.2112546790 -1 1
-0.0994898710 0.2142682300 -1 1
-0.0995020950 0.2167991540 -1 1
-0.0995554850 0.2185887590 -1 1
-0.0996291580 0.2194499350 -1 1
-0.0997072180 0.2192871630 -1 1
-0.0997819630 0.2181050890 -1 1
-0.0998518460 0.2160064010 -1 1
-0.0999160720 0.2131800440 -1 1
-0.0999701440 0.2098823300 -1 1
-0.1000047890 0.2064128310 -1 1
-0.1000069660 0.2030855200 -1 1
-0.0999605260 0.2001983970 -1 1
-0.0998469300 0.1980065770 -1 1
-0.0996485290 0.1966995830 -1 1
-0.0993553120 0.1963818270 -1 1
-0.0989723270 0.1970593200 -1 1
-0.0985231730 0.1986372880 -1 1
-0.0980468000 0.2009298250 -1 1
-0.0975885850 0.2036796660 -1 1
-0.0971896310 0.2065854950 -1 1
-0.0968790390 0.2093328810 -1 1
-0.0966716470 0.2116244250 -1 1
-0.0965703860 0.2132068280 -1 1
-0.0965707930 0.2138949320 -1 1
-0.0966647800 0.2135914870 -1 1
-0.0968411760 0.2122983630 -1 1
-0.0970831960 0.2101163630 -1 1
-0.0973661360 0.2072358940 -1 1
-0.0976583460 0.2039212700 -1 1
-0.0979252060 0.2004878370 -1 1
-0.0981336530 0.1972714910 -1 1
-0.0982557330 0.1945930050 -1 1
-0.0982714980 0.1927204480 -1 1
-0.0981718700 0.1918346430 -1 1
-0.0979609100 0.1920051000 -1 1
-0.0976561650 0.1931823020 -1 1
-0.0972865960 0.1952074680 -1 1
-0.0968891040 0.1978363440 -1 1
-0.0965044930 0.2007698560 -1 1
-0.0961725020 0.2036843710 -1 1
-0.0959260380 0.2062607670 -1 1
-0.0957864150 0.2082160140 -1 1
-0.0957612540 0.2093353400 -1 1
-0.0958455380 0.2094966400 -1 1
-0.0960254400 0.2086825760 -1 1
-0.0962835470 0.2069823000 -1 1
-0.0966033620 0.2045832460 -1 1
-0.0969714520 0.2017494440 -1 1
-0.0973765390 0.1987867710 -1 1
-0.0978058600 0.1960042620 -1 1
-0.0982405170 0.1936809320 -1 1
-0.0986529570 0.1920391490 -1 1
-0.0990093520 0.1912234540 -1 1
-0.0992762640 0.1912896850 -1 1
-0.0994282750 0.1922086480 -1 1
-0.0994539700 0.1938797890 -1 1
-0.0993591480 0.1961463660 -1 1
-0.0991664180 0.1988083210 -1 1
-0.0989107770 0.2016338650 -1 1
-0.0986322890 0.2043714350 -1 1
-0.0983682180 0.2067640850 -1 1
-0.0981463260 0.2085690760 -1 1
-0.0979798600 0.2095821680 -1 1
-0.0978655210 0.2096625960 -1 1
-0.0977859330 0.2087556100 -1 1
-0.0977158300 0.2069091660 -1 1
-0.0976292630 0.2042778710 -1 1
-0.0975061590 0.2011085250 -1 1
-0.0973377230 0.1977097370 -1 1
-0.0971293750 0.1944145300 -1 1
-0.0968988850 0.1915438250 -1 1
-0.0966696360 0.1893747400 -1 1
-0.0964631520 0.1881160880 -1 1
-0.0962952310 0.1878927150 -1 1
-0.0961756810 0.1887375810 -1 1
-0.0961089620 0.1905881470 -1 1
-0.0960945470 0.1932857910 -1 1
-0.0961274750 0.1965827610 -1 1
-0.0961990820 0.2001629920 -1 1
-0.0962975380 0.2036768690 -1 1
-0.0964090660 0.2067814690 -1 1
-0.0965204180 0.2091755210 -1 1
-0.0966213980 0.2106246670 -1 1
-0.0967062130 0.2109799410 -1 1
-0.0967734350 0.2101922930 -1 1
-0.0968243860 0.2083215170 -1 1
-0.0968600600 0.2055363450 -1 1
-0.0968780930 0.2021036720 -1 1
-0.0968716780 0.1983655920 -1 1
-0.0968311810 0.1947033490 -1 1
-0.0967479150 0.1914912330 -1 1
-0.0966185260 0.1890498100 -1 1
-0.0964482770 0.1876083580 -1 1
-0.0962518360 0.1872809050 -1 1
-0.0960508770 0.1880581960 -1 1
-0.0958693340 0.1898166960 -1 1
-0.0957284430 0.1923401520 -1 1
-0.0956424770 0.1953462510 -1 1
-0.0956145350 0.1985145240 -1 1
-0.0956335360 0.2015158220 -1 1
-0.0956753240 0.2040430330 -1 1
-0.0957082240 0.2058394300 -1 1
-0.0956997480 0.2067207800 -1 1
-0.0956206790 0.2065898450 -1 1
-0.0954456570 0.2054434460 -1 1
-0.0951535110 0.2033727310 -1 1
-0.0947314200 0.2005565580 -1 1
-0.0941819320 0.1972469430 -1 1
-0.0935268570 0.1937455890 -1 1
-0.0928043770 0.1903725390 -1 1
-0.0920618390 0.1874329600 -1 1
-0.0913481630 0.1851898480 -1 1
-0.0907073000 0.1838441000 -1 1
-0.0901734320 0.1835177200 -1 1
-0.0897685970 0.1842397600 -1 1
-0.0895023170 0.1859400940 -1 1
-0.0893728090 0.1884542570 -1 1
-0.0893702940 0.1915388140 -1 1
-0.0894817300 0.1948966850 -1 1
-0.0896943850 0.1982097600 -1 1
-0.0899960520 0.2011703160 -1 1
-0.0903712760 0.2035034990 -1 1
-0.0907956310 0.2049831350 -1 1
-0.0912328260 0.2054488310 -1 1
-0.0916389220 0.2048261690 -1 1
-0.0919733020 0.2031443600 -1 1
-0.0922101290 0.2005442700 -1 1
-0.0923425820 0.1972702420 -1 1
-0.0923784830 0.1936427800 -1 1
-0.0923323830 0.1900186540 -1 1
-0.0922183800 0.1867505540 -1 1
-0.0920447310 0.1841525810 -1 1
-0.0918118340 0.1824704330 -1 1
-0.0915152390 0.1818562170 -1 1
-0.0911520980 0.1823514660 -1 1
-0.0907272800 0.1838815640 -1 1
-0.0902569590 0.1862640730 -1 1
-0.0897696630 0.1892327480 -1 1
-0.0893046570 0.1924729240 -1 1
-0.0889065680 0.1956570090 -1 1
-0.0886161660 0.1984717650 -1 1
-0.0884601870 0.2006400190 -1 1
-0.0884451270 0.2019429520 -1 1
-0.0885582500 0.2022417380 -1 1
-0.0887737960 0.2014918880 -1 1
-0.0890589440 0.1997466660 -1 1
-0.0893766780 0.1971506690 -1 1
-0.0896872500 0.1939256280 -1 1
-0.0899513780 0.1903491300 -1 1
-0.0901369000 0.1867270230 -1 1
-0.0902270760 0.1833630350 -1 1
-0.0902255130 0.1805305970 -1 1
-0.0901542590 0.1784492550 -1 1
-0.0900465370 0.1772655990 -1 1
-0.0899383680 0.1770404410 -1 1
-0.0898618520 0.1777454680 -1 1
-0.0898405420 0.1792694070 -1 1
-0.0898879220 0.1814313890 -1 1
-0.0900113540 0.1840005810 -1 1
-0.0902204010 0.1867204680 -1 1
-0.0905327880 0.1893327760 -1 1
-0.0909717320 0.1915967930 -1 1
-0.0915551660 0.1933055640 -1 1
-0.0922835780 0.1943026690 -1 1
-0.0931333750 0.1944992250 -1 1
-0.0940581650 0.1938871190 -1 1
-0.0949966490 0.1925446020 -1 1
-0.0958843510 0.1906307950 -1 1
-0.0966651280 0.1883677810 -1 1
-0.0972982470 0.1860138950 -1 1
-0.0977591650 0.1838340930 -1 1
-0.0980357850 0.1820712880 -1 1
-0.0981244990 0.1809216180 -1 1
-0.0980298020 0.1805174940 -1 1
-0.0977681900 0.1809193720 -1 1
-0.0973730810 0.1821121180 -1 1
-0.0968957050 0.1840032250 -1 1
-0.0963992690 0.1864268910 -1 1
-0.0959483920 0.1891586860 -1 1
-0.0955976880 0.1919390600 -1 1
-0.0953822910 0.1945004340 -1 1
-0.0953127460 0.1965939470 -1 1
-0.0953769090 0.1980124620 -1 1
-0.0955489460 0.1986071620 -1 1
-0.0958004320 0.1982985690 -1 1
-0.0961060050 0.1970854420 -1 1
-0.0964414410 0.1950514570 -1 1
-0.0967792890 0.1923633790 -1 1
-0.0970866660 0.1892556300 -1 1
-0.0973257180 0.1860048820 -1 1
-0.0974575340 0.1829026050 -1 1
-0.0974505350 0.1802288730 -1 1
-0.0972900620 0.1782268650 -1 1
-0.0969833110 0.1770783090 -1 1
-0.0965571020 0.1768816960 -1 1
-0.0960502420 0.1776375320 -1 1
-0.0955037080 0.1792466250 -1 1
-0.0949523290 0.1815233270 -1 1
-0.0944215490 0.1842190850 -1 1
-0.0939302620 0.1870505720 -1 1
-0.0934966130 0.1897294700 -1 1
-0.0931408180 0.1919908460 -1 1
-0.0928802230 0.1936156080 -1 1
-0.0927188060 0.1944458710 -1 1
-0.0926405810 0.1943979080 -1 1
-0.0926137720 0.1934768580 -1 1
-0.0926025450 0.1917887130 -1 1
-0.0925776120 0.1895387800 -1 1
-0.0925200330 0.1870100880 -1 1
-0.0924185590 0.1845243690 -1 1
-0.0922655250 0.1823946450 -1 1
-0.0920567920 0.1808813230 -1 1
-0.0917964790 0.1801618580 -1 1
-0.0915017050 0.1803164170 -1 1
-0.0912024790 0.1813257690 -1 1
-0.0909360890 0.1830785570 -1 1
-0.0907384480 0.1853876530 -1 1
-0.0906352190 0.1880129980 -1 1
-0.0906351000 0.1906865020 -1 1
