0.0171818840 -0.0057733590 0 0
0.0168700400 -0.0079914920 0 0
0.0167281330 -0.0094465550 0 0
0.0167412050 -0.0100055830 0 0
0.0168731650 -0.0096128270 0 0
0.0170788330 -0.0082978820 0 0
0.0173153070 -0.0061773950 0 0
0.0175459110 -0.0034469410 0 0
0.0177374510 -0.0003637140 0 0
0.0178573760 0.0027763670 0 0
0.0178761210 0.0056642080 0 0
0.0177743290 0.0080052270 0 0
0.0175506010 0.0095486750 0 0
0.0172251740 0.0101150630 0 0
0.0168372940 0.0096168840 0 0
0.0164374230 0.0080699650 0 0
0.0160774370 0.0055947370 0 0
0.0158012430 0.0024070670 0 0
0.0156366650 -0.0012019720 0 0
0.0155896410 -0.0048968950 0 0
0.0156428850 -0.0083350250 0 0
0.0157604170 -0.0112031450 0 0
0.0158959750 -0.0132482850 0 0
0.0160006420 -0.0143003160 0 0
0.0160264610 -0.0142849870 0 0
0.0159266420 -0.0132273010 0 0
0.0156549650 -0.0112473330 0 0
0.0151669430 -0.0085498960 0 0
0.0144240150 -0.0054066600 0 0
0.0133998030 -0.0021299300 0 0
0.0120858760 0.0009588090 0 0
0.0104948620 0.0035604050 0 0
0.0086603270 0.0054262400 0 0
0.0066346450 0.0063815610 0 0
0.0044866690 0.0063419460 0 0
0.0022991730 0.0053206740 0 0
0.0001637190 0.0034262640 0 0
-0.0018283590 0.0008506190 0 0
-0.0035966770 -0.0021508960 0 0
-0.0050812240 -0.0052850280 0 0
-0.0062490450 -0.0082494810 0 0
-0.0070974300 -0.0107629070 0 0
-0.0076526960 -0.0125931490 0 0
-0.0079644690 -0.0135804370 0 0
-0.0080965320 -0.0136530840 0 0
-0.0081165880 -0.0128343190 0 0
-0.0080877590 -0.0112398460 0 0
-0.0080626590 -0.0090659330 0 0
-0.0080786690 -0.0065678720 0 0
-0.0081544280 -0.0040310170 0 0
-0.0082894380 -0.0017401040 0 0
-0.0084673820 0.0000477824 0 0
-0.0086615550 0.0011255650 0 0
-0.0088405260 0.0013554310 0 0
-0.0089733500 0.0006847030 0 0
-0.0090351300 -0.0008451600 0 0
-0.0090132650 -0.0031002870 0 0
-0.0089122590 -0.0058678000 0 0
-0.0087540230 -0.0088792360 0 0
-0.0085728830 -0.0118409820 0 0
-0.0084074340 -0.0144670160 0 0
-0.0082928890 -0.0165089920 0 0
-0.0082567640 -0.0177811660 0 0
-0.0083178450 -0.0181790110 0 0
-0.0084861990 -0.0176890680 0 0
-0.0087626990 -0.0163881150 0 0
-0.0091382010 -0.0144320380 0 0
-0.0095928150 -0.0120359640 0 0
-0.0100955540 -0.0094491530 0 0
-0.0106055180 -0.0069300850 0 0
-0.0110762970 -0.0047244720 0 0
-0.0114640030 -0.0030447820 0 0
-0.0117367840 -0.0020506600 0 0
-0.0118818750 -0.0018336990 0 0
-0.0119065610 -0.0024116260 0 0
-0.0118323440 -0.0037328020 0 0
-0.0116854710 -0.0056845070 0 0
-0.0114885770 -0.0080986090 0 0
-0.0112561370 -0.0107573390 0 0
-0.0109931660 -0.0134068330 0 0
-0.0106957580 -0.0157805830 0 0
-0.0103534230 -0.0176282310 0 0
-0.0099539890 -0.0187445860 0 0
-0.0094904600 -0.0189955390 0 0
-0.0089673140 -0.0183368330 0 0
-0.0084038960 -0.0168211420 0 0
-0.0078342800 -0.0145919810 0 0
-0.0073038630 -0.0118662690 0 0
-0.0068629700 -0.0089090410 0 0
-0.0065586940 -0.0060043650 0 0
-0.0064276390 -0.0034260470 0 0
-0.0064911560 -0.0014111200 0 0
-0.0067522210 -0.0001395310 0 0
-0.0071929840 0.0002781420 0 0
-0.0077739230 -0.0001931890 0 0
-0.0084361270 -0.0015112590 0 0
-0.0091075910 -0.0035599890 0 0
-0.0097132320 -0.0061592250 0 0
-0.0101865340 -0.0090788260 0 0
-0.0104803120 -0.0120557190 0 0
-0.0105746040 -0.0148150530 0 0
-0.0104786170 -0.0170963340 0 0
-0.0102245150 -0.0186823400 0 0
-0.0098561590 -0.0194256420 0 0
-0.0094190940 -0.0192661750 0 0
-0.0089553970 -0.0182356430 0 0
-0.0085028730 -0.0164506620 0 0
-0.0080955630 -0.0141000080 0 0
-0.0077625990 -0.0114283460 0 0
-0.0075252610 -0.0087149540 0 0
-0.0073947660 -0.0062473570 0 0
-0.0073727640 -0.0042931870 0 0
-0.0074540280 -0.0030731990 0 0
-0.0076293230 -0.0027365740 0 0
-0.0078868120 -0.0033411520 0 0
-0.0082114780 -0.0048436170 0 0
-0.0085838470 -0.0071034710 0 0
-0.0089803060 -0.0099002950 0 0
-0.0093756260 -0.0129607030 0 0
-0.0097458250 -0.0159905800 0 0
-0.0100701470 -0.0187071930 0 0
-0.0103331600 -0.0208656630 0 0
-0.0105277260 -0.0222775510 0 0
-0.0106567420 -0.0228234620 0 0
-0.0107308230 -0.0224623630 0 0
-0.0107629090 -0.0212373490 0 0
-0.0107643530 -0.0192750400 0 0
-0.0107448660 -0.0167762370 0 0
-0.0107138940 -0.0139970160 0 0
-0.0106801210 -0.0112217880 0 0
-0.0106486430 -0.0087329500 0 0
-0.0106174890 -0.0067827570 0 0
-0.0105758190 -0.0055701270 0 0
-0.0105060220 -0.0052219180 0 0
-0.0103900510 -0.0057787740 0 0
-0.0102170280 -0.0071880600 0 0
-0.0099879910 -0.0093065910 0 0
-0.0097161690 -0.0119140260 0 0
-0.0094241870 -0.0147358910 0 0
-0.0091398680 -0.0174738090 0 0
-0.0088907570 -0.0198391130 0 0
-0.0086974080 -0.0215851970 0 0
-0.0085678080 -0.0225339030 0 0
-0.0084963180 -0.0225922050 0 0
-0.0084678070 -0.0217581440 0 0
-0.0084642270 -0.0201174630 0 0
-0.0084703220 -0.0178325790 0 0
-0.0084771950 -0.0151254030 0 0
-0.0084844270 -0.0122565170 0 0
-0.0085011070 -0.0095029770 0 0
-0.0085445290 -0.0071352700 0 0
-0.0086355270 -0.0053937300 0 0
-0.0087921300 -0.0044654400 0 0
-0.0090247360 -0.0044630630 0 0
-0.0093342230 -0.0054086310 0 0
-0.0097118390 -0.0072270700 0 0
-0.0101394540 -0.0097521250 0 0
-0.0105897070 -0.0127424960 0 0
-0.0110263650 -0.0159045400 0 0
-0.0114065050 -0.0189205280 0 0
-0.0116867620 -0.0214810260 0 0
-0.0118334700 -0.0233160640 0 0
-0.0118322830 -0.0242211620 0 0
-0.0116918810 -0.0240783790 0 0
-0.0114400510 -0.0228709800 0 0
-0.0111149500 -0.0206880540 0 0
-0.0107558960 -0.0177180010 0 0
-0.0103967970 -0.0142316210 0 0
-0.0100634680 -0.0105547670 0 0
-0.0097745560 -0.0070328360 0 0
-0.0095440030 -0.0039940180 0 0
-0.0093823600 -0.0017178360 0 0
-0.0092961040 -0.0004105320 0 0
-0.0092856070 -0.0001867890 0 0
-0.0093424710 -0.0010589350 0 0
-0.0094479030 -0.0029356980 0 0
-0.0095743090 -0.0056319750 0 0
-0.0096904120 -0.0088895730 0 0
-0.0097674630 -0.0124059380 0 0
-0.0097831110 -0.0158655660 0 0
-0.0097211020 -0.0189692740 0 0
-0.0095683210 -0.0214584690 0 0
-0.0093130290 -0.0231331530 0 0
-0.0089469110 -0.0238640900 0 0
-0.0084701540 -0.0236010060 0 0
-0.0078963920 -0.0223777200 0 0
-0.0072548720 -0.0203127490 0 0
-0.0065889120 -0.0176031970 0 0
-0.0059510710 -0.0145107070 0 0
-0.0053960260 -0.0113392430 0 0
-0.0049721280 -0.0084059240 0 0
-0.0047134340 -0.0060080400 0 0
-0.0046351990 -0.0043906250 0 0
-0.0047347200 -0.0037193510 0 0
-0.0049959040 -0.0040623850 0 0
-0.0053936910 -0.0053831130 0 0
-0.0058957320 -0.0075446820 0 0
-0.0064621560 -0.0103260170 0 0
-0.0070463790 -0.0134471340 0 0
-0.0075985780 -0.0166002200 0 0
-0.0080711750 -0.0194816220 0 0
-0.0084250750 -0.0218204350 0 0
-0.0086355260 -0.0234020990 0 0
-0.0086959650 -0.0240872250 0 0
-0.0086181760 -0.0238250850 0 0
-0.0084281090 -0.0226598810 0 0
-0.0081587770 -0.0207278180 0 0
-0.0078429810 -0.0182441560 0 0
-0.0075084950 -0.0154806460 0 0
-0.0071775290 -0.0127352100 0 0
-0.0068702530 -0.0102984980 0 0
-0.0066088520 -0.0084231680 0 0
-0.0064175900 -0.0072993640 0 0
-0.0063178010 -0.0070379520 0 0
-0.0063208310 -0.0076629030 0 0
-0.0064230340 -0.0091123360 0 0
-0.0066048960 -0.0112453110 0 0
-0.0068341910 -0.0138526870 0 0
-0.0070721380 -0.0166735080 0 0
-0.0072807340 -0.0194184160 0 0
-0.0074287610 -0.0217989170 0 0
-0.0074951100 -0.0235587290 0 0
-0.0074700660 -0.0245020180 0 0
-0.0073557880 -0.0245135120 0 0
-0.0071668400 -0.0235678950 0 0
-0.0069309020 -0.0217290610 0 0
-0.0066878920 -0.0191418690 0 0
-0.0064850350 -0.0160188330 0 0
-0.0063684160 -0.0126227540 0 0
-0.0063745740 -0.0092452060 0 0
-0.0065245900 -0.0061813450 0 0
-0.0068203310 -0.0037032700 0 0
-0.0072425970 -0.0020346910 0 0
-0.0077528720 -0.0013280200 0 0
-0.0082997490 -0.0016449940 0 0
-0.0088281910 -0.0029448820 0 0
-0.0092883070 -0.0050855110 0 0
-0.0096408380 -0.0078389470 0 0
-0.0098581450 -0.0109188180 0 0
-0.0099220690 -0.0140131740 0 0
-0.0098220700 -0.0168166690 0 0
-0.0095564280 -0.0190584110 0 0
-0.0091360770 -0.0205250770 0 0
-0.0085874540 -0.0210796710 0 0
-0.0079509750 -0.0206746680 0 0
-0.0072750580 -0.0193571730 0 0
-0.0066085950 -0.0172653000 0 0
-0.0059949290 -0.0146162240 0 0
-0.0054683850 -0.0116857020 0 0
-0.0050522760 -0.0087795230 0 0
-0.0047571420 -0.0062004050 0 0
-0.0045797670 -0.0042158030 0 0
-0.0045048370 -0.0030308550 0 0
-0.0045098100 -0.0027687700 0 0
-0.0045710490 -0.0034599220 0 0
-0.0046688440 -0.0050400050 0 0
-0.0047903950 -0.0073567550 0 0
-0.0049308500 -0.0101845580 0 0
-0.0050922270 -0.0132461700 0 0
-0.0052801230 -0.0162400590 0 0
-0.0054992650 -0.0188702110 0 0
-0.0057498150 -0.0208737770 0 0
-0.0060257920 -0.0220433860 0 0
-0.0063158310 -0.0222440140 0 0
-0.0066066040 -0.0214248300 0 0
-0.0068886260 -0.0196254020 0 0
-0.0071614360 -0.0169756850 0 0
-0.0074341810 -0.0136888470 0 0
-0.0077213420 -0.0100447860 0 0
-0.0080374500 -0.0063633360 0 0
-0.0083941830 -0.0029701480 0 0
-0.0087997780 -0.0001609670 0 0
-0.0092587460 0.0018302750 0 0
-0.0097706320 0.0028546820 0 0
-0.0103282200 0.0028595950 0 0
-0.0109164500 0.0018877440 0 0
-0.0115130670 0.0000669186 0 0
-0.0120909810 -0.0024057240 0 0
-0.0126216080 -0.0052811040 0 0
-0.0130787190 -0.0082775200 0 0
-0.0134423700 -0.0111038070 0 0
-0.0137017370 -0.0134855000 0 0
-0.0138557240 -0.0151907760 0 0
-0.0139117920 -0.0160532070 0 0
-0.0138847920 -0.0159886880 0 0
-0.0137968090 -0.0150047430 0 0
-0.0136768360 -0.0132015960 0 0
-0.0135582080 -0.0107635850 0 0
-0.0134733720 -0.0079405250 0 0
-0.0134480840 -0.0050226660 0 0
-0.0134971140 -0.0023135150 0 0
-0.0136219220 -0.0001018380 0 0
-0.0138105740 0.0013672630 0 0
-0.0140403780 0.0019206300 0 0
-0.0142817270 0.0014802070 0 0
-0.0145008610 0.0000758072 0 0
-0.0146622050 -0.0021555510 0 0
-0.0147332350 -0.0049840410 0 0
-0.0146920570 -0.0081136850 0 0
-0.0145335660 -0.0112174560 0 0
-0.0142699410 -0.0139750990 0 0
-0.0139249070 -0.0161081820 0 0
-0.0135254920 -0.0174082780 0 0
-0.0130963310 -0.0177553690 0 0
-0.0126585200 -0.0171252860 0 0
-0.0122309280 -0.0155875640 0 0
-0.0118313350 -0.0132964580 0 0
-0.0114768230 -0.0104767270 0 0
-0.0111836540 -0.0074041610 0 0
-0.0109660100 -0.0043809460 0 0
-0.0108333180 -0.0017071360 0 0
-0.0107875910 0.0003493310 0 0
-0.0108228180 0.0015805210 0 0
-0.0109272060 0.0018607860 0 0
-0.0110868540 0.0011609200 0 0
-0.0112881110 -0.0004479500 0 0
-0.0115174210 -0.0028022800 0 0
-0.0117603250 -0.0056653140 0 0
-0.0120018180 -0.0087538910 0 0
-0.0122283420 -0.0117673980 0 0
-0.0124303640 -0.0144148980 0 0
-0.0126045580 -0.0164397210 0 0
-0.0127546430 -0.0176419550 0 0
-0.0128902150 -0.0178975710 0 0
-0.0130237830 -0.0171716730 0 0
-0.0131670740 -0.0155238940 0 0
-0.0133276110 -0.0131046700 0 0
-0.0135055180 -0.0101419960 0 0
-0.0136902820 -0.0069197400 0 0
-0.0138594730 -0.0037496210 0 0
-0.0139825660 -0.0009403090 0 0
-0.0140292770 0.0012319940 0 0
-0.0139771870 0.0025494490 0 0
-0.0138142110 0.0028749740 0 0
-0.0135365420 0.0021690470 0 0
-0.0131454070 0.0004961010 0 0
-0.0126443940 -0.0019824830 0 0
-0.0120366130 -0.0050278970 0 0
-0.0113213590 -0.0083525190 0 0
-0.0104923610 -0.0116526120 0 0
-0.0095403340 -0.0146395950 0 0
-0.0084593450 -0.0170661250 0 0
-0.0072534380 -0.0187461530 0 0
-0.0059405550 -0.0195691540 0 0
-0.0045533060 -0.0195070900 0 0
-0.0031373390 -0.0186125070 0 0
-0.0017476500 -0.0170092070 0 0
-0.0004426990 -0.0148793110 0 0
0.0007228530 -0.0124493460 0 0
0.0017045770 -0.0099754880 0 0
0.0024716130 -0.0077260950 0 0
0.0030067290 -0.0059588780 0 0
0.0033051920 -0.0048922980 0 0
0.0033745040 -0.0046763920 0 0
0.0032357220 -0.0053713520 0 0
0.0029256370 -0.0069384220 0 0
0.0024978460 -0.0092425740 0 0
0.0020206060 -0.0120657130 0 0
0.0015704170 -0.0151290880 0 0
0.0012214450 -0.0181224480 0 0
0.0010330970 -0.0207373050 0 0
0.0010399690 -0.0227004780 0 0
0.0012472360 -0.0238030740 0 0
0.0016317350 -0.0239226000 0 0
0.0021474640 -0.0230370660 0 0
0.0027335950 -0.0212276450 0 0
0.0033235540 -0.0186681530 0 0
0.0038550530 -0.0156049570 0 0
0.0042800850 -0.0123321040 0 0
0.0045715450 -0.0091647620 0 0
0.0047240820 -0.0064126190 0 0
0.0047503740 -0.0043532830 0 0
0.0046756090 -0.0032051720 0 0
0.0045317340 -0.0031020430 0 0
0.0043516670 -0.0040744240 0 0
0.0041639990 -0.0060429720 0 0
0.0039896000 -0.0088250840 0 0
0.0038410040 -0.0121532630 0 0
0.0037241450 -0.0157037360 0 0
0.0036412250 -0.0191334440 0 0
0.0035932780 -0.0221199110 0 0
0.0035812380 -0.0243954920 0 0
0.0036053260 -0.0257702060 0 0
0.0036639610 -0.0261427540 0 0
0.0037532210 -0.0255019170 0 0
0.0038665220 -0.0239213020 0 0
0.0039944540 -0.0215507290 0 0
0.0041257840 -0.0186061540 0 0
0.0042499680 -0.0153565480 0 0
0.0043604090 -0.0121041390 0 0
0.0044577500 -0.0091574960 0 0
0.0045520560 -0.0068013690 0 0
0.0046616680 -0.0052674150 0 0
0.0048076010 -0.0047086290 0 0
0.0050062290 -0.0051818010 0 0
0.0052650540 -0.0066423730 0 0
0.0055836040 -0.0089507920 0 0
0.0059564740 -0.0118853380 0 0
0.0063740510 -0.0151591170 0 0
0.0068203830 -0.0184439560 0 0
0.0072718980 -0.0214034870 0 0
0.0077000030 -0.0237312670 0 0
0.0080766670 -0.0251850550 0 0
0.0083801500 -0.0256105530 0 0
0.0085989520 -0.0249534380 0 0
0.0087336010 -0.0232619720 0 0
0.0087957590 -0.0206827700 0 0
0.0088039010 -0.0174499460 0 0
0.0087767200 -0.0138657900 0 0
0.0087273310 -0.0102728550 0 0
0.0086607960 -0.0070203410 0 0
0.0085758060 -0.0044286020 0 0
0.0084697500 -0.0027560260 0 0
0.0083449670 -0.0021726710 0 0
0.0082130560 -0.0027427310 0 0
0.0080949790 -0.0044157120 0 0
0.0080168880 -0.0070276990 0 0
0.0080038600 -0.0103159960 0 0
0.0080744820 -0.0139481550 0 0
0.0082381060 -0.0175611860 0 0
0.0084946690 -0.0208027230 0 0
0.0088356020 -0.0233661550 0 0
0.0092440260 -0.0250167810 0 0
0.0096942540 -0.0256106680 0 0
0.0101535960 -0.0251080370 0 0
0.0105884920 -0.0235797960 0 0
0.0109719860 -0.0212030460 0 0
0.0112875300 -0.0182419480 0 0
0.0115277560 -0.0150158510 0 0
0.0116905560 -0.0118622550 0 0
0.0117755780 -0.0091023110 0 0
0.0117832010 -0.0070119920 0 0
0.0117162580 -0.0057988360 0 0
0.0115833200 -0.0055847270 0 0
0.0114020210 -0.0063965760 0 0
0.0112009360 -0.0081656080 0 0
0.0110181110 -0.0107339420 0 0
0.0108947400 -0.0138676500 0 0
0.0108651040 -0.0172766570 0 0
0.0109467730 -0.0206406490 0 0
0.0111348290 -0.0236381670 0 0
0.0114013700 -0.0259769720 0 0
0.0116999400 -0.0274255710 0 0
0.0119738980 -0.0278434230 0 0
0.0121670820 -0.0272023740 0 0
0.0122342740 -0.0255915680 0 0
0.0121486320 -0.0232038800 0 0
0.0119045070 -0.0203084260 0 0
0.0115154560 -0.0172166980 0 0
0.0110079800 -0.0142487770 0 0
0.0104129420 -0.0117032950 0 0
0.0097583730 -0.0098330370 0 0
0.0090672950 -0.0088271060 0 0
0.0083611960 -0.0087991970 0 0
0.0076651720 -0.0097803160 0 0
0.0070090280 -0.0117143270 0 0
0.0064227180 -0.0144570570 0 0
0.0059304530 -0.0177830530 0 0
0.0055490910 -0.0214042710 0 0
0.0052923870 -0.0250005480 0 0
0.0051769490 -0.0282560050 0 0
0.0052232370 -0.0308931790 0 -1
0.0054482270 -0.0326990040 0 -1
0.0058531370 -0.0335410560 0 -1
0.0064133310 -0.0333747480 0 -1
0.0070755330 -0.0322430420 0 -1
0.0077633010 -0.0302712160 0 -1
0.0083895460 -0.0276583560 0 0
0.0088734260 -0.0246643240 0 0
0.0091562620 -0.0215889190 0 0
0.0092103630 -0.0187421410 0 0
0.0090384750 -0.0164097390 0 0
0.0086661690 -0.0148209210 0 0
0.0081315460 -0.0141233610 0 0
0.0074772000 -0.0143683030 0 0
0.0067478180 -0.0155073530 0 0
0.0059923140 -0.0174007680 0 0
0.0052654360 -0.0198349820 0 0
0.0046239760 -0.0225462160 0 0
0.0041176440 -0.0252467830 0 0
0.0037800960 -0.0276513650 0 0
0.0036251920 -0.0295022100 0 0
0.0036481260 -0.0305929120 0 -1
0.0038283470 -0.0307900090 0 -1
0.0041326930 -0.0300501580 0 -1
0.0045187270 -0.0284289110 0 0
0.0049386380 -0.0260776860 0 0
0.0053433520 -0.0232276950 0 0
0.0056855050 -0.0201617390 0 0
0.0059206360 -0.0171789020 0 0
0.0060082060 -0.0145603370 0 0
0.0059148500 -0.0125418230 0 0
0.0056211160 -0.0112940260 0 0
0.0051300600 -0.0109100980 0 0
0.0044729480 -0.0114006680 0 0
0.0037075710 -0.0126962320 0 0
0.0029093350 -0.0146562680 0 0
0.0021592770 -0.0170827660 0 0
0.0015325350 -0.0197364480 0 0
0.0010884600 -0.0223567760 0 0
0.0008636160 -0.0246853400 0 0
0.0008697580 -0.0264884350 0 0
0.0010966480 -0.0275761990 0 0
0.0015161640 -0.0278193120 0 0
0.0020853510 -0.0271637820 0 0
0.0027499660 -0.0256409280 0 0
0.0034501980 -0.0233675530 0 0
0.0041276570 -0.0205343270 0 0
0.0047320900 -0.0173864240 0 0
0.0052267650 -0.0142010570 0 0
0.0055913010 -0.0112621310 0 0
0.0058214390 -0.0088324800 0 0
0.0059270960 -0.0071280890 0 0
0.0059303300 -0.0062981710 0 0
0.0058627020 -0.0064113510 0 0
0.0057600460 -0.0074473960 0 0
0.0056543120 -0.0092955410 0 0
0.0055655050 -0.0117617610 0 0
0.0054984510 -0.0145871220 0 0
0.0054469140 -0.0174763550 0 0
0.0054023480 -0.0201310610 0 0
0.0053612990 -0.0222804680 0 0
0.0053274090 -0.0237069200 0 0
0.0053085360 -0.0242665730 0 0
0.0053117950 -0.0239039340 0 0
0.0053385360 -0.0226575560 0 0
0.0053804740 -0.0206558110 0 0
0.0054184810 -0.0181023980 0 0
0.0054251180 -0.0152518590 0 0
0.0053708930 -0.0123791930 0 0
0.0052336560 -0.0097520450 0 0
0.0050084960 -0.0076112910 0 0
0.0047129000 -0.0061569620 0 0
0.0043833950 -0.0055327830 0 0
0.0040648760 -0.0058087570 0 0
0.0037975900 -0.0069670870 0 0
0.0036073080 -0.0088961560 0 0
0.0035021550 -0.0113954740 0 0
0.0034760710 -0.0141934800 0 0
0.0035157250 -0.0169773260 0 0
0.0036061240 -0.0194294980 0 0
0.0037320280 -0.0212637650 0 0
0.0038763720 -0.0222548090 0 0
0.0040192130 -0.0222598150 0 0
0.0041400930 -0.0212319820 0 0
0.0042243250 -0.0192257020 0 0
0.0042703290 -0.0163934220 0 0
0.0042930860 -0.0129739730 0 0
0.0043205460 -0.0092716780 0 0
0.0043845510 -0.0056272590 0 0
0.0045112770 -0.0023845210 0 0
0.0047154770 0.0001428490 0 0
0.0049993310 0.0017021270 0 0
0.0053538730 0.0021290160 0 0
0.0057608290 0.0013687120 0 0
0.0061946000 -0.0005145910 0 0
0.0066257760 -0.0033430090 0 0
0.0070269450 -0.0068444210 0 0
0.0073784050 -0.0106832100 0 0
0.0076700050 -0.0144981570 0 0
0.0078984620 -0.0179420590 0 0
0.0080629770 -0.0207174560 0 0
0.0081617970 -0.0226037390 0 0
0.0081904780 -0.0234727710 0 0
0.0081416660 -0.0232930260 0 0
0.0080065660 -0.0221249390 0 0
0.0077783120 -0.0201101700 0 0
0.0074563350 -0.0174556110 0 0
0.0070493650 -0.0144128700 0 0
0.0065749990 -0.0112560090 0 0
0.0060555290 -0.0082614640 0 0
0.0055114150 -0.0056908850 0 0
0.0049556970 -0.0037728410 0 0
0.0043932010 -0.0026809780 0 0
0.0038248880 -0.0025130530 0 0
0.0032532150 -0.0032773360 0 0
0.0026842520 -0.0048888200 0 0
0.0021270010 -0.0071746810 0 0
0.0015933140 -0.0098894320 0 0
0.0010993960 -0.0127402820 0 0
0.0006669020 -0.0154194260 0 0
0.0003214620 -0.0176373100 0 0
0.0000877891 -0.0191527670 0 0
-0.0000170577 -0.0197981160 0 0
0.0000111774 -0.0194962930 0 0
0.0001622480 -0.0182669150 0 0
0.0004123840 -0.0162218760 0 0
0.0007274270 -0.0135540750 0 0
0.0010685820 -0.0105209130 0 0
0.0013997540 -0.0074212540 0 0
0.0016935700 -0.0045658340 0 0
0.0019336120 -0.0022448330 0 0
0.0021132430 -0.0006973860 0 0
0.0022340920 -0.0000861858 0 0
0.0023068820 -0.0004799310 0 0
0.0023538970 -0.0018464410 0 0
0.0024094490 -0.0040570470 0 0
0.0025152890 -0.0069001200 0 0
0.0027113260 -0.0101020580 0 0
0.0030253330 -0.0133555680 0 0
0.0034658110 -0.0163529120 0 0
0.0040197860 -0.0188178830 0 0
0.0046543840 -0.0205314240 0 0
0.0053196490 -0.0213504240 0 0
0.0059512590 -0.0212204390 0 0
0.0064746310 -0.0201811160 0 0
0.0068132580 -0.0183621950 0 0
0.0069023450 -0.0159692890 0 0
0.0067050540 -0.0132610560 0 0
0.0062247910 -0.0105218090 0 0
0.0055069140 -0.0080347020 0 0
0.0046292350 -0.0060585090 0 0
0.0036867590 -0.0048068270 0 0
0.0027761950 -0.0044274280 0 0
0.0019823930 -0.0049834570 0 0
0.0013679170 -0.0064422730 0 0
0.0009679720 -0.0086765750 0 0
0.0007917500 -0.0114776520 0 0
0.0008281160 -0.0145772730 0 0
0.0010520460 -0.0176745060 0 0
0.0014303120 -0.0204646760 0 0
0.0019269550 -0.0226679170 0 0
0.0025074600 -0.0240546980 0 0
0.0031389060 -0.0244666960 0 0
0.0037870480 -0.0238329420 0 0
0.0044153490 -0.0221810370 0 0
0.0049888060 -0.0196409230 0 0
0.0054805340 -0.0164368960 0 0
0.0058774140 -0.0128656970 0 0
0.0061825280 -0.0092639790 0 0
0.0064131420 -0.0059718000 0 0
0.0065938910 -0.0032973330 0 0
0.0067474240 -0.0014848570 0 0
0.0068872020 -0.0006880470 0 0
0.0070158130 -0.0009531100 0 0
0.0071282410 -0.0022165110 0 0
0.0072169670 -0.0043176460 0 0
0.0072764550 -0.0070220150 0 0
0.0073067230 -0.0100492510 0 0
0.0073155160 -0.0131020780 0 0
0.0073170850 -0.0158937880 0 0
0.0073271960 -0.0181719340 0 0
0.0073574920 -0.0197364240 0 0
0.0074122680 -0.0204526410 0 0
0.0074882030 -0.0202614550 0 0
0.0075765090 -0.0191856400 0 0
0.0076676110 -0.0173295800 0 0
0.0077577760 -0.0148708210 0 0
0.0078538280 -0.0120448850 0 0
0.0079704480 -0.0091243150 0 0
0.0081187190 -0.0063923760 0 0
0.0082922030 -0.0041146450 0 0
0.0084602600 -0.0025130050 0 0
0.0085737390 -0.0017441890 0 0
0.0085802300 -0.0018839240 0 0
0.0084412000 -0.0029179860 0 0
0.0081430090 -0.0047411440 0 0
0.0076981710 -0.0071649190 0 0
0.0071398240 -0.0099345020 0 0
0.0065154500 -0.0127537660 0 0
0.0058828650 -0.0153166380 0 0
0.0053064480 -0.0173419090 0 0
0.0048500990 -0.0186064590 0 0
0.0045665290 -0.0189715890 0 0
0.0044860080 -0.0183984560 0 0
0.0046087400 -0.0169501430 0 0
0.0049036730 -0.0147811450 0 0
0.0053140530 -0.0121185600 0 0
0.0057680290 -0.0092390800 0 0
0.0061911090 -0.0064433060 0 0
0.0065170230 -0.0040281200 0 0
0.0066960390 -0.0022585540 0 0
0.0067017350 -0.0013411050 0 0
0.0065352590 -0.0014007840 0 0
0.0062245360 -0.0024643950 0 0
0.0058190860 -0.0044529820 0 0
0.0053842800 -0.0071862910 0 0
0.0049964470 -0.0104002030 0 0
0.0047356370 -0.0137750490 0 0
0.0046722390 -0.0169704500 0 0
0.0048486070 -0.0196617630 0 0
0.0052628570 -0.0215745550 0 0
0.0058632090 -0.0225145340 0 0
0.0065561370 -0.0223888110 0 0
0.0072253670 -0.0212143050 0 0
0.0077554250 -0.0191124960 0 0
0.0080534050 -0.0162928380 0 0
0.0080639480 -0.0130287690 0 0
0.0077747270 -0.0096298300 0 0
0.0072129330 -0.0064116640 0 0
0.0064358090 -0.0036658430 0 0
0.0055184960 -0.0016330520 0 0
0.0045423760 -0.0004816320 0 0
0.0035868030 -0.0002916310 0 0
0.0027249000 -0.0010468690 0 0
0.0020210870 -0.0026384450 0 0
0.0015269140 -0.0048790910 0 0
0.0012739480 -0.0075247040 0 0
0.0012670920 -0.0102998790 0 0
0.0014831910 -0.0129251400 0 0
0.0018758080 -0.0151432790 0 0
0.0023834510 -0.0167423650 0 0
0.0029387870 -0.0175737770 0 0
0.0034777960 -0.0175633710 0 0
0.0039478330 -0.0167139810 0 0
0.0043135330 -0.0151006740 0 0
0.0045606320 -0.0128630690 0 0
0.0046984660 -0.0101969620 0 0
0.0047594840 -0.0073430590 0 0
0.0047923880 -0.0045699580 0 0
0.0048488440 -0.0021515700 0 0
0.0049681340 -0.0003408100 0 0
0.0051651240 0.0006582990 0 0
0.0054260650 0.0007166100 0 0
0.0057145250 -0.0002011560 0 0
0.0059851470 -0.0020289930 0 0
0.0061986910 -0.0046048410 0 0
0.0063322030 -0.0076859310 0 0
0.0063825250 -0.0109719520 0 0
0.0063654660 -0.0141349800 0 0
0.0063128740 -0.0168533980 0 0
0.0062677860 -0.0188453040 0 0
0.0062779460 -0.0198979070 0 0
0.0063893700 -0.0198905870 0 0
0.0066399590 -0.0188087170 0 0
0.0070511050 -0.0167454120 0 0
0.0076179210 -0.0138907750 0 0
0.0083030790 -0.0105108400 0 0
0.0090392420 -0.0069198810 0 0
0.0097419410 -0.0034501240 0 0
0.0103306750 -0.0004215720 0 0
0.0107511900 0.0018865020 0 0
0.0109887940 0.0032602330 0 0
0.0110660600 0.0035693620 0 0
0.0110288380 0.0027770220 0 0
0.0109325880 0.0009414260 0 0
0.0108357740 -0.0017881420 0 0
0.0107948310 -0.0051799940 0 0
0.0108543890 -0.0089358660 0 0
0.0110373430 -0.0127160840 0 0
0.0113437340 -0.0161725410 0 0
0.0117579680 -0.0189852420 0 0
0.0122549090 -0.0208973340 0 0
0.0127983260 -0.0217429230 0 0
0.0133348210 -0.0214627410 0 0
0.0137919500 -0.0201069090 0 0
0.0140868910 -0.0178278810 0 0
0.0141441340 -0.0148660770 0 0
0.0139135190 -0.0115283530 0 0
0.0133801460 -0.0081590410 0 0
0.0125649020 -0.0051054090 0 0
0.0115198080 -0.0026818290 0 0
0.0103215100 -0.0011373680 0 0
0.0090633720 -0.0006297220 0 0
0.0078467350 -0.0012072550 0 0
0.0067731850 -0.0028014480 0 0
0.0059363760 -0.0052327380 0 0
0.0054089850 -0.0082310700 0 0
0.0052277060 -0.0114686830 0 0
0.0053880950 -0.0145987490 0 0
0.0058546730 -0.0172928000 0 0
0.0065771770 -0.0192726850 0 0
0.0075005090 -0.0203358460 0 0
0.0085646050 -0.0203734670 0 0
0.0096995720 -0.0193799550 0 0
0.0108248290 -0.0174513410 0 0
0.0118573540 -0.0147725150 0 0
0.0127250270 -0.0115960460 0 0
0.0133751190 -0.0082154560 0 0
0.0137728520 -0.0049365550 0 0
0.0138954450 -0.0020512660 0 0
0.0137310260 0.0001850910 0 0
0.0132847440 0.0015751940 0 0
0.0125851700 0.0019989620 0 0
0.0116835840 0.0014256240 0 0
0.0106451420 -0.0000850878 0 0
0.0095368790 -0.0023915680 0 0
0.0084198920 -0.0052851550 0 0
0.0073495230 -0.0085082670 0 0
0.0063789830 -0.0117750330 0 0
0.0055581910 -0.0147946720 0 0
0.0049260430 -0.0172972090 0 0
0.0045028260 -0.0190601870 0 0
0.0042890260 -0.0199330540 0 0
0.0042692000 -0.0198535920 0 0
0.0044153880 -0.0188529160 0 0
0.0046875050 -0.0170505270 0 0
0.0050327920 -0.0146424450 0 0
0.0053877810 -0.0118832890 0 0
0.0056847590 -0.0090621420 0 0
0.0058623360 -0.0064738410 0 0
0.0058770770 -0.0043890040 0 0
0.0057119590 -0.0030256070 0 0
0.0053790140 -0.0025243030 0 0
0.0049160760 -0.0029308140 0 0
0.0043791300 -0.0041895980 0 0
0.0038331340 -0.0061503730 0 0
0.0033447830 -0.0085849350 0 0
0.0029770660 -0.0112112560 0 0
0.0027812110 -0.0137244120 0 0
0.0027850590 -0.0158329810 0 0
0.0029839670 -0.0172944240 0 0
0.0033406050 -0.0179402870 0 0
0.0037939740 -0.0176867660 0 0
0.0042729870 -0.0165338110 0 0
0.0047091900 -0.0145586820 0 0
0.0050452790 -0.0119071930 0 0
0.0052390990 -0.0087823570 0 0
0.0052661100 -0.0054287380 0 0
0.0051243540 -0.0021125580 0 0
0.0048409250 0.0008990240 0 0
0.0044717630 0.0033561660 0 0
0.0040879570 0.0050441510 0 0
0.0037535840 0.0058050540 0 0
0.0035082680 0.0055613690 0 0
0.0033626420 0.0043329630 0 0
0.0033060220 0.0022399190 0 0
0.0033211270 -0.0005100380 0 0
0.0033977730 -0.0036457580 0 0
0.0035376450 -0.0068623960 0 0
0.0037483330 -0.0098513310 0 0
0.0040320450 -0.0123282340 0 0
0.0043770800 -0.0140592520 0 0
0.0047577620 -0.0148841010 0 0
0.0051427320 -0.0147332300 0 0
0.0055055980 -0.0136366120 0 0
0.0058305740 -0.0117229480 0 0
0.0061104080 -0.0092086100 0 0
0.0063396960 -0.0063758350 0 0
0.0065082750 -0.0035417940 0 0
0.0065985490 -0.0010233250 0 0
0.0065885560 0.0008974880 0 0
0.0064593840 0.0020036410 0 0
0.0062037370 0.0021668370 0 0
0.0058327240 0.0013612010 0 0
0.0053786140 -0.0003353030 0 0
0.0048932410 -0.0027516150 0 0
0.0044430510 -0.0056437670 0 0
0.0041004070 -0.0087205050 0 0
0.0039305100 -0.0116712150 0 0
0.0039776230 -0.0141945210 0 0
0.0042566760 -0.0160258110 0 0
0.0047519430 -0.0169611100 0 0
0.0054199530 -0.0168762100 0 0
0.0061949010 -0.0157413040 0 0
0.0069980180 -0.0136285080 0 0
0.0077518500 -0.0107077880 0 0
0.0083961070 -0.0072304080 0 0
0.0088985780 -0.0035031760 0 0
0.0092563340 0.0001428350 0 0
0.0094867940 0.0033864520 0 0
0.0096125120 0.0059499750 0 0
0.0096474610 0.0076271720 0 0
0.0095925780 0.0083013910 0 0
0.0094414540 0.0079520960 0 0
0.0091893100 0.0066509740 0 0
0.0088383130 0.0045509250 0 0
0.0083981320 0.0018714700 0 0
0.0078847620 -0.0011186960 0 0
0.0073206910 -0.0041239310 0 0
0.0067366810 -0.0068487400 0 0
0.0061719380 -0.0090254600 0 0
0.0056689840 -0.0104377850 0 0
0.0052630970 -0.0109400740 0 0
0.0049704940 -0.0104736970 0 0
0.0047807110 -0.0090763250 0 0
0.0046567970 -0.0068787820 0 0
0.0045442700 -0.0040908090 0 0
0.0043861900 -0.0009809540 0 0
0.0041375600 0.0021473660 0 0
0.0037727340 0.0049843870 0 0
0.0032856590 0.0072453930 0 0
0.0026877450 0.0087001050 0 0
0.0020066070 0.0091961110 0 0
0.0012843610 0.0086752350 0 0
0.0005724190 0.0071822110 0 0
-0.0000781531 0.0048637030 0 0
-0.0006278620 0.0019555790 0 0
-0.0010567710 -0.0012418980 0 0
-0.0013667950 -0.0043983150 0 0
-0.0015797990 -0.0071916810 0 0
-0.0017322680 -0.0093450410 0 0
-0.0018646610 -0.0106552720 0 0
-0.0020066700 -0.0110096040 0 0
-0.0021656420 -0.0103880620 0 0
-0.0023249340 -0.0088553060 0 0
-0.0024521020 -0.0065502470 0 0
-0.0025105460 -0.0036797640 0 0
-0.0024671490 -0.0005131780 0 0
-0.0022941340 0.0026340860 0 0
-0.0019720280 0.0054364690 0 0
-0.0015007590 0.0076095150 0 0
-0.0009139140 0.0089571940 0 0
-0.0002822360 0.0093939100 0 0
0.0003005320 0.0089364660 0 0
0.0007425360 0.0076798420 0 0
0.0009772250 0.0057725560 0 0
0.0009780660 0.0033988910 0 0
0.0007633980 0.0007689890 0 0
0.0003920610 -0.0018875190 0 0
-0.0000483661 -0.0043316620 0 0
-0.0004567750 -0.0063315250 0 0
-0.0007340880 -0.0076811200 0 0
-0.0007983970 -0.0082194050 0 0
-0.0005979770 -0.0078511140 0 0
-0.0001182530 -0.0065682290 0 0
0.0006187970 -0.0044636020 0 0
0.0015584500 -0.0017264880 0 0
0.0026150220 0.0013822500 0 0
0.0036744000 0.0045660120 0 0
0.0046065820 0.0075259970 0 0
0.0052919050 0.0099873190 0 0
0.0056523660 0.0117219900 0 0
0.0056731820 0.0125697360 0 0
0.0054045380 0.0124509400 0 0
0.0049436580 0.0113713470 0 0
0.0044059060 0.0094250530 0 0
0.0038966290 0.0067957380 0 0
0.0034911050 0.0037466940 0 0
0.0032225370 0.0005946990 0 0
0.0030765080 -0.0023256570 0 0
0.0029949120 -0.0046987780 0 0
0.0028934300 -0.0062645500 0 0
0.0026897500 -0.0068531810 0 0
0.0023312740 -0.0064088360 0 0
0.0018100530 -0.0049921930 0 0
0.0011606240 -0.0027628840 0 0
0.0004459020 0.0000491800 0 0
-0.0002596290 0.0031744320 0 0
-0.0008823270 0.0063296430 0 0
-0.0013561610 0.0092362920 0 0
-0.0016290900 0.0116335250 0 0
-0.0016739380 0.0132923270 0 0
-0.0014990430 0.0140356010 0 0
-0.0011478450 0.0137613670 0 0
-0.0006834410 0.0124612780 0 0
-0.0001664450 0.0102284560 0 0
0.0003605380 0.0072531280 0 0
0.0008747910 0.0038075500 0 0
0.0013653460 0.0002226800 0 0
0.0018229030 -0.0031417190 0 0
0.0022338810 -0.0059337610 0 0
0.0025818300 -0.0078525140 0 0
0.0028549010 -0.0086908560 0 0
0.0030523420 -0.0083658720 0 0
0.0031834690 -0.0069280910 0 0
0.0032598660 -0.0045500020 0 0
0.0032869130 -0.0014996220 0 0
0.0032595700 0.0018949940 0 0
0.0031629660 0.0052856610 0 0
0.0029748620 0.0083444290 0 0
0.0026681430 0.0108005930 0 0
0.0022159870 0.0124701200 0 0
0.0016027850 0.0132707050 0 0
0.0008373450 0.0132153750 0 0
-0.0000401110 0.0123869660 0 0
-0.0009616920 0.0109082310 0 0
-0.0018429720 0.0089231870 0 0
-0.0025962230 0.0065944150 0 0
-0.0031435670 0.0041085400 0 0
-0.0034288020 0.0016762150 0 0
-0.0034255950 -0.0004810390 0 0
-0.0031409560 -0.0021534740 0 0
-0.0026149930 -0.0031677930 0 0
-0.0019171290 -0.0034091940 0 0
-0.0011363750 -0.0028382850 0 0
-0.0003656740 -0.0014989960 0 0
0.0003133090 0.0004888160 0 0
0.0008397850 0.0029530680 0 0
0.0011805940 0.0056967750 0 0
0.0013370150 0.0085114560 0 0
0.0013464820 0.0111741780 0 0
0.0012720260 0.0134462410 0 0
0.0011806100 0.0150915380 0 0
0.0011208060 0.0159119450 0 0
0.0011115410 0.0157828420 0 0
0.0011459720 0.0146781550 0 0
0.0012045520 0.0126844350 0 0
0.0012677080 0.0100024500 0 0
0.0013231840 0.0069310090 0 0
0.0013686010 0.0038312170 0 0
0.0014106650 0.0010760460 0 0
0.0014611100 -0.0010045550 0 0
0.0015306380 -0.0021702620 0 0
0.0016242060 -0.0022993030 0 0
0.0017393190 -0.0013976760 0 0
0.0018656400 0.0004074920 0 0
0.0019844910 0.0028856290 0 0
0.0020696920 0.0057297040 0 0
0.0020918820 0.0085920450 0 0
0.0020261000 0.0111248450 0 0
0.0018590840 0.0130185520 0 0
0.0015918990 0.0140330070 0 0
0.0012379030 0.0140196330 0 0
0.0008207190 0.0129348790 0 0
0.0003748480 0.0108445250 0 0
-0.0000534585 0.0079176240 0 0
-0.0004082320 0.0044098860 0 0
-0.0006294450 0.0006381000 0 0
-0.0006617520 -0.0030514580 0 0
-0.0004661220 -0.0063165340 0 0
-0.0000329825 -0.0088505060 0 0
0.0006082010 -0.0104108030 0 0
0.0013891660 -0.0108444860 0 0
0.0022147630 -0.0101085960 0 0
0.0029832790 -0.0082782850 0 0
0.0036091480 -0.0055368880 0 0
0.0040402750 -0.0021503650 0 0
0.0042638820 0.0015651980 0 0
0.0043007010 0.0052764260 0 0
0.0041915770 0.0086640190 0 0
0.0039813670 0.0114510490 0 0
0.0037056770 0.0134246320 0 0
0.0033858220 0.0144489920 0 0
0.0030331350 0.0144715670 0 0
0.0026577960 0.0135247000 0 0
0.0022752930 0.0117240140 0 0
0.0019074100 0.0092627690 0 0
0.0015798020 0.0064001690 0 0
0.0013184600 0.0034414480 0 0
0.0011436010 0.0007099490 0 0
0.0010607100 -0.0014862590 0 0
0.0010552470 -0.0028898400 0 0
0.0010975410 -0.0033258340 0 0
0.0011549330 -0.0027213790 0 0
0.0012032800 -0.0011095160 0 0
0.0012343320 0.0013794670 0 0
0.0012587680 0.0045340460 0 0
0.0013025540 0.0080842090 0 0
0.0013944930 0.0117295030 0 0
0.0015499770 0.0151648170 0 0
0.0017629220 0.0180998590 0 0
0.0020137110 0.0202783330 0 0
0.0022869270 0.0215018830 0 0
0.0025841950 0.0216544270 0 0
0.0029230660 0.0207186360 0 0
0.0033239810 0.0187794620 0 0
0.0037942710 0.0160153210 0 0
0.0043188530 0.0126813640 0 0
0.0048620660 0.0090876010 0 0
0.0053772730 0.0055709830 0 0
0.0058175840 0.0024607960 0 0
0.0061442530 0.0000407876 0 0
0.0063321210 -0.0014847990 0 0
0.0063708050 -0.0020136460 0 0
0.0062612610 -0.0015527940 0 0
0.0060111530 -0.0002126130 0 0
0.0056326240 0.0018093920 0 0
0.0051428450 0.0042522760 0 0
0.0045673720 0.0068208520 0 0
0.0039477870 0.0092183620 0 0
0.0033511800 0.0111787260 0 0
0.0028724610 0.0124925840 0 0
0.0026217620 0.0130239260 0 0
0.0026985500 0.0127191620 0 0
0.0031617940 0.0116108650 0 0
0.0040081030 0.0098145820 0 0
0.0051672140 0.0075165650 0 0
0.0065159710 0.0049541960 0 0
0.0079037590 0.0023933610 0 0
0.0091804000 0.0001051580 0 0
0.0102194340 -0.0016581580 0 0
0.0109329990 -0.0026871030 0 0
0.0112795740 -0.0028354880 0 0
0.0112702540 -0.0020350250 0 0
0.0109766190 -0.0003045220 0 0
0.0105314770 0.0022453250 0 0
0.0101061790 0.0054131930 0 0
0.0098621790 0.0089189990 0 0
0.0098986010 0.0124301600 0 0
0.0102224350 0.0156000970 0 0
0.0107498620 0.0181108160 0 0
0.0113301450 0.0197108560 0 0
0.0117827980 0.0202437920 0 0
0.0119420640 0.0196650730 0 0
0.0116989430 0.0180452330 0 0
0.0110297900 0.0155591560 0 0
0.0100066300 0.0124640840 0 0
0.0087865820 0.0090705570 0 0
0.0075785950 0.0057103710 0 0
0.0065951490 0.0027047830 0 0
0.0060049150 0.0003347190 0 0
0.0058981550 -0.0011852660 0 0
0.0062700210 -0.0017261960 0 0
0.0070253390 -0.0012546570 0 0
0.0080039880 0.0001657900 0 0
0.0090176840 0.0023807510 0 0
0.0098860080 0.0051602000 0 0
0.0104635370 0.0082233070 0 0
0.0106548600 0.0112684050 0 0
0.0104180230 0.0140024020 0 0
0.0097600580 0.0161672270 0 0
0.0087294870 0.0175624160 0 0
0.0074090860 0.0180628800 0 0
0.0059084640 0.0176313020 0 0
0.0043532930 0.0163232540 0 0
0.0028693490 0.0142819080 0 0
0.0015638470 0.0117222850 0 0
0.0005092080 0.0089087750 0 0
-0.0002659890 0.0061292810 0 0
-0.0007759440 0.0036675110 0 0
-0.0010676110 0.0017756270 0 0
-0.0012074920 0.0006503890 0 0
-0.0012700520 0.0004141920 0 0
-0.0013275620 0.0011014410 0 0
-0.0014409110 0.0026531950 0 0
-0.0016535890 0.0049228300 0 0
-0.0019890690 0.0076907640 0 0
-0.0024494050 0.0106855120 0 0
-0.0030153930 0.0136114940 0 0
-0.0036510580 0.0161821500 0 0
-0.0043125760 0.0181511460 0 0
-0.0049577350 0.0193348650 0 0
-0.0055518600 0.0196257310 0 0
-0.0060694970 0.0189992640 0 0
-0.0064938280 0.0175151190 0 0
-0.0068156180 0.0153105800 0 0
-0.0070329040 0.0125873430 0 0
-0.0071526020 0.0095936670 0 0
-0.0071925860 0.0066031700 0 0
-0.0071798940 0.0038918590 0 0
-0.0071431090 0.0017148150 0 0
-0.0071031780 0.0002828010 0 0
-0.0070690950 -0.0002596530 0 0
-0.0070402430 0.0001494540 0 0
-0.0070118290 0.0014821660 0 0
-0.0069792060 0.0036220940 0 0
-0.0069393330 0.0063733250 0 0
-0.0068899540 0.0094759300 0 0
-0.0068279440 0.0126281450 0 0
-0.0067477060 0.0155140860 0 0
-0.0066398580 0.0178334350 0 0
-0.0064912320 0.0193300980 0 0
-0.0062880410 0.0198196220 0 0
-0.0060218670 0.0192144490 0 0
-0.0056945460 0.0175419160 0 0
-0.0053185450 0.0149482100 0 0
-0.0049138800 0.0116846010 0 0
-0.0045044850 0.0080765560 0 0
-0.0041143150 0.0044808960 0 0
-0.0037620270 0.0012407650 0 0
-0.0034557180 -0.0013520570 0 0
-0.0031913480 -0.0030837400 0 0
-0.0029557930 -0.0038344360 0 0
-0.0027317960 -0.0035840490 0 0
-0.0025021890 -0.0024076650 0 0
-0.0022526860 -0.0004623420 0 0
-0.0019739250 0.0020322390 0 0
-0.0016640340 0.0048175840 0 0
-0.0013314140 0.0076224270 0 0
-0.0009947810 0.0101874990 0 0
-0.0006777420 0.0122863090 0 0
-0.0003995710 0.0137413930 0 0
-0.0001679700 0.0144365000 0 0
0.0000216439 0.0143252560 0 0
0.0001807270 0.0134370270 0 0
0.0003187380 0.0118803440 0 0
0.0004337260 0.0098419280 0 0
0.0005078890 0.0075751250 0 0
0.0005141490 0.0053710660 0 0
0.0004321480 0.0035160810 0 0
0.0002625450 0.0022509970 0 0
0.0000297879 0.0017451270 0 0
-0.0002249290 0.0020841440 0 0
-0.0004522730 0.0032655050 0 0
-0.0006020210 0.0051997030 0 0
-0.0006317490 0.0077192580 0 0
-0.0005166140 0.0105960210 0 0
-0.0002555480 0.0135639830 0 0
0.0001282690 0.0163435150 0 0
0.0005906530 0.0186662520 0 0
0.0010712490 0.0203019070 0 0
0.0015000780 0.0210833280 0 0
0.0018067640 0.0209221790 0 0
0.0019311570 0.0198122390 0 0
0.0018320780 0.0178246770 0 0
0.0014933470 0.0151021790 0 0
0.0009286240 0.0118534950 0 0
0.0001837520 0.0083431200 0 0
-0.0006683080 0.0048722000 0 0
-0.0015419160 0.0017522540 0 0
-0.0023562210 -0.0007265330 0 0
-0.0030464110 -0.0023298460 0 0
-0.0035667960 -0.0029087890 0 0
-0.0038908920 -0.0024168960 0 0
-0.0040126560 -0.0009130550 0 0
-0.0039489980 0.0014485470 0 0
-0.0037416270 0.0044393970 0 0
-0.0034548510 0.0077831450 0 0
-0.0031660820 0.0111822170 0 0
-0.0029496250 0.0143436150 0 0
-0.0028593770 0.0170044180 0 0
-0.0029179690 0.0189551600 0 0
-0.0031166740 0.0200588720 0 0
-0.0034248570 0.0202652200 0 0
-0.0038035580 0.0196180250 0 0
-0.0042171330 0.0182530110 0 0
-0.0046406680 0.0163856300 0 0
-0.0050646840 0.0142903500 0 0
-0.0054965710 0.0122683280 0 0
-0.0059544770 0.0106024930 0 0
-0.0064531830 0.0095133850 0 0
-0.0069894870 0.0091351560 0 0
-0.0075344430 0.0095161640 0 0
-0.0080326770 0.0106309230 0 0
-0.0084087730 0.0123894490 0 0
-0.0085859970 0.0146420600 0 0
-0.0085174120 0.0171861070 0 0
-0.0082145520 0.0197796760 0 0
-0.0077544940 0.0221619440 0 0
-0.0072584570 0.0240769400 0 0
-0.0068522100 0.0252981830 0 0
-0.0066287980 0.0256530460 0 0
-0.0066310410 0.0250441120 0 0
-0.0068560840 0.0234628680 0 0
-0.0072694760 0.0209927020 0 0
-0.0078154590 0.0178006940 0 0
-0.0084221800 0.0141206120 0 0
-0.0090101000 0.0102335690 0 0
-0.0095084930 0.0064512650 0 0
-0.0098739870 0.0030978690 0 0
-0.0100998950 0.0004821470 0 0
-0.0102115710 -0.0011406280 0 0
-0.0102526830 -0.0016063890 0 0
-0.0102697330 -0.0008671150 0 0
-0.0102987340 0.0010030650 0 0
-0.0103559760 0.0038192980 0 0
-0.0104350680 0.0073102650 0 0
-0.0105113170 0.0111495750 0 0
-0.0105512930 0.0149896660 0 0
-0.0105220240 0.0184954360 0 0
-0.0103941940 0.0213745930 0 0
-0.0101402750 0.0234006070 0 0
-0.0097370510 0.0244263550 0 0
-0.0091786790 0.0243912040 0 0
-0.0084917710 0.0233253550 0 0
-0.0077377630 0.0213505340 0 0
-0.0069983070 0.0186722610 0 0
-0.0063520620 0.0155627280 0 0
-0.0058546020 0.0123392260 0 0
-0.0055289980 0.0093409280 0 0
-0.0053676190 0.0068995980 0 0
-0.0053407660 0.0053011290 0 0
-0.0054085140 0.0047453940 0 0
-0.0055331610 0.0053174140 0 0
-0.0056877650 0.0069777750 0 0
-0.0058576510 0.0095711730 0 0
-0.0060370080 0.0128462190 0 0
-0.0062241590 0.0164809590 0 0
-0.0064174660 0.0201132070 0 0
-0.0066133320 0.0233752360 0 0
-0.0068070780 0.0259299620 0 0
-0.0069948570 0.0275062280 0 0
-0.0071733070 0.0279311540 0 0
-0.0073354440 0.0271532680 0 0
-0.0074644700 0.0252486510 0 0
-0.0075289080 0.0224088510 0 0
-0.0074832190 0.0189159240 0 0
-0.0072775110 0.0151101980 0 0
-0.0068760320 0.0113546920 0 0
-0.0062775560 0.0079997950 0 0
-0.0055267970 0.0053509550 0 0
-0.0047088850 0.0036412260 0 0
-0.0039269470 0.0030112550 0 0
-0.0032717280 0.0034986180 0 0
-0.0027979090 0.0050356740 0 0
-0.0025192380 0.0074550210 0 0
-0.0024225850 0.0105041130 0 0
-0.0024898540 0.0138699190 0 0
-0.0027158730 0.0172110120 0 0
-0.0031152670 0.0201929000 0 0
-0.0037139830 0.0225224610 0 0
-0.0045252380 0.0239768150 0 0
-0.0055203270 0.0244227370 0 0
-0.0066143820 0.0238256270 0 0
-0.0076812050 0.0222489160 0 0
-0.0085890220 0.0198451720 0 0
-0.0092338100 0.0168408980 0 0
-0.0095556550 0.0135169650 0 0
-0.0095407610 0.0101858880 0 0
-0.0092170330 0.0071668760 0 0
-0.0086472020 0.0047580400 0 0
-0.0079198150 0.0032044650 0 0
-0.0071379520 0.0026659270 0 0
-0.0064074530 0.0031940950 0 0
-0.0058272520 0.0047272560 0 0
-0.0054817170 0.0071019910 0 0
-0.0054318280 0.0100754620 0 0
-0.0057039670 0.0133523590 0 0
-0.0062809070 0.0166130400 0 0
-0.0071014300 0.0195414050 0 0
-0.0080708270 0.0218533170 0 0
-0.0090794030 0.0233256120 0 0
-0.0100237130 0.0238202180 0 0
-0.0108238700 0.0232974360 0 0
-0.0114302570 0.0218181740 0 0
-0.0118181480 0.0195353560 0 0
-0.0119774000 0.0166736200 0 0
-0.0119077670 0.0135019740 0 0
-0.0116243820 0.0103067340 0 0
-0.0111685060 0.0073673030 0 0
-0.0106134960 0.0049345240 0 0
-0.0100572520 0.0032124320 0 0
-0.0095995460 0.0023436760 0 0
-0.0093124240 0.0023975500 0 0
-0.0092182940 0.0033607180 0 0
-0.0092878960 0.0051330490 0 0
-0.0094594160 0.0075320080 0 0
-0.0096684980 0.0103083390 0 0
-0.0098743990 0.0131743380 0 0
-0.0100707270 0.0158412410 0 0
-0.0102771590 0.0180551600 0 0
-0.0105177860 0.0196203350 0 0
-0.0107981200 0.0204072720 0 0
-0.0110927230 0.0203520990 0 0
-0.0113484320 0.0194553690 0 0
-0.0114997680 0.0177841000 0 0
-0.0114890350 0.0154740050 0 0
-0.0112826400 0.0127252780 0 0
-0.0108761870 0.0097882280 0 0
-0.0102875180 0.0069398880 0 0
-0.0095461520 0.0044548630 0 0
-0.0086892620 0.0025744100 0 0
-0.0077656950 0.0014785730 0 0
-0.0068402960 0.0012656760 0 0
-0.0059898860 0.0019415160 0 0
-0.0052892270 0.0034183840 0 0
-0.0047941140 0.0055230750 0 0
-0.0045324310 0.0080146140 0 0
-0.0045085640 0.0106125450 0 0
-0.0047156530 0.0130305930 0 0
-0.0051437510 0.0150064140 0 0
-0.0057773870 0.0163236160 0 0
-0.0065875210 0.0168287130 0 0
-0.0075266110 0.0164442200 0 0
-0.0085293570 0.0151762770 0 0
-0.0095171460 0.0131166280 0 0
-0.0104063280 0.0104395990 0 0
-0.0111211540 0.0073919390 0 0
-0.0116073810 0.0042714970 0 0
-0.0118400490 0.0013940860 0 0
-0.0118232920 -0.0009452400 0 0
-0.0115849820 -0.0025069000 0 0
-0.0111693800 -0.0031311490 0 0
-0.0106295220 -0.0027507740 0 0
-0.0100201560 -0.0013933510 0 0
-0.0093918420 0.0008244050 0 0
-0.0087878390 0.0037080070 0 0
-0.0082450520 0.0070018010 0 0
-0.0077965980 0.0104100860 0 0
-0.0074713070 0.0136211130 0 0
-0.0072898690 0.0163335790 0 0
-0.0072628660 0.0182857520 0 0
-0.0073935820 0.0192853970 0 0
-0.0076806070 0.0192357450 0 0
-0.0081133380 0.0181495700 0 0
-0.0086612230 0.0161453400 0 0
-0.0092653970 0.0134284510 0 0
-0.0098409330 0.0102663200 0 0
-0.0102919090 0.0069628890 0 0
-0.0105354200 0.0038338780 0 0
-0.0105259850 0.0011827030 0 0
-0.0102696080 -0.0007249560 0 0
-0.0098204660 -0.0016890560 0 0
-0.0092618960 -0.0016004280 0 0
-0.0086808240 -0.0004551040 0 0
-0.0081473600 0.0016455170 0 0
-0.0077075410 0.0045059570 0 0
-0.0073876840 0.0078554510 0 0
-0.0072015580 0.0113721710 0 0
-0.0071538900 0.0147133680 0 0
-0.0072404840 0.0175515890 0 0
-0.0074483220 0.0196131840 0 0
-0.0077579880 0.0207125180 0 0
-0.0081482130 0.0207755760 0 0
-0.0086004870 0.0198473740 0 0
-0.0091019740 0.0180803250 0 0
-0.0096456060 0.0157078720 0 0
-0.0102260620 0.0130126780 0 0
-0.0108319960 0.0102957450 0 0
-0.0114389290 0.0078480760 0 0
-0.0120088030 0.0059258660 0 0
-0.0124982640 0.0047304530 0 0
-0.0128710790 0.0043931760 0 0
-0.0131063890 0.0049656190 0 0
-0.0131983610 0.0064161290 0 0
-0.0131516990 0.0086324510 0 0
-0.0129809400 0.0114299060 0 0
-0.0127149780 0.0145649090 0 0
-0.0124007890 0.0177534250 0 0
-0.0120993710 0.0206938530 0 0
-0.0118717480 0.0230936370 0 0
-0.0117605070 0.0246987390 0 0
-0.0117772040 0.0253244450 0 0
-0.0119016560 0.0248830740 0 0
-0.0120901040 0.0234002330 0 0
-0.0122861470 0.0210123700 0 0
-0.0124322580 0.0179468420 0 0
-0.0124828130 0.0144929740 0 0
-0.0124167580 0.0109710500 0 0
-0.0122431760 0.0077008030 0 0
-0.0119946630 0.0049699080 0 0
-0.0117119150 0.0030054880 0 0
-0.0114286860 0.0019532450 0 0
-0.0111635610 0.0018677220 0 0
-0.0109193270 0.0027133820 0 0
-0.0106871410 0.0043723390 0 0
-0.0104522060 0.0066553700 0 0
-0.0101994510 0.0093172710 0 0
-0.0099193290 0.0120792370 0 0
-0.0096126300 0.0146566740 0 0
-0.0092911300 0.0167863940 0 0
-0.0089718710 0.0182493680 0 0
-0.0086668820 0.0188905280 0 0
-0.0083728080 0.0186365390 0 0
-0.0080640840 0.0175071520 0 0
-0.0076933710 0.0156148430 0 0
-0.0072038040 0.0131523130 0 0
-0.0065521020 0.0103703620 0 0
-0.0057316680 0.0075495430 0 0
-0.0047833920 0.0049720100 0 0
-0.0037906650 0.0028990810 0 0
-0.0028631820 0.0015526380 0 0
-0.0021155340 0.0010950980 0 0
-0.0016451160 0.0016082180 0 0
-0.0015134920 0.0030771390 0 0
-0.0017358820 0.0053861370 0 0
-0.0022816510 0.0083282750 0 0
-0.0030848970 0.0116270410 0 0
-0.0040616070 0.0149661600 0 0
-0.0051277460 0.0180233540 0 0
-0.0062114570 0.0205031960 0 0
-0.0072553360 0.0221649860 0 0
-0.0082112700 0.0228451720 0 0
-0.0090352550 0.0224752460 0 0
-0.0096878360 0.0210922470 0 0
-0.0101389180 0.0188368420 0 0
-0.0103731550 0.0159375700 0 0
-0.0103948770 0.0126841500 0 0
-0.0102311920 0.0093949040 0 0
-0.0099285400 0.0063846580 0 0
-0.0095402810 0.0039379070 0 0
-0.0091103990 0.0022863790 0 0
-0.0086623720 0.0015870870 0 0
-0.0081979870 0.0019019270 0 0
-0.0077039650 0.0031866500 0 0
-0.0071626230 0.0052962180 0 0
-0.0065658560 0.0080055440 0 0
-0.0059307130 0.0110370720 0 0
-0.0053080500 0.0140869260 0 0
-0.0047748590 0.0168492650 0 0
-0.0044108100 0.0190431820 0 0
-0.0042699300 0.0204415060 0 0
-0.0043606160 0.0208951980 0 0
-0.0046418130 0.0203481960 0 0
-0.0050341820 0.0188416500 0 0
-0.0054392870 0.0165089600 0 0
-0.0057602590 0.0135634010 0 0
-0.0059189490 0.0102786620 0 0
-0.0058659960 0.0069628010 0 0
-0.0055839570 0.0039292080 0 0
-0.0050868650 0.0014686010 0 0
-0.0044180860 -0.0001773740 0 0
-0.0036449420 -0.0008407020 0 0
-0.0028483340 -0.0004459690 0 0
-0.0021096350 0.0009799620 0 0
-0.0014999110 0.0033080470 0 0
-0.0010730260 0.0063167680 0 0
-0.0008600270 0.0097120200 0 0
-0.0008649900 0.0131572220 0 0
-0.0010665760 0.0163108100 0 0
-0.0014268700 0.0188646870 0 0
-0.0019036540 0.0205767650 0 0
-0.0024603700 0.0212936160 0 0
-0.0030689210 0.0209617790 0 0
-0.0037038610 0.0196282200 0 0
-0.0043332130 0.0174322370 0 0
-0.0049157080 0.0145909760 0 0
-0.0054085450 0.0113792000 0 0
-0.0057797870 0.0081040440 0 0
-0.0060187510 0.0050772630 0 0
-0.0061423110 0.0025878200 0 0
-0.0061935150 0.0008755770 0 0
-0.0062281310 0.0001062890 0 0
-0.0062926840 0.0003511770 0 0
-0.0064055720 0.0015776020 0 0
-0.0065522670 0.0036555920 0 0
-0.0066977510 0.0063769360 0 0
-0.0068088720 0.0094775620 0 0
-0.0068724840 0.0126584910 0 0
-0.0068975280 0.0156081080 0 0
-0.0069007280 0.0180286020 0 0
-0.0068883490 0.0196665520 0 0
-0.0068490660 0.0203449990 0 0
-0.0067625880 0.0199901780 0 0
-0.0066162960 0.0186443130 0 0
-0.0064185110 0.0164606210 0 0
-0.0062014060 0.0136830330 0 0
-0.0060132770 0.0106156030 0 0
-0.0059045870 0.0075865790 0 0
-0.0059135330 0.0049119300 0 0
-0.0060557490 0.0028620680 0 0
-0.0063203130 0.0016348920 0 0
-0.0066722350 0.0013383130 0 0
-0.0070608880 0.0019833530 0 0
-0.0074324100 0.0034872470 0 0
-0.0077416640 0.0056863790 0 0
-0.0079590970 0.0083571450 0 0
-0.0080712840 0.0112399670 0 0
-0.0080780570 0.0140623700 0 0
-0.0079895200 0.0165598210 0 0
-0.0078233610 0.0184944970 0 0
-0.0076016620 0.0196727640 0 0
-0.0073483770 0.0199626040 0 0
-0.0070893360 0.0193108620 0 0
-0.0068544990 0.0177572050 0 0
-0.0066791540 0.0154393120 0 0
-0.0065997450 0.0125845580 0 0
-0.0066441160 0.0094870970 0 0
-0.0068221500 0.0064736140 0 0
-0.0071231430 0.0038652840 0 0
-0.0075205120 0.0019441000 0 0
-0.0079797650 0.0009263990 0 0
-0.0084656230 0.0009420090 0 0
-0.0089470580 0.0020188710 0 0
-0.0094010030 0.0040759030 0 0
-0.0098145130 0.0069274240 0 0
-0.0101844600 0.0103015060 0 0
-0.0105150760 0.0138708250 0 0
-0.0108142700 0.0172895720 0 0
-0.0110894310 0.0202293170 0 0
-0.0113435910 0.0224101600 0 0
-0.0115730230 0.0236260780 0 0
-0.0117675360 0.0237631600 0 0
-0.0119138230 0.0228090760 0 0
-0.0119997390 0.0208526510 0 0
-0.0120159920 0.0180726700 0 0
-0.0119543090 0.0147168510 0 0
-0.0118053240 0.0110755900 0 0
-0.0115601880 0.0074560150 0 0
-0.0112160110 0.0041587280 0 0
-0.0107812440 0.0014563930 0 0
-0.0102770740 -0.0004271950 0 0
-0.0097339610 -0.0013375460 0 0
-0.0091855030 -0.0012068230 0 0
-0.0086627560 -0.0000635945 0 0
-0.0081912440 0.0019678240 0 0
-0.0077908200 0.0046783890 0 0
-0.0074769460 0.0077951440 0 0
-0.0072617060 0.0110101840 0 0
-0.0071534200 0.0140131750 0 0
-0.0071550130 0.0165219730 0 0
-0.0072629460 0.0183083550 0 0
-0.0074683940 0.0192180680 0 0
-0.0077597650 0.0191840720 0 0
-0.0081242340 0.0182307240 0 0
-0.0085475690 0.0164679200 0 0
-0.0090130510 0.0140772880 0 0
-0.0094996060 0.0112937490 0 0
-0.0099792570 0.0083848860 0 0
-0.0104162050 0.0056289530 0 0
-0.0107699330 0.0032908540 0 0
-0.0110018110 0.0015969480 0 0
-0.0110833250 0.0007126470 0 0
-0.0110045150 0.0007263380 0 0
-0.0107801710 0.0016403370 0 0
-0.0104502750 0.0033690130 0 0
-0.0100733330 0.0057446230 0 0
-0.0097143250 0.0085312250 0 0
-0.0094307100 0.0114466630 0 0
-0.0092610050 0.0141910090 0 0
-0.0092196640 0.0164779540 0 0
-0.0092984590 0.0180654080 0 0
-0.0094711930 0.0187818660 0 0
-0.0096983190 0.0185458920 0 0
-0.0099310150 0.0173772650 0 0
-0.0101171320 0.0153969270 0 0
-0.0102098930 0.0128121400 0 0
-0.0101764910 0.0098892130 0 0
-0.0100032420 0.0069215800 0 0
-0.0096964330 0.0041987410 0 0
-0.0092795520 0.0019783590 0 0
-0.0087880680 0.0004635600 0 0
-0.0082632330 -0.0002130980 0 0
-0.0077460850 0.0000013509 0 0
-0.0072725880 0.0010783670 0 0
-0.0068711990 0.0029130350 0 0
-0.0065633280 0.0053351850 0 0
-0.0063650730 0.0081247660 0 0
-0.0062880230 0.0110306000 0 0
-0.0063384880 0.0137919210 0 0
-0.0065159600 0.0161599520 0 0
-0.0068117900 0.0179163300 0 0
-0.0072090120 0.0188890850 0 0
-0.0076835990 0.0189687460 0 0
-0.0082068120 0.0181234500 0 0
-0.0087483450 0.0164088180 0 0
-0.0092794170 0.0139695480 0 0
-0.0097743770 0.0110313190 0 0
-0.0102105370 0.0078814030 0 0
-0.0105679670 0.0048386150 0 0
-0.0108310640 0.0022174170 0 0
-0.0109918810 0.0002924650 0 0
-0.0110530610 -0.0007315140 0 0
-0.0110281050 -0.0007413150 0 0
-0.0109385340 0.0002727120 0 0
-0.0108094300 0.0022139190 0 0
-0.0106653260 0.0048866660 0 0
-0.0105277780 0.0080155260 0 0
-0.0104145460 0.0112763010 0 0
-0.0103390450 0.0143340620 0 0
-0.0103088130 0.0168804640 0 0
-0.0103233560 0.0186648440 0 0
-0.0103731530 0.0195176850 0 0
-0.0104412470 0.0193659480 0 0
-0.0105067160 0.0182384830 0 0
-0.0105481870 0.0162604150 0 0
-0.0105463260 0.0136381520 0 0
-0.0104852150 0.0106383270 0 0
-0.0103527840 0.0075627440 0 0
-0.0101409240 0.0047196510 0 0
-0.0098460120 0.0023925520 0 0
-0.0094699860 0.0008106070 0 0
-0.0090211830 0.0001255930 0 0
-0.0085131220 0.0003986830 0 0
-0.0079609670 0.0015978590 0 0
-0.0073796490 0.0036042010 0 0
-0.0067874240 0.0062239910 0 0
-0.0062122860 0.0092055200 0 0
-0.0056947610 0.0122617450 0 0
-0.0052838060 0.0150981450 0 0
-0.0050281430 0.0174418490 0 0
-0.0049675010 0.0190682920 0 0
-0.0051259390 0.0198235400 0 0
-0.0055065480 0.0196401080 0 0
-0.0060875360 0.0185428630 0 0
-0.0068221090 0.0166432500 0 0
-0.0076443290 0.0141241970 0 0
-0.0084800000 0.0112205550 0 0
-0.0092589230 0.0081987990 0 0
-0.0099247860 0.0053367200 0 0
-0.0104406020 0.0029022630 0 0
-0.0107892510 0.0011320410 0 0
-0.0109705970 0.0002107260 0 0
-0.0109978490 0.0002511680 0 0
-0.0108946120 0.0012764780 0 0
-0.0106916990 0.0032088960 0 0
-0.0104229080 0.0058709900 0 0
-0.0101212450 0.0090014620 0 0
-0.0098175010 0.0122839460 0 0
-0.0095406020 0.0153842270 0 0
-0.0093172540 0.0179889720 0 0
-0.0091693330 0.0198387410 0 0
-0.0091095040 0.0207520450 0 0
-0.0091367030 0.0206415650 0 0
-0.0092326690 0.0195236320 0 0
-0.0093608600 0.0175198410 0 0
-0.0094705380 0.0148480320 0 0
-0.0095079440 0.0118003680 0 0
-0.0094315430 0.0087097990 0 0
-0.0092243910 0.0059109140 0 0
-0.0088986280 0.0037025170 0 0
-0.0084921590 0.0023165880 0 0
-0.0080604840 0.0018954280 0 0
-0.0076665540 0.0024786660 0 0
-0.0073708540 0.0040018710 0 0
-0.0072236370 0.0063064200 0 0
-0.0072601240 0.0091582410 0 0
-0.0074974950 0.0122729630 0 0
-0.0079325530 0.0153451130 0 0
-0.0085413680 0.0180782040 0 0
-0.0092826660 0.0202129700 0 0
-0.0101040750 0.0215518700 0 0
-0.0109492460 0.0219773400 0 0
-0.0117652770 0.0214608100 0 0
-0.0125096820 0.0200617800 0 0
-0.0131543810 0.0179186800 0 0
-0.0136842000 0.0152337720 0 0
-0.0140912200 0.0122543990 0 0
-0.0143704010 0.0092526530 0 0
-0.0145193750 0.0065042320 0 0
-0.0145395780 0.0042660560 0 0
-0.0144358350 0.0027527400 0 0
-0.0142155570 0.0021138160 0 0
-0.0138895820 0.0024154380 0 0
-0.0134743210 0.0036302190 0 0
-0.0129932500 0.0056366410 0 0
-0.0124762530 0.0082284130 0 0
-0.0119572070 0.0111340540 0 0
-0.0114713130 0.0140456710 0 0
-0.0110525570 0.0166534260 0 0
-0.0107304580 0.0186803710 0 0
-0.0105258710 0.0199129110 0 0
-0.0104464220 0.0202240080 0 0
-0.0104827430 0.0195862060 0 0
-0.0106075510 0.0180720140 0 0
-0.0107791270 0.0158432680 0 0
-0.0109483330 0.0131332670 0 0
-0.0110670040 0.0102231010 0 0
-0.0110963890 0.0074134040 0 0
-0.0110145870 0.0049951980 0 0
-0.0108199180 0.0032226770 0 0
-0.0105274810 0.0022898920 0 0
-0.0101610100 0.0023147470 0 0
-0.0097457930 0.0033311350 0 0
-0.0093056020 0.0052855690 0 0
-0.0088620480 0.0080371090 0 0
-0.0084343510 0.0113644490 0 0
-0.0080399530 0.0149831330 0 0
-0.0076970710 0.0185725230 0 0
-0.0074279670 0.0218109500 0 0
-0.0072595740 0.0244139230 0 0
-0.0072191310 0.0261655290 0 0
-0.0073256660 0.0269364460 0 0
-0.0075808990 0.0266908700 0 0
-0.0079638020 0.0254864210 0 0
-0.0084316220 0.0234661070 0 0
-0.0089267220 0.0208413100 0 0
-0.0093861480 0.0178693380 0 0
-0.0097519090 0.0148293520 0 0
-0.0099808660 0.0119983340 0 0
-0.0100513550 0.0096289030 0 0
-0.0099630690 0.0079303560 0 0
-0.0097305290 0.0070517290 0 0
-0.0093752830 0.0070658590 0 0
-0.0089223590 0.0079580380 0 0
-0.0084015730 0.0096250290 0 0
-0.0078496930 0.0118858860 0 0
-0.0073094930 0.0145012920 0 0
-0.0068249190 0.0171976120 0 0
-0.0064340990 0.0196931170 0 0
-0.0061625550 0.0217243340 0 0
-0.0060186140 0.0230706690 0 0
-0.0059926400 0.0235755850 0 0
-0.0060607720 0.0231621710 0 0
-0.0061918060 0.0218412060 0 0
-0.0063542910 0.0197113250 0 0
-0.0065211810 0.0169515230 0 0
-0.0066704530 0.0138056830 0 0
-0.0067819170 0.0105587460 0 0
-0.0068331370 0.0075064380 0 0
-0.0067979170 0.0049236510 0 0
-0.0066490940 0.0030372460 0 0
-0.0063662070 0.0020061540 0 0
-0.0059461960 0.0019090430 0 0
-0.0054113680 0.0027389880 0 0
-0.0048096680 0.0044045520 0 0
-0.0042074910 0.0067374980 0 0
-0.0036784500 0.0095078210 0 0
-0.0032907860 0.0124449580 0 0
-0.0030950770 0.0152623760 0 0
-0.0031148420 0.0176839280 0 0
-0.0033430930 0.0194714390 0 0
-0.0037453850 0.0204509590 0 0
-0.0042672460 0.0205327340 0 0
-0.0048436440 0.0197205770 0 0
-0.0054086130 0.0181099800 0 0
-0.0059035200 0.0158778290 0 0
-0.0062834090 0.0132660170 0 0
-0.0065216990 0.0105586800 0 0
-0.0066127600 0.0080540170 0 0
-0.0065712830 0.0060341050 0 0
-0.0064284360 0.0047349640 0 0
-0.0062261740 0.0043187560 0 0
-0.0060115080 0.0048530700 0 0
-0.0058317030 0.0063034900 0 0
-0.0057297150 0.0085411710 0 0
-0.0057388120 0.0113611040 0 0
-0.0058776870 0.0145050600 0 0
-0.0061486950 0.0176860280 0 0
-0.0065395250 0.0206134460 0 0
-0.0070261880 0.0230185750 0 0
-0.0075760020 0.0246781450 0 0
-0.0081505580 0.0254331360 0 0
-0.0087086120 0.0252010370 0 0
-0.0092087580 0.0239837860 0 0
-0.0096123780 0.0218727290 0 0
-0.0098873240 0.0190467790 0 0
-0.0100117200 0.0157589850 0 0
-0.0099762700 0.0123116650 0 0
-0.0097842830 0.0090250330 0 0
-0.0094500460 0.0062044210 0 0
-0.0089966360 0.0041087620 0 0
-0.0084543550 0.0029224220 0 0
-0.0078601780 0.0027341950 0 0
-0.0072565680 0.0035284470 0 0
-0.0066872220 0.0051909390 0 0
-0.0061898970 0.0075260930 0 0
-0.0057897270 0.0102798870 0 0
-0.0054962610 0.0131662620 0 0
-0.0053050130 0.0158961340 0 0
-0.0052022170 0.0182050620 0 0
-0.0051701700 0.0198762520 0 0
-0.0051909560 0.0207591190 0 0
-0.0052485550 0.0207833480 0 0
-0.0053302930 0.0199665350 0 0
-0.0054271880 0.0184138210 0 0
-0.0055319860 0.0163079830 0 0
-0.0056353960 0.0138888140 0 0
-0.0057230640 0.0114242020 0 0
-0.0057759440 0.0091785730 0 0
-0.0057750320 0.0073833230 0 0
-0.0057083500 0.0062124860 0 0
-0.0055760700 0.0057673390 0 0
-0.0053913870 0.0060726640 0 0
-0.0051781120 0.0070829650 0 0
-0.0049669050 0.0086926230 0 0
-0.0047910670 0.0107449410 0 0
-0.0046819600 0.0130407830 0 0
-0.0046639330 0.0153512770 0 0
-0.0047492290 0.0174366230 0 0
-0.0049348500 0.0190686500 0 0
-0.0052036210 0.0200537680 0 0
-0.0055288030 0.0202544820 0 0
-0.0058785830 0.0196081330 0 0
-0.0062184530 0.0181400570 0 0
-0.0065131240 0.0159674100 0 0
-0.0067295560 0.0132912350 0 0
-0.0068401370 0.0103764720 0 0
-0.0068253740 0.0075218970 0 0
-0.0066770090 0.0050247200 0 0
-0.0064012060 0.0031459070 0 0
-0.0060197790 0.0020814630 0 0
-0.0055687380 0.0019437310 0 0
-0.0050952050 0.0027552340 0 0
-0.0046532090 0.0044536660 0 0
-0.0042978830 0.0069029700 0 0
-0.0040784840 0.0099064590 0 0
-0.0040323370 0.0132211350 0 0
-0.0041810700 0.0165732480 0 0
-0.0045283080 0.0196754660 0 0
-0.0050575970 0.0222476150 0 0
-0.0057308760 0.0240432350 0 0
-0.0064887840 0.0248804620 0 0
-0.0072546390 0.0246702690 0 0
-0.0079440930 0.0234329730 0 0
-0.0084799470 0.0212979170 0 0
-0.0088069370 0.0184878030 0 0
-0.0089004240 0.0152927070 0 0
-0.0087672890 0.0120379000 0 0
-0.0084414430 0.0090486980 0 0
-0.0079764230 0.0066167760 0 0
-0.0074358250 0.0049724050 0 0
-0.0068824730 0.0042643300 0 0
-0.0063686560 0.0045473430 0 0
-0.0059298220 0.0057784020 0 0
-0.0055827010 0.0078224080 0 0
-0.0053278360 0.0104670600 0 0
-0.0051553290 0.0134443370 0 0
-0.0050512790 0.0164561080 0 0
-0.0050019380 0.0192020930 0 0
-0.0049936550 0.0214086490 0 0
-0.0050095440 0.0228559790 0 0
-0.0050272380 0.0233999980 0 0
-0.0050219930 0.0229858420 0 0
-0.0049744400 0.0216527340 0 0
-0.0048775140 0.0195307810 0 0
-0.0047378740 0.0168293130 0 0
-0.0045715770 0.0138163780 0 0
-0.0043972850 0.0107909600 0 0
-0.0042309330 0.0080520350 0 0
-0.0040838680 0.0058690560 0 0
-0.0039633920 0.0044561730 0 0
-0.0038731410 0.0039514740 0 0
-0.0038121050 0.0044038500 0 0
-0.0037732950 0.0057693600 0 0
-0.0037436420 0.0079153070 0 0
-0.0037061900 0.0106297950 0 0
-0.0036454220 0.0136389600 0 0
-0.0035547600 0.0166349760 0 0
-0.0034420830 0.0193118940 0 0
-0.0033295610 0.0214009510 0 0
-0.0032486950 0.0226978170 0 0
-0.0032336400 0.0230791970 0 0
-0.0033133860 0.0225098550 0 0
-0.0035015910 0.0210415210 0 0
-0.0037859750 0.0188051890 0 0
-0.0041238990 0.0159987260 0 0
-0.0044501350 0.0128709590 0 0
-0.0046959270 0.0097019440 0 0
-0.0048113630 0.0067790030 0 0
-0.0047808540 0.0043700700 0 0
-0.0046251100 0.0026973860 0 0
-0.0043900130 0.0019142930 0 0
-0.0041289170 0.0020878230 0 0
-0.0038872490 0.0031906320 0 0
-0.0036952190 0.0051044740 0 0
-0.0035685510 0.0076336560 0 0
-0.0035138180 0.0105247120 0 0
-0.0035344960 0.0134899150 0 0
-0.0036342020 0.0162340870 0 0
-0.0038152370 0.0184828510 0 0
-0.0040737260 0.0200088990 0 0
-0.0043949680 0.0206544790 0 0
-0.0047526030 0.0203496550 0 0
-0.0051128410 0.0191241110 0 0
-0.0054417430 0.0171086850 0 0
-0.0057118320 0.0145237560 0 0
-0.0059052340 0.0116540110 0 0
-0.0060129400 0.0088130770 0 0
-0.0060322710 0.0063059570 0 0
-0.0059653810 0.0043967100 0 0
-0.0058199000 0.0032830210 0 0
-0.0056105280 0.0030768240 0 0
-0.0053599570 0.0037933240 0 0
-0.0050982200 0.0053516820 0 0
-0.0048597370 0.0075872520 0 0
-0.0046778630 0.0102732290 0 0
-0.0045784900 0.0131486540 0 0
-0.0045752470 0.0159472790 0 0
-0.0046679350 0.0184212800 0 0
-0.0048443150 0.0203583260 0 0
-0.0050840150 0.0215944780 0 0
-0.0053621490 0.0220241940 0 0
-0.0056513020 0.0216067300 0 0
-0.0059233200 0.0203691150 0 0
-0.0061524470 0.0184064980 0 0
-0.0063185590 0.0158787590 0 0
-0.0064085140 0.0130010070 0 0
-0.0064160300 0.0100274790 0 0
-0.0063415550 0.0072305570 0 0
-0.0061918150 0.0048769680 0 0
-0.0059775640 0.0032029280 0 0
-0.0057094380 0.0023897460 0 0
-0.0053937260 0.0025414170 0 0
-0.0050303870 0.0036668920 0 0
-0.0046150280 0.0056711920 0 0
-0.0041445460 0.0083590060 0 0
-0.0036233090 0.0114522550 0 0
-0.0030665760 0.0146211110 0 0
-0.0025004580 0.0175239360 0 0
-0.0019596860 0.0198472820 0 0
-0.0014843660 0.0213385960 0 0
-0.0011152220 0.0218298170 0 0
-0.0008857110 0.0212530500 0 0
-0.0008121930 0.0196485840 0 0
-0.0008874260 0.0171637500 0 0
-0.0010825040 0.0140408100 0 0
-0.0013570680 0.0105929480 0 0
-0.0016720560 0.0071691970 0 0
-0.0019982630 0.0041124250 0 0
-0.0023181390 0.0017183740 0 0
-0.0026238280 0.0002046350 0 0
-0.0029157670 -0.0003056360 0 0
-0.0032024730 0.0002137820 0 0
-0.0034992270 0.0016988850 0 0
-0.0038245880 0.0040058410 0 0
-0.0041957700 0.0069215290 0 0
-0.0046247030 0.0101757750 0 0
-0.0051162970 0.0134608220 0 0
-0.0056687440 0.0164606750 0 0
-0.0062739290 0.0188856700 0 0
-0.0069163700 0.0205042610 0 0
-0.0075710780 0.0211664230 0 0
-0.0082020880 0.0208159960 0 0
-0.0087637720 0.0194916410 0 0
-0.0092062120 0.0173194510 0 0
-0.0094834330 0.0145014920 0 0
-0.0095619020 0.0113010210 0 0
-0.0094277870 0.0080219900 0 0
-0.0090911670 0.0049820460 0 0
-0.0085838290 0.0024814260 0 0
-0.0079508980 0.0007718880 0 0
-0.0072424000 0.0000302541 0 0
-0.0065094810 0.0003402360 0 0
-0.0058027270 0.0016837870 0 0
-0.0051671550 0.0039401200 0 0
-0.0046335400 0.0068911470 0 0
-0.0042122060 0.0102379420 0 0
-0.0038947390 0.0136338090 0 0
-0.0036621300 0.0167293480 0 0
-0.0034934950 0.0192159950 0 0
-0.0033711930 0.0208571900 0 0
-0.0032824580 0.0215052370 0 0
-0.0032200570 0.0211081510 0 0
-0.0031825950 0.0197107420 0 0
-0.0031727380 0.0174501370 0 0
-0.0031931290 0.0145437660 0 0
-0.0032426020 0.0112692250 0 0
-0.0033151770 0.0079374910 0 0
-0.0034016860 0.0048624800 0 0
-0.0034920770 0.0023307580 0 0
-0.0035771570 0.0005745270 0 0
-0.0036502490 -0.0002496920 0 0
-0.0037094370 -0.0000741868 0 0
-0.0037597530 0.0010759530 0 0
-0.0038135530 0.0030869760 0 0
-0.0038875640 0.0057677410 0 0
-0.0039969290 0.0088670140 0 0
-0.0041499400 0.0120957040 0 0
-0.0043472290 0.0151531180 0 0
-0.0045833620 0.0177538250 0 0
-0.0048456310 0.0196511210 0 0
-0.0051102760 0.0206578340 0 0
-0.0053425440 0.0206676970 0 0
-0.0055049440 0.0196751340 0 0
-0.0055695650 0.0177838430 0 0
-0.0055250200 0.0151959690 0 0
-0.0053738680 0.0121841870 0 0
-0.0051261170 0.0090564810 0 0
-0.0047961190 0.0061219920 0 0
-0.0044038090 0.0036620580 0 0
-0.0039761800 0.0019076770 0 0
-0.0035454050 0.0010219950 0 0
-0.0031438360 0.0010862910 0 0
-0.0027990460 0.0020914060 0 0
-0.0025318580 0.0039385230 0 0
-0.0023577920 0.0064494980 0 0
-0.0022897220 0.0093818390 0 0
-0.0023381270 0.0124450920 0 0
-0.0025073230 0.0153219620 0 0
-0.0027902210 0.0176982170 0 0
-0.0031648840 0.0192986200 0 0
-0.0035925410 0.0199204860 0 0
-0.0040156470 0.0194577500 0 0
-0.0043587490 0.0179138790 0 0
-0.0045379460 0.0154048680 0 0
-0.0044805680 0.0121521520 0 0
-0.0041477930 0.0084635890 0 0
-0.0035485560 0.0047015860 0 0
-0.0027382550 0.0012409910 0 0
-0.0018046740 -0.0015761010 0 0
-0.0008488660 -0.0034790990 0 0
0.0000313640 -0.0042943210 0 0
0.0007522970 -0.0039571660 0 0
0.0012521150 -0.0025158560 0 0
0.0014980870 -0.0001275230 0 0
0.0014900960 0.0029578410 0 0
0.0012565330 0.0064264870 0 0
0.0008440540 0.0099365960 0 0
0.0003060750 0.0131522560 0 0
-0.0003061200 0.0157715270 0 0
-0.0009477210 0.0175498860 0 0
-0.0015804920 0.0183217910 0 0
-0.0021707730 0.0180189120 0 0
-0.0026871110 0.0166795850 0 0
-0.0030986280 0.0144456180 0 0
-0.0033759070 0.0115473360 0 0
-0.0034957950 0.0082799170 0 0
-0.0034485700 0.0049737750 0 0
-0.0032430370 0.0019618970 0 0
-0.0029058240 -0.0004523810 0 0
-0.0024751320 -0.0020246510 0 0
-0.0019923490 -0.0025943150 0 0
-0.0014955080 -0.0021025520 0 0
-0.0010175900 -0.0005991020 0 0
-0.0005897800 0.0017640130 0 0
-0.0002461430 0.0047490560 0 0
-0.0000252476 0.0080563010 0 0
0.0000339750 0.0113534900 0 0
-0.0000982949 0.0143087380 0 0
-0.0004318830 0.0166236310 0 0
-0.0009494780 0.0180638020 0 0
-0.0016062550 0.0184834300 0 0
-0.0023359230 0.0178391620 0 0
-0.0030609320 0.0161914760 0 0
-0.0037048170 0.0136963380 0 0
-0.0042050950 0.0105915130 0 0
-0.0045237040 0.0071775250 0 0
-0.0046506000 0.0037895700 0 0
-0.0045984310 0.0007607420 0 0
-0.0043921800 -0.0016158090 0 0
-0.0040608430 -0.0031179350 0 0
-0.0036349670 -0.0036156270 0 0
-0.0031488560 -0.0030807870 0 0
-0.0026440020 -0.0015841970 0 0
-0.0021699400 0.0007184420 0 0
-0.0017792560 0.0036055210 0 0
-0.0015171640 0.0068084870 0 0
-0.0014110780 0.0100317360 0 0
-0.0014654800 0.0129776820 0 0
-0.0016621730 0.0153762730 0 0
-0.0019628580 0.0170124390 0 0
-0.0023133880 0.0177456060 0 0
-0.0026517320 0.0175199400 0 0
-0.0029202750 0.0163682700 0 0
-0.0030792440 0.0144121640 0 0
-0.0031154050 0.0118556860 0 0
-0.0030412090 0.0089676990 0 0
-0.0028846470 0.0060516660 0 0
-0.0026753740 0.0034092280 0 0
-0.0024347020 0.0013071950 0 0
-0.0021749990 -0.0000467463 0 0
-0.0019076410 -0.0005209210 0 0
-0.0016516620 -0.0000712627 0 0
-0.0014350670 0.0012535140 0 0
-0.0012880600 0.0033155650 0 0
-0.0012340840 0.0059014030 0 0
-0.0012849220 0.0087449330 0 0
-0.0014414390 0.0115583180 0 0
-0.0016969770 0.0140649460 0 0
-0.0020401760 0.0160261590 0 0
-0.0024565840 0.0172586800 0 0
-0.0029289690 0.0176472480 0 0
-0.0034354040 0.0171558990 0 0
-0.0039460390 0.0158348320 0 0
-0.0044224610 0.0138184850 0 0
-0.0048222560 0.0113141330 0 0
-0.0051065560 0.0085823810 0 0
-0.0052460960 0.0059109890 0 0
-0.0052241030 0.0035843930 0 0
-0.0050372600 0.0018530840 0 0
-0.0046960500 0.0009075640 0 0
-0.0042244480 0.0008595470 0 0
-0.0036584320 0.0017317710 0 0
-0.0030431880 0.0034580910 0 0
-0.0024294090 0.0058934030 0 0
-0.0018692070 0.0088290340 0 0
-0.0014127000 0.0120097730 0 0
-0.0011057170 0.0151536390 0 0
-0.0009870580 0.0179770990 0 0
-0.0010839110 0.0202239300 0 0
-0.0014069990 0.0216917120 0 0
-0.0019476160 0.0222510000 0 0
-0.0026766060 0.0218556810 0 0
-0.0035451070 0.0205458640 0 0
-0.0044880610 0.0184456460 0 0
-0.0054309510 0.0157559460 0 0
-0.0062990580 0.0127391250 0 0
-0.0070281710 0.0096923900 0 0
-0.0075740230 0.0069129090 0 0
-0.0079158910 0.0046635790 0 0
-0.0080523180 0.0031469120 0 0
-0.0079930480 0.0024877620 0 0
-0.0077542220 0.0027228730 0 0
-0.0073597130 0.0037983010 0 0
-0.0068445360 0.0055771070 0 0
-0.0062539520 0.0078562250 0 0
-0.0056362770 0.0103889150 0 0
-0.0050336170 0.0129100860 0 0
-0.0044762200 0.0151625390 0 0
-0.0039826090 0.0169214690 0 0
-0.0035639790 0.0180143110 0 0
-0.0032292770 0.0183338830 0 0
-0.0029866060 0.0178443150 0 0
-0.0028389870 0.0165815350 0 0
-0.0027779860 0.0146507740 0 0
-0.0027818760 0.0122207420 0 0
-0.0028215210 0.0095117140 0 0
-0.0028705230 0.0067763760 0 0
-0.0029134820 0.0042757310 0 0
-0.0029488150 0.0022543530 0 0
-0.0029860790 0.0009175810 0 0
-0.0030398380 0.0004109980 0 0
-0.0031230330 0.0008034640 0 0
-0.0032423590 0.0020762190 0 0
-0.0033963710 0.0041200910 0 0
-0.0035753780 0.0067431600 0 0
-0.0037625570 0.0096900580 0 0
-0.0039371480 0.0126697160 0 0
-0.0040800290 0.0153861390 0 0
-0.0041788590 0.0175682610 0 0
-0.0042292170 0.0189965680 0 0
-0.0042323250 0.0195251110 0 0
-0.0041933460 0.0190972130 0 0
-0.0041219480 0.0177516950 0 0
-0.0040328840 0.0156180010 0 0
-0.0039442120 0.0129021950 0 0
-0.0038735190 0.0098668010 0 0
-0.0038344460 0.0068064350 0 0
-0.0038348870 0.0040201270 0 0
-0.0038763710 0.0017815870 0 0
-0.0039544630 0.0003109660 0 0
-0.0040609030 -0.0002471790 0 0
-0.0041869950 0.0001628420 0 0
-0.0043263560 0.0015033860 0 0
-0.0044752200 0.0036470480 0 0
-0.0046302960 0.0063878540 0 0
-0.0047871510 0.0094598960 0 0
-0.0049419310 0.0125616510 0 0
-0.0050943120 0.0153829700 0 0
-0.0052470490 0.0176328540 0 0
-0.0054016570 0.0190678770 0 0
-0.0055542960 0.0195201530 0 0
-0.0056955310 0.0189205310 0 0
-0.0058136310 0.0173111010 0 0
-0.0058977530 0.0148435170 0 0
-0.0059383310 0.0117634430 0 0
-0.0059260580 0.0083828690 0 0
-0.0058522350 0.0050435490 0 0
-0.0057108400 0.0020782660 0 0
-0.0055001410 -0.0002229430 0 0
-0.0052216710 -0.0016389670 0 0
-0.0048772530 -0.0020360210 0 0
-0.0044675130 -0.0013771490 0 0
-0.0039935560 0.0002767300 0 0
-0.0034598700 0.0027728520 0 0
-0.0028772840 0.0058806810 0 0
-0.0022664760 0.0093141120 0 0
-0.0016595370 0.0127587620 0 0
-0.0010953620 0.0159007690 0 0
-0.0006104600 0.0184539260 0 0
-0.0002319010 0.0201841060 0 0
0.0000242827 0.0209323180 0 0
0.0001521860 0.0206341500 0 0
0.0001557480 0.0193294900 0 0
0.0000485075 0.0171597450 0 0
-0.0001484630 0.0143531540 0 0
-0.0004106960 0.0111990110 0 0
-0.0007149270 0.0080141920 0 0
-0.0010407310 0.0051082500 0 0
-0.0013672200 0.0027522080 0 0
-0.0016692280 0.0011541520 0 0
-0.0019207140 0.0004437930 0 0
-0.0021072310 0.0006659020 0 0
-0.0022398390 0.0017801980 0 0
-0.0023591020 0.0036658460 0 0
-0.0025235740 0.0061311110 0 0
-0.0027880730 0.0089294500 0 0
-0.0031840860 0.0117818300 0 0
-0.0037115560 0.0144032550 0 0
-0.0043423630 0.0165315750 0 0
-0.0050296110 0.0179563150 0 0
-0.0057171870 0.0185419580 0 0
-0.0063481130 0.0182391170 0 0
-0.0068723490 0.0170819230 0 0
-0.0072528610 0.0151759580 0 0
-0.0074674950 0.0126832150 0 0
-0.0075067320 0.0098089790 0 0
-0.0073705680 0.0067908370 0 0
-0.0070675890 0.0038856510 0 0
-0.0066164920 0.0013513330 0 0
-0.0060478610 -0.0005756270 0 0
-0.0054040400 -0.0017047540 0 0
-0.0047365300 -0.0019166690 0 0
-0.0041011790 -0.0011840120 0 0
-0.0035514180 0.0004195410 0 0
-0.0031309080 0.0027262110 0 0
-0.0028681140 0.0054941230 0 0
-0.0027739060 0.0084349580 0 0
-0.0028414020 0.0112451270 0 0
-0.0030478460 0.0136371270 0 0
-0.0033586350 0.0153679980 0 0
-0.0037320910 0.0162629660 0 0
-0.0041239010 0.0162326790 0 0
-0.0044924870 0.0152817880 0 0
-0.0048055950 0.0135077210 0 0
-0.0050440390 0.0110905490 0 0
-0.0051978910 0.0082758240 0 0
-0.0052573110 0.0053525430 0 0
-0.0052075760 0.0026278730 0 0
-0.0050352240 0.0003994480 0 0
-0.0047406440 -0.0010738560 0 0
-0.0043444790 -0.0016008840 0 0
-0.0038797750 -0.0010832270 0 0
-0.0033750360 0.0004687040 0 0
-0.0028427690 0.0029320340 0 0
-0.0022841430 0.0060799810 0 0
-0.0017063210 0.0096012480 0 0
-0.0011392610 0.0131309430 0 0
-0.0006407500 0.0162923410 0 0
-0.0002860950 0.0187424480 0 0
-0.0001464640 0.0202121940 0 0
-0.0002661220 0.0205360230 0 0
-0.0006501700 0.0196693990 0 0
-0.0012662340 0.0176937770 0 0
-0.0020531930 0.0148089050 0 0
-0.0029292210 0.0113118120 0 0
-0.0037980810 0.0075624080 0 0
-0.0045561070 0.0039398000 0 0
-0.0051016040 0.0007980910 0 0
-0.0053481890 -0.0015701020 0 0
-0.0052411870 -0.0029589310 0 0
-0.0047703830 -0.0032636790 0 0
-0.0039714300 -0.0024852230 0 0
-0.0029161970 -0.0007248820 0 0
-0.0017000960 0.0018295770 0 0
-0.0004318080 0.0049242400 0 0
0.0007774350 0.0082640330 0 0
0.0018287680 0.0115425480 0 0
0.0026502850 0.0144729230 0 0
0.0032011840 0.0168126380 0 0
0.0034623270 0.0183791100 0 0
0.0034232670 0.0190576450 0 0
0.0030799670 0.0188047310 0 0
0.0024469740 0.0176499530 0 0
0.0015733780 0.0156972680 0 0
0.0005477270 0.0131228120 0 0
-0.0005145560 0.0101653180 0 0
-0.0014971590 0.0071068230 0 0
-0.0023125830 0.0042453680 0 0
-0.0029226480 0.0018639780 0 0
-0.0033377140 0.0001990730 0 0
-0.0035949450 -0.0005871340 0 0
-0.0037314110 -0.0004224040 0 0
-0.0037681210 0.0006748030 0 0
-0.0037086980 0.0026036530 0 0
-0.0035481000 0.0051918770 0 0
-0.0032847300 0.0082093240 0 0
-0.0029281500 0.0113858220 0 0
-0.0024975120 0.0144327140 0 0
-0.0020134990 0.0170670940 0 0
-0.0014917570 0.0190380520 0 0
-0.0009451130 0.0201532110 0 0
-0.0003950960 0.0203021010 0 0
0.0001175540 0.0194714230 0 0
0.0005378800 0.0177483310 0 0
0.0008209780 0.0153115310 0 0
0.0009605280 0.0124133650 0 0
0.0009976110 0.0093575070 0 0
0.0009985960 0.0064754750 0 0
0.0010137370 0.0041003630 0 0
0.0010408210 0.0025328580 0 0
0.0010181550 0.0019998360 0 0
0.0008579980 0.0026176150 0 0
0.0005012730 0.0043754380 0 0
-0.0000472729 0.0071413430 0 0
-0.0007261190 0.0106787200 0 0
-0.0014513740 0.0146663310 0 0
-0.0021491720 0.0187266940 0 0
-0.0027702770 0.0224666240 0 0
-0.0032897390 0.0255229160 0 0
-0.0037010820 0.0276031590 0 0
-0.0040110480 0.0285171360 0 0
-0.0042376590 0.0281960600 0 0
-0.0044112540 0.0266954900 0 0
-0.0045724830 0.0241820880 0 0
-0.0047612830 0.0209107650 0 0
-0.0049999720 0.0171982850 0 0
-0.0052801870 0.0133947560 0 0
-0.0055608070 0.0098526700 0 0
-0.0057771430 0.0068938420 0 0
-0.0058553340 0.0047770410 0 0
-0.0057246830 0.0036734470 0 0
-0.0053275460 0.0036559450 0 0
-0.0046325200 0.0046986320 0 0
-0.0036510020 0.0066785790 0 0
-0.0024469270 0.0093807150 0 0
-0.0011317680 0.0125146470 0 0
0.0001505150 0.0157472730 0 0
0.0012412180 0.0187438320 0 0
0.0019897540 0.0212051480 0 0
0.0022856530 0.0228942630 0 0
0.0020901290 0.0236537890 0 0
0.0014487580 0.0234180290 0 0
0.0004781620 0.0222205950 0 0
-0.0006610140 0.0201933660 0 0
-0.0017896020 0.0175518970 0 0
-0.0027343420 0.0145684370 0 0
-0.0033597420 0.0115405100 0 0
-0.0036000090 0.0087615210 0 0
-0.0034685250 0.0064938850 0 0
-0.0030370970 0.0049449850 0 0
-0.0024043950 0.0042498020 0 0
-0.0016742460 0.0044626000 0 0
-0.0009423580 0.0055559430 0 0
-0.0002793090 0.0074236060 0 0
0.0002881150 0.0098852190 0 0
0.0007791460 0.0126949030 0 0
0.0012358620 0.0155596050 0 0
0.0016892560 0.0181695240 0 0
0.0021344350 0.0202362800 0 0
0.0025228710 0.0215309290 0 0
0.0027741190 0.0219134460 0 0
0.0028055730 0.0213466680 0 0
0.0025649630 0.0198927120 0 0
0.0020457500 0.0176969780 0 0
0.0012836980 0.0149674710 0 0
0.0003493710 0.0119536590 0 0
-0.0006557400 0.0089254590 0 0
-0.0016095260 0.0061532210 0 0
-0.0023973750 0.0038891580 0 0
-0.0029484130 0.0023465790 0 0
-0.0032533390 0.0016742230 0 0
-0.0033494170 0.0019324700 0 0
-0.0032861100 0.0030828540 0 0
-0.0030976680 0.0049949290 0 0
-0.0027974790 0.0074656760 0 0
-0.0023902650 0.0102444660 0 0
-0.0018895050 0.0130589450 0 0
-0.0013283680 0.0156400950 0 0
-0.0007571230 0.0177457270 0 0
-0.0002295600 0.0191808270 0 0
0.0002102270 0.0198136600 0 0
0.0005313400 0.0195871630 0 0
0.0007113800 0.0185238950 0 0
0.0007345680 0.0167237550 0 0
0.0006005780 0.0143564570 0 0
0.0003370120 0.0116492780 0 0
-0.0000001749 0.0088679220 0 0
-0.0003446770 0.0062904020 0 0
-0.0006451450 0.0041784700 0 0
-0.0008799750 0.0027528790 0 0
-0.0010558830 0.0021750950 0 0
-0.0011996890 0.0025317630 0 0
-0.0013502240 0.0038188460 0 0
-0.0015468520 0.0059309470 0 0
-0.0018136100 0.0086660360 0 0
-0.0021471850 0.0117491670 0 0
-0.0025175110 0.0148677610 0 0
-0.0028823430 0.0177069880 0 0
-0.0032083660 0.0199800070 0 0
-0.0034874450 0.0214546300 0 0
-0.0037402320 0.0219772440 0 0
-0.0040055890 0.0214912060 0 0
-0.0043195990 0.0200460920 0 0
-0.0046942010 0.0177958020 0 0
-0.0051084220 0.0149845770 0 0
-0.0055171860 0.0119200710 0 0
-0.0058698840 0.0089354310 0 0
-0.0061273610 0.0063485480 0 0
-0.0062712290 0.0044282950 0 0
-0.0063038480 0.0033714740 0 0
-0.0062407550 0.0032890610 0 0
-0.0061025980 0.0042006570 0 0
-0.0059135230 0.0060351650 0 0
-0.0057036490 0.0086339330 0 0
-0.0055062840 0.0117580860 0 0
-0.0053466080 0.0151081060 0 0
-0.0052301730 0.0183575830 0 0
-0.0051420980 0.0211916810 0 0
-0.0050590000 0.0233397020 0 0
-0.0049659430 0.0245985560 0 0
-0.0048678850 0.0248494910 0 0
-0.0047891720 0.0240710200 0 0
-0.0047629710 0.0223466330 0 0
-0.0048192320 0.0198601380 0 0
-0.0049782040 0.0168733060 0 0
-0.0052498750 0.0136904430 0 0
-0.0056363220 0.0106214930 0 0
-0.0061340610 0.0079527200 0 0
-0.0067346800 0.0059268440 0 0
-0.0074252200 0.0047289080 0 0
-0.0081918840 0.0044725730 0 0
-0.0090268690 0.0051856000 0 0
-0.0099322960 0.0068000730 0 0
-0.0109149790 0.0091543100 0 0
-0.0119731600 0.0120080320 0 0
-0.0130843170 0.0150680840 0 0
-0.0142029340 0.0180206630 0 0
-0.0152691450 0.0205642610 0 0
-0.0162216140 0.0224373940 0 0
-0.0170063670 0.0234393530 0 0
-0.0175792160 0.0234467110 0 0
-0.0179071740 0.0224272130 0 0
-0.0179738760 0.0204473470 0 0
-0.0177860310 0.0176688460 0 0
-0.0173743950 0.0143335660 0 0
-0.0167877720 0.0107389230 0 0
-0.0160838210 0.0072068030 0 0
-0.0153202060 0.0040500940 0 0
-0.0145474640 0.0015413670 0 0
-0.0138042950 -0.0001126970 0 0
-0.0131160350 -0.0007887590 0 0
-0.0124966440 -0.0004549830 0 0
-0.0119530760 0.0008293650 0 0
-0.0114894400 0.0029208510 0 0
-0.0111090600 0.0056047520 0 0
-0.0108150180 0.0086144400 0 0
-0.0106107070 0.0116561010 0 0
-0.0105009070 0.0144364480 0 0
-0.0104923530 0.0166915970 0 0
-0.0105912610 0.0182144810 0 0
-0.0107965380 0.0188763690 0 0
-0.0110919660 0.0186380100 0 0
-0.0114424630 0.0175492110 0 0
-0.0117963060 0.0157400860 0 0
-0.0120918750 0.0134075790 0 0
-0.0122677410 0.0107976930 0 0
-0.0122752730 0.0081831750 0 0
-0.0120896830 0.0058384590 0 0
-0.0117123890 0.0040138810 0 0
-0.0111624570 0.0029106710 0 0
-0.0104651550 0.0026595590 0 0
-0.0096483170 0.0033063300 0 0
-0.0087481780 0.0048064540 0 0
-0.0078164810 0.0070298000 0 0
-0.0069201560 0.0097745360 0 0
-0.0061314050 0.0127873210 0 0
-0.0055120750 0.0157869440 0 0
-0.0050988880 0.0184897860 0 0
-0.0048958400 0.0206356610 0 0
-0.0048772990 0.0220112130 0 0
-0.0050000150 0.0224680930 0 0
-0.0052173810 0.0219359370 0 0
-0.0054895740 0.0204316420 0 0
-0.0057875260 0.0180642130 0 0
-0.0060920290 0.0150317000 0 0
-0.0063901320 0.0116066330 0 0
-0.0066711780 0.0081095430 0 0
-0.0069243560 0.0048745970 0 0
-0.0071384410 0.0022133890 0 0
-0.0073032200 0.0003809330 0 0
-0.0074120210 -0.0004537650 0 0
-0.0074645620 -0.0002274780 0 0
-0.0074692020 0.0010128680 0 0
-0.0074433310 0.0031208850 0 0
-0.0074107520 0.0058709150 0 0
-0.0073969430 0.0089831510 0 0
-0.0074253150 0.0121516920 0 0
-0.0075157540 0.0150741170 0 0
-0.0076831370 0.0174808100 0 0
-0.0079336980 0.0191612250 0 0
-0.0082608020 0.0199835620 0 0
-0.0086436330 0.0199054150 0 0
-0.0090500330 0.0189754170 0 0
-0.0094419160 0.0173274390 0 0
-0.0097812090 0.0151680790 0 0
-0.0100346860 0.0127572350 0 0
-0.0101767740 0.0103825780 0 0
-0.0101910380 0.0083297770 0 0
-0.0100716110 0.0068505750 0 0
-0.0098249600 0.0061330680 0 0
-0.0094718800 0.0062802180 0 0
-0.0090491040 0.0073003660 0 0
-0.0086086610 0.0091100210 0 0
-0.0082122560 0.0115475330 0 0
-0.0079200250 0.0143942270 0 0
-0.0077774050 0.0173978860 0 0
-0.0078063760 0.0202952290 0 0
-0.0080045320 0.0228325410 0 0
-0.0083502370 0.0247836640 0 0
-0.0088095490 0.0259658710 0 0
-0.0093416370 0.0262553190 0 0
-0.0099017830 0.0256009270 0 0
-0.0104430090 0.0240330770 0 0
-0.0109182970 0.0216653980 0 0
-0.0112846540 0.0186889340 0 0
-0.0115082850 0.0153571490 0 0
-0.0115690190 0.0119618200 0 0
-0.0114629790 0.0088035770 0 0
-0.0112036220 0.0061622560 0 0
-0.0108209520 0.0042697330 0 0
-0.0103583810 0.0032855980 0 0
-0.0098673840 0.0032779720 0 0
-0.0094009370 0.0042141640 0 0
-0.0090070280 0.0059633320 0 0
-0.0087230620 0.0083099600 0 0
-0.0085716580 0.0109774890 0 0
-0.0085589240 0.0136603880 0 0
-0.0086764300 0.0160587320 0 0
-0.0089063360 0.0179084610 0 0
-0.0092272060 0.0190041870 0 0
-0.0096179110 0.0192148330 0 0
-0.0100587420 0.0184930920 0 0
-0.0105308130 0.0168791580 0 0
-0.0110151760 0.0144988060 0 0
-0.0114926600 0.0115548830 0 0
-0.0119449760 0.0083106820 0 0
-0.0123565880 0.0050652080 0 0
-0.0127161850 0.0021230240 0 0
-0.0130176640 -0.0002372830 0 0
-0.0132614150 -0.0017922730 0 0
-0.0134554730 -0.0023973220 0 0
-0.0136147460 -0.0020014030 0 0
-0.0137571620 -0.0006504830 0 0
-0.0138980550 0.0015195120 0 0
-0.0140458470 0.0042968170 0 0
-0.0142011600 0.0074134420 0 0
-0.0143592000 0.0105712220 0 0
-0.0145137280 0.0134736250 0 0
-0.0146601720 0.0158577630 0 0
-0.0147955350 0.0175191350 0 0
-0.0149146320 0.0183262950 0 0
-0.0150054020 0.0182280280 0 0
-0.0150478250 0.0172554490 0 0
-0.0150192560 0.0155189920 0 0
-0.0149033400 0.0131996100 0 0
-0.0146957080 0.0105337870 0 0
-0.0144025640 0.0077928690 0 0
-0.0140343460 0.0052587870 0 0
-0.0135994230 0.0031982440 0 0
-0.0131012380 0.0018361430 0 0
-0.0125394290 0.0013299080 0 0
-0.0119136630 0.0017497530 0 0
-0.0112288550 0.0030709240 0 0
-0.0105001170 0.0051795300 0 0
-0.0097553480 0.0078883070 0 0
-0.0090340040 0.0109573570 0 0
-0.0083819930 0.0141165200 0 0
-0.0078437630 0.0170881080 0 0
-0.0074530500 0.0196104810 0 0
-0.0072243340 0.0214624180 0 0
-0.0071481570 0.0224857560 0 0
-0.0071934120 0.0226028400 0 0
-0.0073168630 0.0218261320 0 0
-0.0074760470 0.0202580750 0 0
-0.0076394100 0.0180801380 0 0
-0.0077892610 0.0155320400 0 0
-0.0079183080 0.0128846870 0 0
-0.0080247330 0.0104114820 0 0
-0.0081099120 0.0083621200 0 0
-0.0081784300 0.0069410160 0 0
-0.0082376800 0.0062902840 0 0
-0.0082959110 0.0064771340 0 0
-0.0083596770 0.0074875160 0 0
-0.0084319980 0.0092280190 0 0
-0.0085120030 0.0115354370 0 0
-0.0085963840 0.0141914160 0 0
-0.0086820890 0.0169400750 0 0
-0.0087684390 0.0195084090 0 0
-0.0088569990 0.0216310690 0 0
-0.0089495540 0.0230788930 0 0
-0.0090463320 0.0236858670 0 0
-0.0091458970 0.0233688460 0 0
-0.0092462770 0.0221379110 0 0
-0.0093464330 0.0200972150 0 0
-0.0094472280 0.0174362020 0 0
-0.0095505510 0.0144108890 0 0
-0.0096563320 0.0113164500 0 0
-0.0097596140 0.0084552900 0 0
-0.0098501480 0.0061064020 0 0
-0.0099147810 0.0045008770 0 0
-0.0099415780 0.0038048720 0 0
-0.0099242650 0.0041072060 0 0
-0.0098651260 0.0054093270 0 0
-0.0097750200 0.0076196670 0 0
-0.0096708780 0.0105559170 0 0
-0.0095723250 0.0139571780 0 0
-0.0094990120 0.0175059400 0 0
-0.0094685400 0.0208576330 0 0
-0.0094934910 0.0236749940 0 0
-0.0095772790 0.0256649960 0 0
-0.0097110560 0.0266142430 0 0
-0.0098742680 0.0264163770 0 0
-0.0100390860 0.0250858470 0 0
-0.0101763860 0.0227555690 0 0
-0.0102605320 0.0196593880 0 0
-0.0102719410 0.0161033500 0 0
-0.0101979050 0.0124314020 0 0
-0.0100327670 0.0089908910 0 0
-0.0097784460 0.0061013770 0 0
-0.0094457510 0.0040274480 0 0
-0.0090557010 0.0029549830 0 0
-0.0086390710 0.0029716690 0 0
-0.0082332440 0.0040547500 0 0
-0.0078772190 0.0060705590 0 0
-0.0076060320 0.0087889940 0 0
-0.0074454320 0.0119112240 0 0
-0.0074083810 0.0151042610 0 0
-0.0074949150 0.0180360080 0 0
-0.0076942190 0.0204075160 0 0
-0.0079860620 0.0219812350 0 0
-0.0083409740 0.0226033890 0 0
-0.0087218210 0.0222173540 0 0
-0.0090895070 0.0208659070 0 0
-0.0094118010 0.0186832860 0 0
-0.0096706310 0.0158799540 0 0
-0.0098633620 0.0127220800 0 0
-0.0099975790 0.0095068880 0 0
-0.0100836550 0.0065360390 0 0
-0.0101300890 0.0040894070 0 0
-0.0101427360 0.0023999700 0 0
-0.0101255770 0.0016305520 0 0
-0.0100813790 0.0018553510 0 0
-0.0100129450 0.0030499400 0 0
-0.0099259580 0.0050920270 0 0
-0.0098325380 0.0077735560 0 0
-0.0097530050 0.0108224910 0 0
-0.0097136950 0.0139306120 0 0
-0.0097414670 0.0167839100 0 0
-0.0098574340 0.0190931870 0 0
-0.0100713130 0.0206228640 0 0
-0.0103765320 0.0212157610 0 0
-0.0107469000 0.0208106640 0 0
-0.0111369550 0.0194488370 0 0
-0.0114878590 0.0172672640 0 0
-0.0117379390 0.0144805530 0 0
-0.0118341540 0.0113566640 0 0
-0.0117407190 0.0081909640 0 0
-0.0114433250 0.0052802460 0 0
-0.0109493200 0.0028973260 0 0
-0.0102852370 0.0012675900 0 0
-0.0094927020 0.0005483640 0 0
-0.0086226070 0.0008116430 0 0
-0.0077278170 0.0020329240 0 0
-0.0068573490 0.0040905110 0 0
-0.0060550680 0.0067770230 0 0
-0.0053614680 0.0098206040 0 0
-0.0048137130 0.0129120780 0 0
-0.0044414870 0.0157357100 0 0
-0.0042609510 0.0180020500 0 0
-0.0042703830 0.0194796590 0 0
-0.0044488140 0.0200204900 0 0
-0.0047576650 0.0195746270 0 0
-0.0051454610 0.0181928260 0 0
-0.0055547760 0.0160179630 0 0
-0.0059294280 0.0132686900 0 0
-0.0062208540 0.0102174100 0 0
-0.0063940490 0.0071625870 0 0
-0.0064328100 0.0043974180 0 0
-0.0063422650 0.0021798740 0 0
-0.0061466610 0.0007079670 0 0
-0.0058831420 0.0001013490 0 0
-0.0055947540 0.0003900620 0 0
-0.0053249170 0.0015123670 0 0
-0.0051132530 0.0033228270 0 0
-0.0049920900 0.0056094780 0 0
-0.0049834830 0.0081172230 0 0
-0.0050969380 0.0105744420 0 0
-0.0053285910 0.0127199420 0 0
-0.0056627150 0.0143270430 0 0
-0.0060754820 0.0152215770 0 0
-0.0065397260 0.0152930910 0 0
-0.0070292190 0.0145017030 0 0
-0.0075215540 0.0128826990 0 0
-0.0079988730 0.0105482110 0 0
-0.0084463970 0.0076839140 0 0
-0.0088508300 0.0045379970 0 0
-0.0092013810 0.0014007370 0 0
-0.0094932410 -0.0014236050 0 0
-0.0097298550 -0.0036482980 0 0
-0.0099205080 -0.0050351370 0 0
-0.0100742090 -0.0054211610 0 0
-0.0101949020 -0.0047369760 0 0
-0.0102817880 -0.0030148530 0 0
-0.0103340750 -0.0003875510 0 0
-0.0103566820 0.0029216070 0 0
-0.0103629620 0.0066180120 0 0
-0.0103723470 0.0103637520 0 0
-0.0104044030 0.0138111650 0 0
-0.0104730070 0.0166383190 0 0
-0.0105832330 0.0185840730 0 0
-0.0107313330 0.0194792850 0 0
-0.0109065720 0.0192670780 0 0
-0.0110934340 0.0180068040 0 0
-0.0112739070 0.0158632720 0 0
-0.0114295650 0.0130847970 0 0
-0.0115427270 0.0099724500 0 0
-0.0115977860 0.0068459320 0 0
-0.0115846690 0.0040126980 0 0
-0.0115033110 0.0017420930 0 0
-0.0113656320 0.0002436590 0 0
-0.0111931230 -0.0003489580 0 0
-0.0110119150 0.0000127152 0 0
-0.0108492730 0.0012879900 0 0
-0.0107332920 0.0033484750 0 0
-0.0106934260 0.0059890510 0 0
-0.0107586340 0.0089495130 0 0
-0.0109527550 0.0119412470 0 0
-0.0112888690 0.0146730250 0 0
-0.0117642000 0.0168756560 0 0
-0.0123564910 0.0183274350 0 0
-0.0130234860 0.0188782250 0 0
-0.0137075560 0.0184665020 0 0
-0.0143454030 0.0171259730 0 0
-0.0148796330 0.0149818360 0 0
-0.0152678880 0.0122369670 0 0
-0.0154868260 0.0091496060 0 0
-0.0155309970 0.0060069900 0 0
-0.0154089780 0.0030989610 0 0
-0.0151399780 0.0006929470 0 0
-0.0147520830 -0.0009894990 0 0
-0.0142802870 -0.0017939030 0 0
-0.0137625690 -0.0016497350 0 0
-0.0132349270 -0.0005795280 0 0
-0.0127278220 0.0013026590 0 0
-0.0122655300 0.0038035560 0 0
-0.0118672870 0.0066710800 0 0
-0.0115476150 0.0096197440 0 0
-0.0113145450 0.0123590470 0 0
-0.0111670640 0.0146222110 0 0
-0.0110943980 0.0161903380 0 0
-0.0110784470 0.0169079570 0 0
-0.0110979430 0.0166921260 0 0
-0.0111317220 0.0155406010 0 0
-0.0111602830 0.0135394060 0 0
-0.0111666830 0.0108633420 0 0
-0.0111374330 0.0077632430 0 0
-0.0110631600 0.0045398830 0 0
-0.0109391860 0.0015098140 0 0
-0.0107661480 -0.0010308390 0 0
-0.0105497620 -0.0028395920 0 0
-0.0102993070 -0.0037532570 0 0
-0.0100259740 -0.0037025280 0 0
-0.0097426510 -0.0027147390 0 0
-0.0094656000 -0.0009068680 0 0
-0.0092162900 0.0015288750 0 0
-0.0090202970 0.0043453750 0 0
-0.0089023880 0.0072648440 0 0
-0.0088808020 0.0100039650 0 0
-0.0089646020 0.0122974950 0 0
-0.0091552540 0.0139205140 0 0
-0.0094500120 0.0147106670 0 0
-0.0098433760 0.0145887110 0 0
-0.0103249720 0.0135716250 0 0
-0.0108763600 0.0117733230 0 0
-0.0114708150 0.0093924930 0 0
-0.0120775220 0.0066905210 0 0
-0.0126676980 0.0039630990 0 0
-0.0132188780 0.0015085500 0 0
-0.0137160800 -0.0004037940 0 0
-0.0141513880 -0.0015603370 0 0
-0.0145233960 -0.0018212830 0 0
-0.0148361470 -0.0011303360 0 0
-0.0150966110 0.0004819200 0 0
-0.0153113080 0.0029012840 0 0
-0.0154842750 0.0059413820 0 0
-0.0156176140 0.0093625040 0 0
-0.0157137890 0.0128944740 0 0
-0.0157783740 0.0162598460 0 0
-0.0158226970 0.0191952350 0 0
-0.0158653460 0.0214708660 0 0
-0.0159302260 0.0229094710 0 0
-0.0160397790 0.0234035020 0 0
-0.0162059040 0.0229271850 0 0
-0.0164241750 0.0215416540 0 0
-0.0166752260 0.0193938360 0 0
-0.0169323960 0.0167072710 0 0
-0.0171711880 0.0137618500 0 0
-0.0173758520 0.0108646450 0 0
-0.0175404730 0.0083174850 0 0
-0.0176649550 0.0063846870 0 0
-0.0177488650 0.0052633500 0 0
-0.0177872450 0.0050603070 0 0
-0.0177705980 0.0057797940 0 0
-0.0176880140 0.0073238230 0 0
-0.0175312340 0.0095047800 0 0
-0.0172984630 0.0120675950 0 0
-0.0169975070 0.0147186290 0 0
-0.0166472260 0.0171585760 0 0
-0.0162756240 0.0191152990 0 0
-0.0159136410 0.0203717080 0 0
-0.0155861240 0.0207854360 0 0
-0.0153038310 0.0202996260 0 0
-0.0150600760 0.0189464670 0 0
-0.0148331140 0.0168456480 0 0
-0.0145925510 0.0141976360 0 0
-0.0143065940 0.0112688440 0 0
-0.0139476770 0.0083654320 0 0
-0.0134967980 0.0057967900 0 0
-0.0129480250 0.0038362820 0 0
-0.0123124820 0.0026887500 0 0
-0.0116190790 0.0024696640 0 0
-0.0109102650 0.0031960820 0 0
-0.0102334400 0.0047883860 0 0
-0.0096305630 0.0070806230 0 0
-0.0091296760 0.0098366610 0 0
-0.0087419680 0.0127713200 0 0
-0.0084656340 0.0155774220 0 0
-0.0082937840 0.0179574090 0 0
-0.0082207750 0.0196544170 0 0
-0.0082424390 0.0204772180 0 0
-0.0083510280 0.0203159970 0 0
-0.0085300970 0.0191483630 0 0
-0.0087534590 0.0170370120 0 0
-0.0089887840 0.0141221460 0 0
-0.0092040900 0.0106115780 0 0
-0.0093738950 0.0067687390 0 0
-0.0094817090 0.0028959970 0 0
-0.0095187250 -0.0006892530 0 0
-0.0094821570 -0.0036851070 0 0
-0.0093764910 -0.0058378940 0 0
-0.0092168790 -0.0069700750 0 0
-0.0090305670 -0.0069969950 0 0
-0.0088529180 -0.0059318680 0 0
-0.0087190440 -0.0038835920 0 0
-0.0086556800 -0.0010501780 0 0
-0.0086769670 0.0022945140 0 0
-0.0087844620 0.0058236100 0 0
-0.0089695960 0.0091891640 0 0
-0.0092165230 0.0120591900 0 0
-0.0095040940 0.0141538550 0 0
-0.0098072050 0.0152750180 0 0
-0.0100987240 0.0153250510 0 0
-0.0103527870 0.0143136990 0 0
-0.0105490730 0.0123541890 0 0
-0.0106766180 0.0096502920 0 0
-0.0107351540 0.0064756990 0 0
-0.0107327050 0.0031476250 0 0
-0.0106803070 -0.0000031039 0 0
-0.0105867860 -0.0026629480 0 0
-0.0104568250 -0.0045650830 0 0
-0.0102932650 -0.0055163300 0 0
-0.0101014760 -0.0054204490 0 0
-0.0098928110 -0.0042931950 0 0
-0.0096860390 -0.0022629610 0 0
-0.0095068260 0.0004451830 0 0
-0.0093844860 0.0035377980 0 0
-0.0093456850 0.0066867810 0 0
-0.0094074300 0.0095635230 0 0
-0.0095725840 0.0118716190 0 0
-0.0098289070 0.0133772650 0 0
-0.0101505700 0.0139344200 0 0
-0.0105010800 0.0134987620 0 0
-0.0108375620 0.0121268520 0 0
-0.0111169660 0.0099640590 0 0
-0.0113038180 0.0072272010 0 0
-0.0113769340 0.0041842570 0 0
-0.0113320160 0.0011311280 0 0
-0.0111795670 -0.0016340260 0 0
-0.0109401430 -0.0038371200 0 0
-0.0106392980 -0.0052530870 0 0
-0.0103033970 -0.0057277340 0 0
-0.0099565390 -0.0051950050 0 0
-0.0096188630 -0.0036872690 0 0
-0.0093066990 -0.0013353490 0 0
-0.0090340190 0.0016434740 0 0
-0.0088134460 0.0049678650 0 0
-0.0086556600 0.0083217790 0 0
-0.0085678850 0.0113873170 0 0
-0.0085532460 0.0138771580 0 0
-0.0086116800 0.0155619750 0 0
-0.0087407640 0.0162894550 0 0
-0.0089340430 0.0159950400 0 0
-0.0091771640 0.0147065190 0 0
-0.0094451660 0.0125429410 0 0
-0.0097043710 0.0097057740 0 0
-0.0099196070 0.0064601420 0 0
-0.0100643210 0.0031072790 0 0
-0.0101290380 -0.0000467120 0 0
-0.0101239110 -0.0027202590 0 0
-0.0100741740 -0.0046817600 0 0
-0.0100114430 -0.0057707560 0 0
-0.0099658430 -0.0059130430 0 0
-0.0099617860 -0.0051268250 0 0
-0.0100166590 -0.0035184770 0 0
-0.0101408780 -0.0012694220 0 0
-0.0103388920 0.0013824510 0 0
-0.0106106180 0.0041637590 0 0
-0.0109521550 0.0067879450 0 0
-0.0113547330 0.0089797440 0 0
-0.0118023330 0.0105025930 0 0
-0.0122702000 0.0111863320 0 0
-0.0127257850 0.0109493890 0 0
-0.0131317330 0.0098106260 0 0
-0.0134506900 0.0078890220 0 0
-0.0136520640 0.0053906790 0 0
-0.0137186910 0.0025841470 0 0
-0.0136500070 -0.0002310620 0 0
-0.0134607510 -0.0027564050 0 0
-0.0131771190 -0.0047233810 0 0
-0.0128319020 -0.0059184800 0 0
-0.0124584520 -0.0062025540 0 0
-0.0120841660 -0.0055237390 0 0
-0.0117264980 -0.0039232930 0 0
-0.0113936780 -0.0015328640 0 0
-0.0110884500 0.0014376750 0 0
-0.0108110420 0.0047204340 0 0
-0.0105595880 0.0080143680 0 0
-0.0103298650 0.0110111950 0 0
-0.0101171210 0.0134213480 0 0
-0.0099197490 0.0150014200 0 0
-0.0097414200 0.0155823340 0 0
-0.0095891660 0.0150935800 0 0
-0.0094691300 0.0135776690 0 0
-0.0093842330 0.0111893140 0 0
-0.0093358360 0.0081768270 0 0
-0.0093269970 0.0048500970 0 0
-0.0093625490 0.0015434080 0 0
-0.0094437410 -0.0014204750 0 0
-0.0095609340 -0.0037613820 0 0
-0.0096905110 -0.0052656870 0 0
-0.0097990120 -0.0058022710 0 0
-0.0098527890 -0.0053319640 0 0
-0.0098289070 -0.0039122790 0 0
-0.0097228690 -0.0016951230 0 0
-0.0095493870 0.0010876640 0 0
-0.0093351310 0.0041511280 0 0
-0.0091078510 0.0071893020 0 0
-0.0088889550 0.0099049700 0 0
-0.0086927200 0.0120341870 0 0
-0.0085294960 0.0133661200 0 0
-0.0084079060 0.0137590440 0 0
-0.0083332280 0.0131516740 0 0
-0.0083035620 0.0115680960 0 0
-0.0083077870 0.0091161100 0 0
-0.0083273550 0.0059804550 0 0
-0.0083407500 0.0024109560 0 0
-0.0083283970 -0.0012967610 0 0
-0.0082763260 -0.0048289780 0 0
-0.0081778800 -0.0078865840 0 0
-0.0080338960 -0.0102166850 0 0
-0.0078524700 -0.0116382220 0 0
-0.0076491000 -0.0120592000 0 0
-0.0074470550 -0.0114844740 0 0
-0.0072763650 -0.0100139270 0 0
-0.0071692460 -0.0078319940 0 0
-0.0071522100 -0.0051902330 0 0
-0.0072390040 -0.0023840680 0 0
-0.0074284530 0.0002761420 0 0
-0.0077071100 0.0024977890 0 0
-0.0080534040 0.0040374680 0 0
-0.0084401710 0.0047261860 0 0
-0.0088349030 0.0044856060 0 0
-0.0092002900 0.0033338420 0 0
-0.0094982620 0.0013805480 0 0
-0.0096967010 -0.0011867460 0 0
-0.0097745070 -0.0041219370 0 0
-0.0097227780 -0.0071430360 0 0
-0.0095438760 -0.0099574630 0 0
-0.0092506940 -0.0122895310 0 0
-0.0088660290 -0.0139077620 0 0
-0.0084211130 -0.0146481360 0 0
-0.0079530230 -0.0144309750 0 0
-0.0075006110 -0.0132707460 0 0
-0.0070988050 -0.0112762460 0 0
-0.0067728560 -0.0086382090 0 0
-0.0065345000 -0.0056065830 0 0
-0.0063808760 -0.0024639050 0 0
-0.0062958650 0.0005007610 0 0
-0.0062523990 0.0030165460 0 0
-0.0062142750 0.0048542720 0 0
-0.0061384440 0.0058471940 0 0
-0.0059806330 0.0059064940 0 0
-0.0057056460 0.0050302260 0 0
-0.0052993390 0.0033055920 0 0
-0.0047760440 0.0009038840 0 0
-0.0041772050 -0.0019332610 0 0
-0.0035626980 -0.0049166010 0 0
-0.0029997030 -0.0077392080 0 0
-0.0025528600 -0.0101098890 0 0
-0.0022765580 -0.0117850930 0 0
-0.0022087700 -0.0125943590 0 0
-0.0023664530 -0.0124568210 0 0
-0.0027444530 -0.0113880190 0 0
-0.0033198510 -0.0094970260 0 0
-0.0040606740 -0.0069755760 0 0
-0.0049357280 -0.0040807950 0 0
-0.0059230860 -0.0011107540 0 0
-0.0070160560 0.0016263490 0 0
-0.0082255600 0.0038439790 0 0
-0.0095778960 0.0053047090 0 0
-0.0111082220 0.0058424280 0 0
-0.0128521840 0.0053803230 0 0
-0.0148376410 0.0039436730 0 0
-0.0170766730 0.0016633620 0 0
-0.0195600660 -0.0012356560 0 0
-0.0222594140 -0.0044628290 0 0
-0.0251392780 -0.0077013970 0 0
-0.0281744950 -0.0106491260 0 0
-0.0313633910 -0.0130529250 -1 0
-0.0347302620 -0.0147330180 -1 0
-0.0383175450 -0.0155951070 -1 0
-0.0421734130 -0.0156314320 -1 0
-0.0463407560 -0.0149135860 -1 0
-0.0508501870 -0.0135806920 -1 0
-0.0557166690 -0.0118250720 -1 0
-0.0609376340 -0.0098757850 -1 0
-0.0664905980 -0.0079807050 -1 0
-0.0723309760 -0.0063881650 -1 0
-0.0783938980 -0.0053275850 -1 0
-0.0846028200 -0.0049878720 -1 0
-0.0908824100 -0.0054954980 -1 0
-0.0971697410 -0.0068976710 -1 0
-0.1034204610 -0.0091552720 -1 0
-0.1096106600 -0.0121461700 -1 0
-0.1157355020 -0.0156769950 -1 0
-0.1218043580 -0.0195006860 -1 0
-0.1278325690 -0.0233367950 -1 0
-0.1338319650 -0.0268935430 -1 0
-0.1398039540 -0.0298931500 -1 0
-0.1457387670 -0.0321003460 -1 -1
-0.1516214270 -0.0333502720 -1 -1
-0.1574407360 -0.0335706890 -1 -1
-0.1631956290 -0.0327938620 -1 -1
-0.1688952520 -0.0311557790 -1 -1
-0.1745535560 -0.0288837760 -1 0
-0.1801825830 -0.0262744390 -1 0
-0.1857881310 -0.0236631620 -1 0
-0.1913682940 -0.0213882270 -1 0
-0.1969137650 -0.0197537680 -1 0
-0.2024096770 -0.0189960980 -1 0
-0.2078389210 -0.0192580770 -1 0
-0.2131849940 -0.0205757990 -1 0
-0.2184314490 -0.0228782790 -1 0
-0.2235574720 -0.0259970190 -1 0
-0.2285326870 -0.0296827090 -1 0
-0.2333149970 -0.0336286390 -1 -1
-0.2378532980 -0.0374999750 -1 -1
-0.2420948250 -0.0409656260 -1 -1
-0.2459958000 -0.0437289360 -1 -1
-0.2495329730 -0.0455550020 -1 -1
-0.2527122130 -0.0462930250 -1 -1
-0.2555706240 -0.0458911640 -1 -1
-0.2581717190 -0.0444014070 -1 -1
-0.2605956470 -0.0419736140 -1 -1
-0.2629261910 -0.0388397650 -1 -1
-0.2652359590 -0.0352909180 -1 -1
-0.2675728010 -0.0316493020 -1 -1
-0.2699522280 -0.0282375230 -1 0
-0.2723594620 -0.0253478160 -1 0
-0.2747586150 -0.0232150980 -1 0
-0.2771002880 -0.0219965480 -1 0
-0.2793218820 -0.0217590700 -1 0
-0.2813453250 -0.0224747450 -1 0
-0.2830821240 -0.0240244440 -1 0
-0.2844492190 -0.0262110780 -1 0
-0.2853887320 -0.0287827510 -1 0
-0.2858817140 -0.0314616800 -1 -1
-0.2859520830 -0.0339724580 -1 -1
-0.2856637400 -0.0360658840 -1 -1
-0.2851138830 -0.0375382690 -1 -1
-0.2844213640 -0.0382470570 -1 -1
-0.2837090900 -0.0381223780 -1 -1
-0.2830841010 -0.0371723950 -1 -1
-0.2826213430 -0.0354808470 -1 -1
-0.2823554030 -0.0331980640 -1 -1
-0.2822814260 -0.0305277370 -1 -1
-0.2823640050 -0.0277102910 -1 0
-0.2825514600 -0.0250037060 -1 0
-0.2827918740 -0.0226633050 -1 0
-0.2830461270 -0.0209211430 -1 0
-0.2832938080 -0.0199646990 -1 0
-0.2835313210 -0.0199155050 -1 0
-0.2837649240 -0.0208109170 -1 0
-0.2840022410 -0.0225937720 -1 0
-0.2842453870 -0.0251130860 -1 0
-0.2844885310 -0.0281366920 -1 0
-0.2847208210 -0.0313747870 -1 -1
-0.2849311650 -0.0345101400 -1 -1
-0.2851092940 -0.0372292220 -1 -1
-0.2852419560 -0.0392523930 -1 -1
-0.2853094840 -0.0403646530 -1 -1
-0.2852888230 -0.0404449770 -1 -1
-0.2851629950 -0.0394863540 -1 -1
-0.2849303780 -0.0375984370 -1 -1
-0.2846074890 -0.0349914000 -1 -1
-0.2842249720 -0.0319471850 -1 -1
-0.2838208410 -0.0287863640 -1 0
-0.2834349730 -0.0258351540 -1 0
-0.2831059190 -0.0233938580 -1 0
-0.2828682840 -0.0217081900 -1 0
-0.2827489260 -0.0209458780 -1 0
-0.2827626090 -0.0211808640 -1 0
-0.2829083120 -0.0223874640 -1 0
-0.2831658040 -0.0244441280 -1 0
-0.2834925480 -0.0271434930 -1 0
-0.2838241960 -0.0302092480 -1 -1
-0.2840838630 -0.0333237940 -1 -1
-0.2842013750 -0.0361642770 -1 -1
-0.2841348670 -0.0384378940 -1 -1
-0.2838829710 -0.0399103290 -1 -1
-0.2834822900 -0.0404264720 -1 -1
-0.2829940320 -0.0399231550 -1 -1
-0.2824867620 -0.0384338240 -1 -1
-0.2820214490 -0.0360866780 -1 -1
-0.2816429070 -0.0330956080 -1 -1
-0.2813780130 -0.0297408200 -1 0
-0.2812385370 -0.0263400500 -1 0
-0.2812253580 -0.0232160610 -1 0
-0.2813303250 -0.0206652320 -1 0
-0.2815344650 -0.0189291830 -1 0
-0.2818052670 -0.0181713700 -1 0
-0.2820974410 -0.0184614540 -1 0
-0.2823597300 -0.0197690340 -1 0
-0.2825458150 -0.0219662640 -1 0
-0.2826242030 -0.0248393660 -1 0
-0.2825836170 -0.0281092990 -1 0
-0.2824327580 -0.0314596300 -1 -1
-0.2821943250 -0.0345684320 -1 -1
-0.2818955850 -0.0371413690 -1 -1
-0.2815607380 -0.0389425630 -1 -1
-0.2812088830 -0.0398191730 -1 -1
-0.2808558930 -0.0397157700 -1 -1
-0.2805161710 -0.0386757120 -1 -1
-0.2802031660 -0.0368300340 -1 -1
-0.2799295320 -0.0343778190 -1 -1
-0.2797065600 -0.0315633240 -1 -1
-0.2795418820 -0.0286540690 -1 0
-0.2794360020 -0.0259211880 -1 0
-0.2793795810 -0.0236206900 -1 0
-0.2793534410 -0.0219739900 -1 0
-0.2793320640 -0.0211478930 -1 0
-0.2792892940 -0.0212361800 -1 0
-0.2792038790 -0.0222454340 -1 0
-0.2790634870 -0.0240877240 -1 0
-0.2788669010 -0.0265838230 -1 0
-0.2786236620 -0.0294798210 -1 0
-0.2783500310 -0.0324755170 -1 -1
-0.2780622520 -0.0352586480 -1 -1
-0.2777714020 -0.0375386710 -1 -1
-0.2774834210 -0.0390765560 -1 -1
-0.2772028030 -0.0397087820 -1 -1
-0.2769353560 -0.0393625130 -1 -1
-0.2766872460 -0.0380592440 -1 -1
-0.2764612400 -0.0359085010 -1 -1
-0.2762527580 -0.0330956420 -1 -1
-0.2760477700 -0.0298655500 -1 0
-0.2758241070 -0.0265018630 -1 0
-0.2755571500 -0.0233019410 -1 0
-0.2752281130 -0.0205494430 -1 0
-0.2748311230 -0.0184877690 -1 0
-0.2743764340 -0.0172973440 -1 0
-0.2738881110 -0.0170780380 -1 0
-0.2733955350 -0.0178376070 -1 0
-0.2729216390 -0.0194878190 -1 0
-0.2724739860 -0.0218503810 -1 0
-0.2720439870 -0.0246745180 -1 0
-0.2716150000 -0.0276649560 -1 0
-0.2711742080 -0.0305141650 -1 -1
-0.2707217440 -0.0329325440 -1 -1
-0.2702745030 -0.0346746430 -1 -1
-0.2698657350 -0.0355612430 -1 -1
-0.2695411490 -0.0354950790 -1 -1
-0.2693503460 -0.0344679820 -1 -1
-0.2693331230 -0.0325602900 -1 -1
-0.2695052660 -0.0299351770 -1 0
-0.2698525090 -0.0268284200 -1 0
-0.2703370560 -0.0235309450 -1 0
-0.2709117190 -0.0203621850 -1 0
-0.2715327660 -0.0176363550 -1 0
-0.2721661120 -0.0156269970 -1 0
-0.2727862060 -0.0145358680 -1 0
-0.2733703210 -0.0144714240 -1 0
-0.2738928550 -0.0154393960 -1 0
-0.2743228330 -0.0173441420 -1 0
-0.2746241640 -0.0199980070 -1 0
-0.2747576350 -0.0231377830 -1 0
-0.2746860510 -0.0264492480 -1 0
-0.2743836390 -0.0295995050 -1 0
-0.2738465700 -0.0322724220 -1 -1
-0.2730988560 -0.0342011320 -1 -1
-0.2721910820 -0.0351950600 -1 -1
-0.2711940850 -0.0351602530 -1 -1
-0.2701904140 -0.0341087540 -1 -1
-0.2692650300 -0.0321532660 -1 -1
-0.2684957930 -0.0294897070 -1 0
-0.2679443040 -0.0263749270 -1 0
-0.2676489760 -0.0231038540 -1 0
-0.2676224910 -0.0199848350 -1 0
-0.2678531680 -0.0173118350 -1 0
-0.2683071390 -0.0153350800 -1 0
-0.2689295200 -0.0142329760 -1 0
-0.2696470250 -0.0140904580 -1 0
-0.2703761360 -0.0148905950 -1 0
-0.2710368730 -0.0165216510 -1 0
-0.2715667480 -0.0187950550 -1 0
-0.2719285100 -0.0214678970 -1 0
-0.2721093370 -0.0242665380 -1 0
-0.2721139300 -0.0269115560 -1 0
-0.2719571190 -0.0291446560 -1 0
-0.2716611620 -0.0307550850 -1 -1
-0.2712578590 -0.0316008730 -1 -1
-0.2707906700 -0.0316209260 -1 -1
-0.2703126670 -0.0308369450 -1 -1
-0.2698803340 -0.0293474930 -1 0
-0.2695457730 -0.0273173670 -1 0
-0.2693498860 -0.0249636490 -1 0
-0.2693177200 -0.0225378570 -1 0
-0.2694559610 -0.0203038960 -1 0
-0.2697524400 -0.0185139000 -1 0
-0.2701781390 -0.0173846290 -1 0
-0.2706924120 -0.0170752940 -1 0
-0.2712507650 -0.0176681020 -1 0
-0.2718126210 -0.0191555610 -1 0
-0.2723463810 -0.0214385360 -1 0
-0.2728314200 -0.0243354070 -1 0
-0.2732588220 -0.0275998780 -1 0
-0.2736311050 -0.0309449920 -1 -1
-0.2739595190 -0.0340711650 -1 -1
-0.2742605190 -0.0366955620 -1 -1
-0.2745551130 -0.0385800750 -1 -1
-0.2748695860 -0.0395552120 -1 -1
-0.2752317080 -0.0395374150 -1 -1
-0.2756614500 -0.0385378910 -1 -1
-0.2761630770 -0.0366620350 -1 -1
-0.2767258210 -0.0340998050 -1 -1
-0.2773325010 -0.0311082180 -1 -1
-0.2779689500 -0.0279871680 -1 0
-0.2786290590 -0.0250499560 -1 0
-0.2793154080 -0.0225906960 -1 0
-0.2800360500 -0.0208521170 -1 0
-0.2807973460 -0.0199987230 -1 0
-0.2815965330 -0.0201004020 -1 0
-0.2824198530 -0.0211291260 -1 0
-0.2832465480 -0.0229668410 -1 0
-0.2840531120 -0.0254201130 -1 0
-0.2848142120 -0.0282396090 -1 0
-0.2855024290 -0.0311448780 -1 -1
-0.2860906160 -0.0338519510 -1 -1
-0.2865579820 -0.0360987490 -1 -1
-0.2868972320 -0.0376669510 -1 -1
-0.2871180230 -0.0384021110 -1 -1
-0.2872436660 -0.0382310750 -1 -1
-0.2873026480 -0.0371726600 -1 -1
-0.2873204910 -0.0353382540 -1 -1
-0.2873168860 -0.0329218760 -1 -1
-0.2873076320 -0.0301816420 -1 -1
-0.2873058920 -0.0274151720 -1 0
-0.2873186770 -0.0249304580 -1 0
-0.2873407150 -0.0230136980 -1 0
-0.2873520890 -0.0218975380 -1 0
-0.2873253940 -0.0217346430 -1 0
-0.2872420180 -0.0225808330 -1 0
-0.2871079930 -0.0243895980 -1 0
-0.2869566860 -0.0270174990 -1 0
-0.2868343140 -0.0302397600 -1 -1
-0.2867778140 -0.0337749720 -1 -1
-0.2867993110 -0.0373153210 -1 -1
-0.2868841040 -0.0405576540 -1 -1
-0.2869997030 -0.0432320410 -1 -1
-0.2871091010 -0.0451257680 -1 -1
-0.2871812700 -0.0461014600 -1 -1
-0.2871950640 -0.0461080500 -1 -1
-0.2871383140 -0.0451832900 -1 -1
-0.2870070600 -0.0434479180 -1 -1
-0.2868066500 -0.0410930510 -1 -1
-0.2865514110 -0.0383626220 -1 -1
-0.2862602760 -0.0355321050 -1 -1
-0.2859498280 -0.0328837600 -1 -1
-0.2856267960 -0.0306793760 -1 -1
-0.2852813860 -0.0291344150 -1 0
-0.2848858910 -0.0283981290 -1 0
-0.2844034710 -0.0285412870 -1 0
-0.2838043890 -0.0295508590 -1 0
-0.2830802280 -0.0313310740 -1 -1
-0.2822489840 -0.0337111030 -1 -1
-0.2813499870 -0.0364599780 -1 -1
-0.2804314690 -0.0393087030 -1 -1
-0.2795367320 -0.0419774760 -1 -1
-0.2786963860 -0.0442036920 -1 -1
-0.2779296550 -0.0457669620 -1 -1
-0.2772501910 -0.0465097320 -1 -1
-0.2766694800 -0.0463523140 -1 -1
-0.2761948280 -0.0452998640 -1 -1
-0.2758244820 -0.0434404140 -1 -1
-0.2755454030 -0.0409363640 -1 -1
-0.2753367090 -0.0380119120 -1 -1
-0.2751768160 -0.0349362900 -1 -1
-0.2750498650 -0.0320007260 -1 -1
-0.2749484070 -0.0294885900 -1 0
-0.2748726840 -0.0276431420 -1 0
-0.2748287650 -0.0266406450 -1 0
-0.2748262160 -0.0265741630 -1 0
-0.2748748310 -0.0274478790 -1 0
-0.2749811450 -0.0291781810 -1 0
-0.2751448310 -0.0315988770 -1 -1
-0.2753540740 -0.0344720490 -1 -1
-0.2755816540 -0.0375074920 -1 -1
-0.2757862000 -0.0403904060 -1 -1
-0.2759203940 -0.0428134670 -1 -1
-0.2759434080 -0.0445096460 -1 -1
-0.2758332060 -0.0452830570 -1 -1
-0.2755938520 -0.0450330460 -1 -1
-0.2752536670 -0.0437656980 -1 -1
-0.2748551890 -0.0415911620 -1 -1
-0.2744433560 -0.0387101760 -1 -1
-0.2740575170 -0.0353931380 -1 -1
-0.2737278860 -0.0319530470 -1 -1
-0.2734743350 -0.0287143550 -1 0
-0.2733067550 -0.0259811830 -1 0
-0.2732268310 -0.0240074820 -1 0
-0.2732290160 -0.0229712230 -1 0
-0.2732985540 -0.0229554970 -1 0
-0.2734090990 -0.0239392560 -1 0
-0.2735254960 -0.0257988270 -1 0
-0.2736123820 -0.0283198890 -1 0
-0.2736414090 -0.0312188270 -1 -1
-0.2735901240 -0.0341722110 -1 -1
-0.2734347480 -0.0368525220 -1 -1
-0.2731463630 -0.0389665570 -1 -1
-0.2726965800 -0.0402900620 -1 -1
-0.2720696950 -0.0406910010 -1 -1
-0.2712742380 -0.0401381760 -1 -1
-0.2703492520 -0.0386981160 -1 -1
-0.2693638480 -0.0365241980 -1 -1
-0.2684101120 -0.0338393570 -1 -1
-0.2675908270 -0.0309132190 -1 -1
-0.2670042250 -0.0280357370 -1 0
-0.2667273640 -0.0254897900 -1 0
-0.2668004670 -0.0235248700 -1 0
-0.2672170600 -0.0223345210 -1 0
-0.2679247010 -0.0220401020 -1 0
-0.2688364610 -0.0226814240 -1 0
-0.2698476910 -0.0242131540 -1 0
-0.2708513480 -0.0265063380 -1 0
-0.2717489040 -0.0293560480 -1 0
-0.2724577110 -0.0324972970 -1 -1
-0.2729165740 -0.0356301390 -1 -1
-0.2730908820 -0.0384505710 -1 -1
-0.2729770380 -0.0406812150 -1 -1
-0.2726030740 -0.0420985710 -1 -1
-0.2720228340 -0.0425557400 -1 -1
-0.2713061670 -0.0419968120 -1 -1
-0.2705303130 -0.0404598500 -1 -1
-0.2697741830 -0.0380706900 -1 -1
-0.2691128340 -0.0350305030 -1 -1
-0.2686089670 -0.0315978570 -1 -1
-0.2683009940 -0.0280666440 -1 0
-0.2681919180 -0.0247412660 -1 0
-0.2682468460 -0.0219088240 -1 0
-0.2684029040 -0.0198097740 -1 0
-0.2685865320 -0.0186127750 -1 0
-0.2687301760 -0.0183989300 -1 0
-0.2687845910 -0.0191548670 -1 0
-0.2687261150 -0.0207725260 -1 0
-0.2685574280 -0.0230581910 -1 0
-0.2683013980 -0.0257532570 -1 0
-0.2679914790 -0.0285627700 -1 0
-0.2676628160 -0.0311859360 -1 -1
-0.2673456600 -0.0333463660 -1 -1
-0.2670611590 -0.0348201620 -1 -1
-0.2668194590 -0.0354582320 -1 -1
-0.2666196530 -0.0352002980 -1 -1
-0.2664508770 -0.0340796430 -1 -1
-0.2662941790 -0.0322184140 -1 -1
-0.2661252780 -0.0298144530 -1 0
-0.2659186180 -0.0271209420 -1 0
-0.2656537120 -0.0244201800 -1 0
-0.2653241940 -0.0219943330 -1 0
-0.2649461130 -0.0200970550 -1 0
-0.2645587780 -0.0189286670 -1 0
-0.2642149660 -0.0186167690 -1 0
-0.2639646450 -0.0192044660 -1 0
-0.2638398410 -0.0206479600 -1 0
-0.2638464450 -0.0228229640 -1 0
-0.2639647980 -0.0255368790 -1 0
-0.2641573530 -0.0285437900 -1 0
-0.2643790990 -0.0315624230 -1 -1
-0.2645862160 -0.0342996870 -1 -1
-0.2647419340 -0.0364805080 -1 -1
-0.2648210010 -0.0378793940 -1 -1
-0.2648118510 -0.0383467340 -1 -1
-0.2647136700 -0.0378254430 -1 -1
-0.2645291600 -0.0363566650 -1 -1
-0.2642584990 -0.0340749650 -1 -1
-0.2638988230 -0.0311941650 -1 -1
-0.2634486990 -0.0279850910 -1 0
-0.2629146540 -0.0247474920 -1 0
-0.2623162570 -0.0217800370 -1 0
-0.2616855790 -0.0193520680 -1 0
-0.2610592410 -0.0176792310 -1 0
-0.2604668670 -0.0169045250 -1 0
-0.2599230030 -0.0170861970 -1 0
-0.2594271140 -0.0181930300 -1 0
-0.2589713580 -0.0201062460 -1 0
-0.2585519620 -0.0226277920 -1 0
-0.2581778390 -0.0254967940 -1 0
-0.2578708420 -0.0284156260 -1 0
-0.2576572600 -0.0310835650 -1 -1
-0.2575562200 -0.0332316720 -1 -1
-0.2575713760 -0.0346507770 -1 -1
-0.2576883940 -0.0352079430 -1 -1
-0.2578778800 -0.0348528380 -1 -1
-0.2581022330 -0.0336177250 -1 -1
-0.2583235320 -0.0316130470 -1 -1
-0.2585097970 -0.0290191650 -1 0
-0.2586393740 -0.0260736300 -1 0
-0.2587039860 -0.0230525070 -1 0
-0.2587094310 -0.0202458380 -1 0
-0.2586728560 -0.0179303450 -1 0
-0.2586177550 -0.0163429600 -1 0
-0.2585690810 -0.0156566460 -1 0
-0.2585494610 -0.0159595500 -1 0
-0.2585760240 -0.0172410350 -1 0
-0.2586578300 -0.0193890300 -1 0
-0.2587947620 -0.0222007080 -1 0
-0.2589777300 -0.0254052230 -1 0
-0.2591888830 -0.0286942690 -1 0
-0.2594010400 -0.0317549980 -1 -1
-0.2595772020 -0.0343012500 -1 -1
-0.2596723040 -0.0361007870 -1 -1
-0.2596389740 -0.0369967690 -1 -1
-0.2594379270 -0.0369217120 -1 -1
-0.2590518310 -0.0359027410 -1 -1
-0.2584976710 -0.0340585450 -1 -1
-0.2578302000 -0.0315891880 -1 -1
-0.2571329120 -0.0287591060 -1 0
-0.2564999420 -0.0258728850 -1 0
-0.2560161440 -0.0232445380 -1 0
-0.2557420090 -0.0211641050 -1 0
-0.2557071650 -0.0198674200 -1 0
-0.2559120390 -0.0195128130 -1 0
-0.2563325300 -0.0201653070 -1 0
-0.2569216100 -0.0217888280 -1 0
-0.2576082920 -0.0242483190 -1 0
-0.2583005160 -0.0273229650 -1 0
-0.2588944430 -0.0307294490 -1 -1
-0.2592865270 -0.0341522450 -1 -1
-0.2593867000 -0.0372764640 -1 -1
-0.2591345810 -0.0398181470 -1 -1
-0.2585162160 -0.0415490780 -1 -1
-0.2575720500 -0.0423163480 -1 -1
-0.2563882770 -0.0420568820 -1 -1
-0.2550740750 -0.0408043200 -1 -1
-0.2537362950 -0.0386859750 -1 -1
-0.2524625600 -0.0359111170 -1 -1
-0.2513163070 -0.0327526980 -1 -1
-0.2503404780 -0.0295224930 -1 0
-0.2495635340 -0.0265401850 -1 0
-0.2490026170 -0.0240998330 -1 0
-0.2486629400 -0.0224387070 -1 0
-0.2485360050 -0.0217133250 -1 0
-0.2485991680 -0.0219861020 -1 0
-0.2488163090 -0.0232223120 -1 0
-0.2491379400 -0.0252939210 -1 0
-0.2495013680 -0.0279890520 -1 0
-0.2498345580 -0.0310305310 -1 -1
-0.2500665980 -0.0341054110 -1 -1
-0.2501425770 -0.0368998740 -1 -1
-0.2500355860 -0.0391314970 -1 -1
-0.2497499890 -0.0405752810 -1 -1
-0.2493161810 -0.0410830700 -1 -1
-0.2487802790 -0.0405954740 -1 -1
-0.2481931570 -0.0391451880 -1 -1
-0.2476044230 -0.0368526170 -1 -1
-0.2470637990 -0.0339160210 -1 -1
-0.2466247680 -0.0305962860 -1 -1
-0.2463425670 -0.0271949150 -1 0
-0.2462641930 -0.0240261470 -1 0
-0.2464150580 -0.0213868520 -1 0
-0.2467895320 -0.0195280080 -1 0
-0.2473504850 -0.0186305100 -1 0
-0.2480385480 -0.0187868480 -1 0
-0.2487874510 -0.0199888440 -1 0
-0.2495380600 -0.0221221400 -1 0
-0.2502432890 -0.0249707590 -1 0
-0.2508630000 -0.0282360390 -1 0
-0.2513568850 -0.0315704240 -1 -1
-0.2516837740 -0.0346201930 -1 -1
-0.2518084010 -0.0370674110 -1 -1
-0.2517103240 -0.0386640000 -1 -1
-0.2513895850 -0.0392559190 -1 -1
-0.2508677350 -0.0387971790 -1 -1
-0.2501857060 -0.0373524250 -1 -1
-0.2493995120 -0.0350872890 -1 -1
-0.2485733810 -0.0322476770 -1 -1
-0.2477702060 -0.0291307130 -1 0
-0.2470409780 -0.0260516970 -1 0
-0.2464163080 -0.0233127200 -1 0
-0.2459032170 -0.0211770200 -1 0
-0.2454887110 -0.0198491090 -1 0
-0.2451489100 -0.0194589770 -1 0
-0.2448598360 -0.0200507490 -1 0
-0.2446053040 -0.0215776830 -1 0
-0.2443794340 -0.0239047870 -1 0
-0.2441839870 -0.0268194720 -1 0
-0.2440222820 -0.0300499580 -1 -1
-0.2438924580 -0.0332899700 -1 -1
-0.2437832990 -0.0362267630 -1 -1
-0.2436745720 -0.0385692960 -1 -1
-0.2435414660 -0.0400750520 -1 -1
-0.2433609990 -0.0405749060 -1 -1
-0.2431179820 -0.0399932540 -1 -1
-0.2428090450 -0.0383591520 -1 -1
-0.2424447370 -0.0358058540 -1 -1
-0.2420503420 -0.0325583460 -1 -1
-0.2416645800 -0.0289102340 -1 0
-0.2413339040 -0.0251936000 -1 0
-0.2411023140 -0.0217459090 -1 0
-0.2410003860 -0.0188767460 -1 0
-0.2410374180 -0.0168375260 -1 0
-0.2411975870 -0.0157975290 -1 0
-0.2414399560 -0.0158282120 -1 0
-0.2417030790 -0.0168975450 -1 0
-0.2419139850 -0.0188755130 -1 0
-0.2419995560 -0.0215486770 -1 0
-0.2418987450 -0.0246403210 -1 0
-0.2415745950 -0.0278350840 -1 0
-0.2410233720 -0.0308073390 -1 -1
-0.2402764530 -0.0332510230 -1 -1
-0.2393922770 -0.0349095880 -1 -1
-0.2384411560 -0.0356050950 -1 -1
-0.2374901290 -0.0352617140 -1 -1
-0.2365939590 -0.0339163930 -1 -1
-0.2357942710 -0.0317125530 -1 -1
-0.2351239860 -0.0288787590 -1 0
-0.2346107350 -0.0256987790 -1 0
-0.2342746460 -0.0224800950 -1 0
-0.2341223650 -0.0195253560 -1 0
-0.2341436550 -0.0171076480 -1 0
-0.2343137560 -0.0154486640 -1 0
-0.2345977380 -0.0146999840 -1 0
-0.2349522940 -0.0149294890 -1 0
-0.2353264580 -0.0161151530 -1 0
-0.2356656970 -0.0181469330 -1 0
-0.2359195770 -0.0208362340 -1 0
-0.2360487460 -0.0239324380 -1 0
-0.2360276030 -0.0271457360 -1 0
-0.2358428180 -0.0301746140 -1 -1
-0.2354907400 -0.0327356200 -1 -1
-0.2349761100 -0.0345918280 -1 -1
-0.2343121420 -0.0355755870 -1 -1
-0.2335209420 -0.0356031660 -1 -1
-0.2326333330 -0.0346817990 -1 -1
-0.2316873600 -0.0329099970 -1 -1
-0.2307253300 -0.0304708310 -1 -1
-0.2297901900 -0.0276174650 -1 0
-0.2289224450 -0.0246499300 -1 0
-0.2281579010 -0.0218838120 -1 0
-0.2275248210 -0.0196156650 -1 0
-0.2270393570 -0.0180913090 -1 0
-0.2267007870 -0.0174803570 -1 0
-0.2264901260 -0.0178583640 -1 0
-0.2263738920 -0.0191984250 -1 0
-0.2263111300 -0.0213739470 -1 0
-0.2262611510 -0.0241726630 -1 0
-0.2261906960 -0.0273202880 -1 0
-0.2260778250 -0.0305105180 -1 -1
-0.2259093100 -0.0334366780 -1 -1
-0.2256746860 -0.0358208430 -1 -1
-0.2253655600 -0.0374385640 -1 -1
-0.2249828110 -0.0381387300 -1 -1
-0.2245440830 -0.0378574630 -1 -1
-0.2240835820 -0.0366240480 -1 -1
-0.2236446400 -0.0345581260 -1 -1
-0.2232709390 -0.0318590270 -1 -1
-0.2230001020 -0.0287873670 -1 0
-0.2228594340 -0.0256392160 -1 0
-0.2228634790 -0.0227163560 -1 0
-0.2230137600 -0.0202979260 -1 0
-0.2232996970 -0.0186163590 -1 0
-0.2236996630 -0.0178378120 -1 0
-0.2241828500 -0.0180471270 -1 0
-0.2247127400 -0.0192380270 -1 0
-0.2252516340 -0.0213096870 -1 0
-0.2257646530 -0.0240714280 -1 0
-0.2262214100 -0.0272573600 -1 0
-0.2265948250 -0.0305509210 -1 -1
-0.2268592600 -0.0336164650 -1 -1
-0.2269915970 -0.0361339820 -1 -1
-0.2269766220 -0.0378336370 -1 -1
-0.2268132050 -0.0385268560 -1 -1
-0.2265157340 -0.0381294450 -1 -1
-0.2261095370 -0.0366720480 -1 -1
-0.2256249230 -0.0342957900 -1 -1
-0.2250945500 -0.0312347100 -1 -1
-0.2245539480 -0.0277892280 -1 0
-0.2240417240 -0.0242949170 -1 0
-0.2235963610 -0.0210896340 -1 0
-0.2232491240 -0.0184815000 -1 0
-0.2230159470 -0.0167200210 -1 0
-0.2228929140 -0.0159718810 -1 0
-0.2228575920 -0.0163028870 -1 0
-0.2228736440 -0.0176687910 -1 0
-0.2228952840 -0.0199182750 -1 0
-0.2228728750 -0.0228087160 -1 0
-0.2227630730 -0.0260321730 -1 0
-0.2225414210 -0.0292488080 -1 0
-0.2222098080 -0.0321239370 -1 -1
-0.2217943200 -0.0343626730 -1 -1
-0.2213361120 -0.0357375470 -1 -1
-0.2208806320 -0.0361073410 -1 -1
-0.2204686770 -0.0354265700 -1 -1
-0.2201303440 -0.0337466260 -1 -1
-0.2198817650 -0.0312108030 -1 -1
-0.2197243530 -0.0280434010 -1 0
-0.2196463150 -0.0245308850 -1 0
-0.2196254180 -0.0209948710 -1 0
-0.2196316680 -0.0177600720 -1 0
-0.2196304460 -0.0151215210 -1 0
-0.2195880530 -0.0133153610 -1 0
-0.2194792040 -0.0124977250 -1 0
-0.2192930000 -0.0127347830 -1 0
-0.2190347270 -0.0140023530 -1 0
-0.2187237250 -0.0161899580 -1 0
-0.2183884970 -0.0191070830 -1 0
-0.2180594240 -0.0224949530 -1 0
-0.2177600480 -0.0260480670 -1 0
-0.2175000920 -0.0294449220 -1 0
-0.2172741020 -0.0323814410 -1 -1
-0.2170670080 -0.0345999080 -1 -1
-0.2168636250 -0.0359111290 -1 -1
-0.2166568210 -0.0362110570 -1 -1
-0.2164506230 -0.0354913710 -1 -1
-0.2162582360 -0.0338413990 -1 -1
-0.2160974290 -0.0314400720 -1 -1
-0.2159855990 -0.0285389710 -1 0
-0.2159351470 -0.0254382080 -1 0
-0.2159490770 -0.0224567110 -1 0
-0.2160172230 -0.0198991390 -1 0
-0.2161147690 -0.0180235440 -1 0
-0.2162058440 -0.0170152940 -1 0
-0.2162528290 -0.0169713350 -1 0
-0.2162267870 -0.0178943710 -1 0
-0.2161129390 -0.0196934460 -1 0
-0.2159100440 -0.0221895930 -1 0
-0.2156275680 -0.0251295280 -1 0
-0.2152837940 -0.0282094310 -1 0
-0.2149045480 -0.0311060670 -1 -1
-0.2145209220 -0.0335112620 -1 -1
-0.2141651020 -0.0351667730 -1 -1
-0.2138639640 -0.0358947360 -1 -1
-0.2136312360 -0.0356174010 -1 -1
-0.2134614040 -0.0343635440 -1 -1
-0.2133297650 -0.0322629530 -1 -1
-0.2132007170 -0.0295306750 -1 0
-0.2130418050 -0.0264424990 -1 0
-0.2128375220 -0.0233047420 -1 0
-0.2125964800 -0.0204227310 -1 0
-0.2123492560 -0.0180720550 -1 0
-0.2121394880 -0.0164748510 -1 0
-0.2120128960 -0.0157816370 -1 0
-0.2120068400 -0.0160585190 -1 0
-0.2121417920 -0.0172797370 -1 0
-0.2124167330 -0.0193266770 -1 0
-0.2128095870 -0.0219955310 -1 0
-0.2132809540 -0.0250153800 -1 0
-0.2137782160 -0.0280762960 -1 0
-0.2142395330 -0.0308636440 -1 -1
-0.2145998180 -0.0330917900 -1 -1
-0.2147993240 -0.0345316060 -1 -1
-0.2147926300 -0.0350304520 -1 -1
-0.2145561360 -0.0345250370 -1 -1
-0.2140929700 -0.0330466030 -1 -1
-0.2134330510 -0.0307179290 -1 -1
-0.2126269710 -0.0277424110 -1 0
-0.2117366280 -0.0243855690 -1 0
-0.2108271670 -0.0209499660 -1 0
-0.2099613520 -0.0177462050 -1 0
-0.2091944250 -0.0150628770 -1 0
-0.2085684580 -0.0131378180 -1 0
-0.2081080590 -0.0121341740 -1 0
-0.2078191370 -0.0121251960 -1 0
-0.2076892800 -0.0130888740 -1 0
-0.2076883090 -0.0149111600 -1 0
-0.2077715690 -0.0173972620 -1 0
-0.2078884430 -0.0202914140 -1 0
-0.2079924710 -0.0233031740 -1 0
-0.2080470030 -0.0261354160 -1 0
-0.2080260030 -0.0285103190 -1 0
-0.2079147470 -0.0301938210 -1 -1
-0.2077126640 -0.0310197790 -1 -1
-0.2074354790 -0.0309105340 -1 -1
-0.2071133670 -0.0298874910 -1 0
-0.2067845500 -0.0280685650 -1 0
-0.2064858640 -0.0256543540 -1 0
-0.2062424390 -0.0229060630 -1 0
-0.2060593050 -0.0201176720 -1 0
-0.2059191350 -0.0175858970 -1 0
-0.2057895570 -0.0155818440 -1 0
-0.2056375000 -0.0143259910 -1 0
-0.2054417770 -0.0139663210 -1 0
-0.2051965320 -0.0145612780 -1 0
-0.2049059380 -0.0160721680 -1 0
-0.2045763940 -0.0183680590 -1 0
-0.2042117370 -0.0212406670 -1 0
-0.2038127420 -0.0244243290 -1 0
-0.2033793650 -0.0276193670 -1 0
-0.2029135310 -0.0305196720 -1 -1
-0.2024204080 -0.0328433300 -1 -1
-0.2019078300 -0.0343622260 -1 -1
-0.2013857880 -0.0349259950 -1 -1
-0.2008671540 -0.0344774070 -1 -1
-0.2003678720 -0.0330578890 -1 -1
-0.1999047090 -0.0308023100 -1 -1
-0.1994915250 -0.0279234950 -1 0
-0.1991369880 -0.0246899610 -1 0
-0.1988457740 -0.0214004540 -1 0
-0.1986220990 -0.0183562740 -1 0
-0.1984721500 -0.0158329360 -1 0
-0.1984030480 -0.0140546240 -1 0
-0.1984189020 -0.0131737430 -1 0
-0.1985167560 -0.0132564700 -1 0
-0.1986855390 -0.0142761460 -1 0
-0.1989083160 -0.0161155420 -1 0
-0.1991650860 -0.0185761850 -1 0
-0.1994342850 -0.0213934670 -1 0
-0.1996939620 -0.0242598170 -1 0
-0.1999239020 -0.0268573330 -1 0
-0.2001080350 -0.0288953260 -1 0
-0.2002357310 -0.0301449190 -1 -1
-0.2003021960 -0.0304646820 -1 -1
-0.2003097900 -0.0298137400 -1 0
-0.2002705610 -0.0282515770 -1 0
-0.2002068400 -0.0259272880 -1 0
-0.2001460690 -0.0230619420 -1 0
-0.2001097140 -0.0199258110 -1 0
-0.2001008430 -0.0168118590 -1 0
-0.2000972860 -0.0140085260 -1 0
-0.2000551800 -0.0117751770 -1 0
-0.1999221140 -0.0103213700 -1 0
-0.1996541990 -0.0097888650 -1 0
-0.1992301680 -0.0102363310 -1 0
-0.1986573790 -0.0116302670 -1 0
-0.1979684940 -0.0138462580 -1 0
-0.1972121040 -0.0166811570 -1 0
-0.1964424790 -0.0198737980 -1 0
-0.1957115970 -0.0231314490 -1 0
-0.1950629820 -0.0261592450 -1 0
-0.1945254180 -0.0286887750 -1 0
-0.1941069230 -0.0305012870 -1 -1
-0.1937931940 -0.0314437800 -1 -1
-0.1935546740 -0.0314403080 -1 -1
-0.1933598510 -0.0305002660 -1 -1
-0.1931862450 -0.0287215680 -1 0
-0.1930228390 -0.0262851520 -1 0
-0.1928657210 -0.0234391030 -1 0
-0.1927137540 -0.0204732910 -1 0
-0.1925687270 -0.0176878190 -1 0
-0.1924379170 -0.0153607300 -1 0
-0.1923335650 -0.0137206730 -1 0
-0.1922675530 -0.0129274750 -1 0
-0.1922457030 -0.0130604380 -1 0
-0.1922665200 -0.0141132600 -1 0
-0.1923233030 -0.0159944190 -1 0
-0.1924048070 -0.0185328980 -1 0
-0.1924928510 -0.0214910280 -1 0
-0.1925603630 -0.0245854890 -1 0
-0.1925737350 -0.0275142180 -1 0
-0.1924996190 -0.0299855530 -1 0
-0.1923130610 -0.0317469500 -1 -1
-0.1920032010 -0.0326120380 -1 -1
-0.1915738290 -0.0324840930 -1 -1
-0.1910396080 -0.0313709800 -1 -1
-0.1904228470 -0.0293860550 -1 0
-0.1897540190 -0.0267344260 -1 0
-0.1890736210 -0.0236889380 -1 0
-0.1884310920 -0.0205607580 -1 0
-0.1878791370 -0.0176681180 -1 0
-0.1874650460 -0.0153055400 -1 0
-0.1872222660 -0.0137149750 -1 0
-0.1871650780 -0.0130607350 -1 0
-0.1872870730 -0.0134120650 -1 0
-0.1875629810 -0.0147374650 -1 0
-0.1879530110 -0.0169114840 -1 0
-0.1884075940 -0.0197308660 -1 0
-0.1888707000 -0.0229360280 -1 0
-0.1892825750 -0.0262348410 -1 0
-0.1895841150 -0.0293271880 -1 0
-0.1897238930 -0.0319303820 -1 -1
