-0.0207131500 0.0140692530 0 0
-0.0210665940 0.0136888860 0 0
-0.0214073530 0.0127074620 0 0
-0.0217187710 0.0112198710 0 0
-0.0219864960 0.0093763750 0 0
-0.0222026310 0.0073680010 0 0
-0.0223653200 0.0054030690 0 0
-0.0224743230 0.0036809970 0 0
-0.0225266370 0.0023694160 0 0
-0.0225158420 0.0015893860 0 0
-0.0224353100 0.0014102040 0 0
-0.0222830960 0.0018501810 0 0
-0.0220663560 0.0028785190 0 0
-0.0218038290 0.0044168200 0 0
-0.0215253280 0.0063413660 0 0
-0.0212677460 0.0084876690 0 0
-0.0210684540 0.0106588630 0 0
-0.0209587160 0.0126401690 0 0
-0.0209595570 0.0142208970 0 0
-0.0210793510 0.0152214720 0 0
-0.0213108790 0.0155187300 0 0
-0.0216284390 0.0150628240 0 0
-0.0219882360 0.0138834260 0 0
-0.0223341160 0.0120871250 0 0
-0.0226074720 0.0098480710 0 0
-0.0227580770 0.0073914510 0 0
-0.0227529460 0.0049690020 0 0
-0.0225816710 0.0028290490 0 0
-0.0222576280 0.0011865700 0 0
-0.0218155210 0.0001982010 0 0
-0.0213065100 -0.0000550129 0 0
-0.0207915670 0.0004252160 0 0
-0.0203332310 0.0015587230 0 0
-0.0199866930 0.0032008390 0 0
-0.0197917330 0.0051621210 0 0
-0.0197666260 0.0072305870 0 0
-0.0199051010 0.0091935540 0 0
-0.0201778030 0.0108566990 0 0
-0.0205386410 0.0120601070 0 0
-0.0209342220 0.0126923530 0 0
-0.0213132270 0.0127012570 0 0
-0.0216333660 0.0120980120 0 0
-0.0218653030 0.0109536410 0 0
-0.0219939850 0.0093902270 0 0
-0.0220181680 0.0075697380 0 0
-0.0219486240 0.0056804690 0 0
-0.0218049770 0.0039191790 0 0
-0.0216112000 0.0024696000 0 0
-0.0213908510 0.0014818170 0 0
-0.0211637890 0.0010565030 0 0
-0.0209452010 0.0012354190 0 0
-0.0207461360 0.0019989320 0 0
-0.0205744630 0.0032706260 0 0
-0.0204354730 0.0049271320 0 0
-0.0203315960 0.0068107780 0 0
-0.0202617640 0.0087442260 0 0
-0.0202216680 0.0105473910 0 0
-0.0202047790 0.0120548890 0 0
-0.0202023140 0.0131296310 0 0
-0.0202011520 0.0136706670 0 0
-0.0201816300 0.0136183250 0 0
-0.0201184110 0.0129603910 0 0
-0.0199849790 0.0117392560 0 0
-0.0197596280 0.0100557610 0 0
-0.0194314040 0.0080639610 0 0
-0.0190051690 0.0059545910 0 0
-0.0185039030 0.0039315270 0 0
-0.0179669360 0.0021885060 0 0
-0.0174447450 0.0008904400 0 0
-0.0169911930 0.0001592610 0 0
-0.0166542920 0.0000630439 0 0
-0.0164681300 0.0006087220 0 0
-0.0164486100 0.0017397290 0 0
-0.0165935070 0.0033395880 0 0
-0.0168850330 0.0052421770 0 0
-0.0172925810 0.0072485840 0 0
-0.0177753780 0.0091484520 0 0
-0.0182868130 0.0107424560 0 0
-0.0187816440 0.0118632490 0 0
-0.0192247660 0.0123931910 0 0
-0.0195981560 0.0122771790 0 0
-0.0199026610 0.0115279870 0 0
-0.0201536430 0.0102224300 0 0
-0.0203726990 0.0084903810 0 0
-0.0205791810 0.0065007800 0 0
-0.0207840100 0.0044463400 0 0
-0.0209864870 0.0025261540 0 0
-0.0211745770 0.0009270740 0 0
-0.0213285740 -0.0001929860 0 0
-0.0214265980 -0.0007184290 0 0
-0.0214501310 -0.0005874010 0 0
-0.0213891620 0.0001989000 0 0
-0.0212471610 0.0015727180 0 0
-0.0210446460 0.0034052840 0 0
-0.0208188680 0.0055208250 0 0
-0.0206186330 0.0077155470 0 0
-0.0204957360 0.0097780390 0 0
-0.0204949950 0.0115091770 0 0
-0.0206447990 0.0127406390 0 0
-0.0209507170 0.0133511980 0 0
-0.0213943960 0.0132795240 0 0
-0.0219379090 0.0125308080 0 0
-0.0225315550 0.0111749160 0 0
-0.0231223460 0.0093377180 0 0
-0.0236611180 0.0071893730 0 0
-0.0241077420 0.0049305020 0 0
-0.0244352410 0.0027745440 0 0
-0.0246331520 0.0009259060 0 0
-0.0247087710 -0.0004435370 0 0
-0.0246847020 -0.0012142460 0 0
-0.0245931780 -0.0013293170 0 0
-0.0244696790 -0.0007933510 0 0
-0.0243483840 0.0003362690 0 0
-0.0242596040 0.0019594280 0 0
-0.0242275040 0.0039410990 0 0
-0.0242669750 0.0061176870 0 0
-0.0243805060 0.0083050720 0 0
-0.0245569450 0.0103107680 0 0
-0.0247730390 0.0119498920 0 0
-0.0249969300 0.0130627820 0 0
-0.0251924580 0.0135325690 0 0
-0.0253240150 0.0133016010 0 0
-0.0253619560 0.0123842490 0 0
-0.0252873320 0.0108721120 0 0
-0.0250941750 0.0089283130 0 0
-0.0247889680 0.0067702030 0 0
-0.0243886260 0.0046430900 0 0
-0.0239179950 0.0027900630 0 0
-0.0234064940 0.0014234900 0 0
-0.0228834030 0.0007022350 0 0
-0.0223728790 0.0007164770 0 0
-0.0218909930 0.0014802580 0 0
-0.0214459970 0.0029309790 0 0
-0.0210409750 0.0049353530 0 0
-0.0206769280 0.0073017610 0 0
-0.0203546950 0.0097985190 0 0
-0.0200753000 0.0121769940 0 0
-0.0198392630 0.0141979500 0 0
-0.0196458930 0.0156578760 0 0
-0.0194933900 0.0164103830 0 0
-0.0193794340 0.0163789880 0 0
-0.0193007460 0.0155617090 0 0
-0.0192510900 0.0140302120 0 0
-0.0192194830 0.0119235500 0 0
-0.0191906710 0.0094343730 0 0
-0.0191475310 0.0067889040 0 0
-0.0190730740 0.0042247720 0 0
-0.0189509420 0.0019689280 0 0
-0.0187657330 0.0002163570 0 0
-0.0185048710 -0.0008888850 0 0
-0.0181617560 -0.0012684250 0 0
-0.0177388840 -0.0009179980 0 0
-0.0172500620 0.0000927653 0 0
-0.0167206820 0.0016296920 0 0
-0.0161846530 0.0035105260 0 0
-0.0156784030 0.0055254410 0 0
-0.0152351350 0.0074586320 0 0
-0.0148823850 0.0091080340 0 0
-0.0146423510 0.0103013500 0 0
-0.0145316570 0.0109088210 0 0
-0.0145583040 0.0108537870 0 0
-0.0147167770 0.0101208960 0 0
-0.0149847810 0.0087605700 0 0
-0.0153253530 0.0068881430 0 0
-0.0156948930 0.0046769560 0 0
-0.0160533360 0.0023448020 0 0
-0.0163716730 0.0001329770 0 0
-0.0166349400 -0.0017202770 0 0
-0.0168418900 -0.0030070050 0 0
-0.0170025330 -0.0035728000 0 0
-0.0171334280 -0.0033337960 0 0
-0.0172514780 -0.0022856080 0 0
-0.0173688010 -0.0005025660 0 0
-0.0174911010 0.0018722300 0 0
-0.0176196840 0.0046427590 0 0
-0.0177551350 0.0075787490 0 0
-0.0179002790 0.0104358640 0 0
-0.0180605840 0.0129770200 0 0
-0.0182412960 0.0149937430 0 0
-0.0184427170 0.0163250930 0 0
-0.0186568850 0.0168712350 0 0
-0.0188679160 0.0166006410 0 0
-0.0190551890 0.0155522890 0 0
-0.0191972280 0.0138340750 0 0
-0.0192752510 0.0116160310 0 0
-0.0192762110 0.0091158770 0 0
-0.0191950140 0.0065771980 0 0
-0.0190356250 0.0042444450 0 0
-0.0188109240 0.0023394030 0 0
-0.0185411640 0.0010408400 0 0
-0.0182516300 0.0004671920 0 0
-0.0179706930 0.0006636530 0 0
-0.0177282990 0.0015967910 0 0
-0.0175531080 0.0031589410 0 0
-0.0174672850 0.0051820080 0 0
-0.0174807670 0.0074574400 0 0
-0.0175881230 0.0097583450 0 0
-0.0177695400 0.0118611980 0 0
-0.0179948570 0.0135657220 0 0
-0.0182282920 0.0147119660 0 0
-0.0184318490 0.0151943260 0 0
-0.0185669820 0.0149723290 0 0
-0.0185961390 0.0140767820 0 0
-0.0184859720 0.0126087150 0 0
-0.0182120580 0.0107286610 0 0
-0.0177637060 0.0086361630 0 0
-0.0171476840 0.0065432460 0 0
-0.0163903090 0.0046484210 0 0
-0.0155374200 0.0031169980 0 0
-0.0146515410 0.0020688380 0 0
-0.0138055350 0.0015702540 0 0
-0.0130729750 0.0016277840 0 0
-0.0125171510 0.0021858320 0 0
-0.0121817260 0.0031311520 0 0
-0.0120851940 0.0043045160 0 0
-0.0122189070 0.0055174310 0 0
-0.0125472650 0.0065706320 0 0
-0.0130102870 0.0072722390 0 0
-0.0135303170 0.0074560730 0 0
-0.0140231160 0.0070003690 0 0
-0.0144102730 0.0058436870 0 0
-0.0146283750 0.0039937800 0 0
-0.0146324330 0.0015283810 0 0
-0.0143953650 -0.0014107870 0 0
-0.0139079390 -0.0046303000 0 0
-0.0131812810 -0.0079042950 0 0
-0.0122493390 -0.0110003090 0 0
-0.0111671900 -0.0137073890 0 0
-0.0100043320 -0.0158599010 0 0
-0.0088358630 -0.0173529790 0 0
-0.0077343050 -0.0181488800 0 0
-0.0067622300 -0.0182749290 0 0
-0.0059650400 -0.0178149600 0 0
-0.0053649570 -0.0168970100 0 0
-0.0049588310 -0.0156800110 0 0
-0.0047216990 -0.0143417580 0 0
-0.0046146690 -0.0130692070 0 0
-0.0045926360 -0.0120501620 0 0
-0.0046083180 -0.0114631740 0 0
-0.0046130640 -0.0114624870 0 0
-0.0045572920 -0.0121580900 0 0
-0.0043930490 -0.0135952220 0 0
-0.0040794600 -0.0157399050 0 0
-0.0035898160 -0.0184754030 0 0
-0.0029177280 -0.0216113160 0 0
-0.0020797040 -0.0249047770 0 0
-0.0011130510 -0.0280904400 0 0
-0.0000707088 -0.0309127200 0 -1
0.0009839830 -0.0331539870 0 -1
0.0019817640 -0.0346561230 0 -1
0.0028532400 -0.0353346070 0 -1
0.0035373660 -0.0351834810 0 -1
0.0039904330 -0.0342709810 0 -1
0.0041916380 -0.0327288330 0 -1
0.0041435020 -0.0307384140 0 -1
0.0038689240 -0.0285146390 0 0
0.0034075670 -0.0262875400 0 0
0.0028115500 -0.0242825790 0 0
0.0021388350 -0.0227013010 0 0
0.0014452200 -0.0217033460 0 0
0.0007781140 -0.0213905840 0 0
0.0001740520 -0.0217951980 0 0
-0.0003402150 -0.0228741450 0 0
-0.0007443720 -0.0245122400 0 0
-0.0010209090 -0.0265344660 0 0
-0.0011533570 -0.0287250550 0 0
-0.0011279030 -0.0308497450 0 -1
-0.0009382910 -0.0326794450 0 -1
-0.0005920400 -0.0340144620 0 -1
-0.0001150660 -0.0347070540 0 -1
0.0004475570 -0.0346784570 0 -1
0.0010356130 -0.0339267660 0 -1
0.0015819810 -0.0325245620 0 -1
0.0020235490 -0.0306079540 0 -1
0.0023125550 -0.0283601660 0 0
0.0024255200 -0.0259928920 0 0
0.0023673490 -0.0237274380 0 0
0.0021696490 -0.0217764230 0 0
0.0018835340 -0.0203266740 0 0
0.0015684480 -0.0195241920 0 0
0.0012800010 -0.0194615280 0 0
0.0010603360 -0.0201677580 0 0
0.0009331190 -0.0216030060 0 0
0.0009031930 -0.0236600090 0 0
0.0009592720 -0.0261732050 0 0
0.0010774970 -0.0289342930 0 0
0.0012248180 -0.0317124580 0 -1
0.0013627990 -0.0342766590 0 -1
0.0014530710 -0.0364175170 0 -1
0.0014645040 -0.0379671350 0 -1
0.0013799650 -0.0388147120 0 -1
0.0011996670 -0.0389157750 0 -1
0.0009396190 -0.0382949500 0 -1
0.0006260700 -0.0370441670 0 -1
0.0002881780 -0.0353165730 0 -1
-0.0000488892 -0.0333135680 0 -1
-0.0003690140 -0.0312631500 0 -1
-0.0006673480 -0.0293916500 0 0
-0.0009486160 -0.0278944880 0 0
-0.0012210800 -0.0269128150 0 0
-0.0014881180 -0.0265206390 0 0
-0.0017415590 -0.0267223220 0 0
-0.0019592890 -0.0274579060 0 0
-0.0021065340 -0.0286143450 0 0
-0.0021402350 -0.0300407060 0 -1
-0.0020170530 -0.0315645660 0 -1
-0.0017040860 -0.0330075780 0 -1
-0.0011889580 -0.0341994730 0 -1
-0.0004855690 -0.0349900010 0 -1
0.0003660520 -0.0352593370 0 -1
0.0013050200 -0.0349293920 0 -1
0.0022583300 -0.0339773490 0 -1
0.0031512540 -0.0324478570 0 -1
0.0039178750 -0.0304569830 0 -1
0.0045103180 -0.0281829250 0 0
0.0049047790 -0.0258444370 0 0
0.0051028070 -0.0236727220 0 0
0.0051280420 -0.0218832550 0 0
0.0050197570 -0.0206519470 0 0
0.0048246220 -0.0200979090 0 0
0.0045882130 -0.0202737540 0 0
0.0043483550 -0.0211634880 0 0
0.0041319340 -0.0226870010 0 0
0.0039550150 -0.0247091820 0 0
0.0038249980 -0.0270519850 0 0
0.0037437810 -0.0295090850 0 0
0.0037105870 -0.0318632610 0 -1
0.0037233590 -0.0339059280 0 -1
0.0037791570 -0.0354571490 0 -1
0.0038741560 -0.0363834360 0 -1
0.0040025930 -0.0366099840 0 -1
0.0041542800 -0.0361251330 0 -1
0.0043121830 -0.0349774240 0 -1
0.0044522410 -0.0332682670 0 -1
0.0045460630 -0.0311432460 0 -1
0.0045654450 -0.0287824640 0 0
0.0044875150 -0.0263889560 0 0
0.0042996180 -0.0241744530 0 0
0.0040028060 -0.0223415300 0 0
0.0036126160 -0.0210619220 0 0
0.0031571050 -0.0204542870 0 0
0.0026737270 -0.0205673340 0 0
0.0022061860 -0.0213725650 0 0
0.0018006280 -0.0227672880 0 0
0.0015006030 -0.0245868880 0 0
0.0013416560 -0.0266250980 0 0
0.0013467320 -0.0286596790 0 0
0.0015229240 -0.0304790120 0 -1
0.0018599080 -0.0319044300 0 -1
0.0023303640 -0.0328046870 0 -1
0.0028924180 -0.0331024470 0 -1
0.0034941290 -0.0327753930 0 -1
0.0040797510 -0.0318546610 0 -1
0.0045964870 -0.0304219260 0 -1
0.0049998060 -0.0286047160 0 0
0.0052561490 -0.0265681820 0 0
0.0053438530 -0.0245026330 0 0
0.0052537480 -0.0226082300 0 0
0.0049898250 -0.0210780330 0 0
0.0045695570 -0.0200795470 0 0
0.0040236480 -0.0197360330 0 0
0.0033946490 -0.0201103350 0 0
0.0027336010 -0.0211940840 0 0
0.0020947650 -0.0229044680 0 0
0.0015295480 -0.0250901070 0 0
0.0010806870 -0.0275464670 0 0
0.0007772520 -0.0300389080 0 -1
0.0006310230 -0.0323290710 0 -1
0.0006351740 -0.0342003600 0 -1
0.0007661600 -0.0354804160 0 -1
0.0009889970 -0.0360596690 0 -1
0.0012643840 -0.0359038960 0 -1
0.0015542370 -0.0350575000 0 -1
0.0018231200 -0.0336365090 0 -1
0.0020372060 -0.0318145530 0 -1
0.0021646860 -0.0298052970 0 0
0.0021796570 -0.0278414370 0 0
0.0020683470 -0.0261500500 0 0
0.0018346720 -0.0249271440 0 0
0.0015019340 -0.0243156520 0 0
0.0011093130 -0.0243899590 0 0
0.0007049530 -0.0251487970 0 0
0.0003392930 -0.0265168270 0 0
0.0000605723 -0.0283533970 0 0
-0.0000882206 -0.0304666740 0 -1
-0.0000725503 -0.0326327240 0 -1
0.0001293540 -0.0346194180 0 -1
0.0005214550 -0.0362130300 0 -1
0.0010865540 -0.0372431320 0 -1
0.0017870430 -0.0376011460 0 -1
0.0025690440 -0.0372494980 0 -1
0.0033675200 -0.0362208540 0 -1
0.0041120030 -0.0346095840 0 -1
0.0047340360 -0.0325592960 0 -1
0.0051756880 -0.0302492880 0 -1
0.0053964640 -0.0278800170 0 0
0.0053769230 -0.0256564720 0 0
0.0051195410 -0.0237698440 0 0
0.0046480580 -0.0223799850 0 0
0.0040059000 -0.0216014370 0 0
0.0032531730 -0.0214943750 0 0
0.0024607530 -0.0220603470 0 0
0.0017006810 -0.0232422450 0 0
0.0010350490 -0.0249283680 0 0
0.0005080450 -0.0269611320 0 0
0.0001446580 -0.0291509750 0 0
-0.0000452947 -0.0312944100 0 -1
-0.0000630043 -0.0331926100 0 -1
0.0000802460 -0.0346664740 0 -1
0.0003621670 -0.0355673560 0 -1
0.0007495650 -0.0357869880 0 -1
0.0012010640 -0.0352701790 0 -1
0.0016726800 -0.0340284190 0 -1
0.0021246760 -0.0321481390 0 -1
0.0025271600 -0.0297879410 0 0
0.0028630290 -0.0271627010 0 0
0.0031284130 -0.0245171090 0 0
0.0033312320 -0.0220958750 0 0
0.0034880750 -0.0201180770 0 0
0.0036200130 -0.0187583590 0 0
0.0037490230 -0.0181330240 0 0
0.0038969580 -0.0182886640 0 0
0.0040870010 -0.0191947600 0 0
0.0043446660 -0.0207447920 0 0
0.0046948640 -0.0227683000 0 0
0.0051548360 -0.0250517990 0 0
0.0057265680 -0.0273641270 0 0
0.0063929180 -0.0294815240 0 0
0.0071197900 -0.0312087030 0 -1
0.0078636560 -0.0323941670 0 -1
0.0085804400 -0.0329396740 0 -1
0.0092311620 -0.0328054900 0 -1
0.0097830760 -0.0320135540 0 -1
0.0102089680 -0.0306484760 0 -1
0.0104882770 -0.0288533170 0 0
0.0106109490 -0.0268179370 0 0
0.0105810890 -0.0247608500 0 0
0.0104169910 -0.0229064850 0 0
0.0101476210 -0.0214602400 0 0
0.0098080350 -0.0205851670 0 0
0.0094357320 -0.0203831280 0 0
0.0090684880 -0.0208814170 0 0
0.0087427200 -0.0220273410 0 0
0.0084908110 -0.0236943010 0 0
0.0083374540 -0.0256993080 0 0
0.0082966640 -0.0278274870 0 0
0.0083709060 -0.0298580700 0 0
0.0085524660 -0.0315874930 0 -1
0.0088262580 -0.0328472440 0 -1
0.0091729400 -0.0335165580 0 -1
0.0095711460 -0.0335313820 0 -1
0.0099981940 -0.0328904270 0 -1
0.0104301950 -0.0316574730 0 -1
0.0108432230 -0.0299568500 0 0
0.0112152910 -0.0279587750 0 0
0.0115270600 -0.0258558530 0 0
0.0117607510 -0.0238379310 0 0
0.0118997470 -0.0220730310 0 0
0.0119313490 -0.0206972120 0 0
0.0118517680 -0.0198113920 0 0
0.0116704880 -0.0194811750 0 0
0.0114115360 -0.0197353360 0 0
0.0111103920 -0.0205605260 0 0
0.0108071230 -0.0218940840 0 0
0.0105384050 -0.0236204420 0 0
0.0103311910 -0.0255767380 0 0
0.0101987560 -0.0275690890 0 0
0.0101387230 -0.0293952430 0 0
0.0101337360 -0.0308670480 0 -1
0.0101554440 -0.0318285280 0 -1
0.0101705440 -0.0321695250 0 -1
0.0101470630 -0.0318374580 0 -1
0.0100603040 -0.0308479030 0 -1
0.0098977850 -0.0292903750 0 0
0.0096610000 -0.0273238360 0 0
0.0093621490 -0.0251596920 0 0
0.0090174060 -0.0230355540 0 0
0.0086407070 -0.0211865680 0 0
0.0082404640 -0.0198203530 0 0
0.0078190950 -0.0190974190 0 0
0.0073749330 -0.0191155520 0 0
0.0069063240 -0.0198980650 0 0
0.0064168090 -0.0213887840 0 0
0.0059193150 -0.0234562470 0 0
0.0054375440 -0.0259067000 0 0
0.0050040780 -0.0285036530 0 0
0.0046562550 -0.0309915450 0 -1
0.0044309340 -0.0331215260 0 -1
0.0043585270 -0.0346770870 0 -1
0.0044572600 -0.0354967070 0 -1
0.0047294100 -0.0354910670 0 -1
0.0051602480 -0.0346535070 0 -1
0.0057192120 -0.0330627150 0 -1
0.0063632600 -0.0308766310 0 -1
0.0070421900 -0.0283175710 0 0
0.0077042890 -0.0256495870 0 0
0.0083010820 -0.0231498950 0 0
0.0087912080 -0.0210785160 0 0
0.0091434090 -0.0196514230 0 0
0.0093384030 -0.0190198220 0 0
0.0093697180 -0.0192554560 0 0
0.0092434960 -0.0203427070 0 0
0.0089772560 -0.0221802530 0 0
0.0085986280 -0.0245941780 0 0
0.0081451800 -0.0273602670 0 0
0.0076640480 -0.0302294120 0 -1
0.0072080610 -0.0329506600 0 -1
0.0068276530 -0.0352902290 0 -1
0.0065626120 -0.0370476440 0 -1
0.0064381230 -0.0380704070 0 -1
0.0064649320 -0.0382673340 0 -1
0.0066403340 -0.0376192450 0 -1
0.0069480860 -0.0361848360 0 -1
0.0073583260 -0.0340992270 0 -1
0.0078299790 -0.0315632670 0 -1
0.0083168510 -0.0288231540 0 0
0.0087757550 -0.0261429470 0 0
0.0091738420 -0.0237759270 0 0
0.0094933470 -0.0219403250 0 0
0.0097329070 -0.0208005040 0 0
0.0099048470 -0.0204522280 0 0
0.0100290660 -0.0209127630 0 0
0.0101259630 -0.0221188250 0 0
0.0102112250 -0.0239338490 0 0
0.0102932440 -0.0261626450 0 0
0.0103718780 -0.0285703460 0 0
0.0104380740 -0.0309040410 0 -1
0.0104753910 -0.0329166580 0 -1
0.0104634580 -0.0343912810 0 -1
0.0103814600 -0.0351625500 0 -1
0.0102097710 -0.0351322420 0 -1
0.0099300240 -0.0342772220 0 -1
0.0095260410 -0.0326487650 0 -1
0.0089872840 -0.0303636700 0 -1
0.0083135230 -0.0275890300 0 0
0.0075176450 -0.0245233110 0 0
0.0066247680 -0.0213770820 0 0
0.0056688500 -0.0183565260 0 0
0.0046896430 -0.0156504840 0 0
0.0037309670 -0.0134182210 0 0
0.0028387010 -0.0117747520 0 0
0.0020570730 -0.0107752850 0 0
0.0014239740 -0.0104050360 0 0
0.0009669570 -0.0105796470 0 0
0.0007006710 -0.0111570650 0 0
0.0006257080 -0.0119579760 0 0
0.0007294220 -0.0127897370 0 0
0.0009891480 -0.0134684750 0 0
0.0013763950 -0.0138365590 0 0
0.0018596020 -0.0137752480 0 0
0.0024048060 -0.0132127080 0 0
0.0029756350 -0.0121275560 0 0
0.0035341130 -0.0105489520 0 0
0.0040428970 -0.0085543230 0 0
0.0044689220 -0.0062647940 0 0
0.0047872770 -0.0038371960 0 0
0.0049831490 -0.0014512200 0 0
0.0050512060 0.0007082920 0 0
0.0049943070 0.0024717010 0 0
0.0048229430 0.0037038010 0 0
0.0045551260 0.0043180840 0 0
0.0042163090 0.0042837510 0 0
0.0038388100 0.0036264560 0 0
0.0034596040 0.0024254340 0 0
0.0031162630 0.0008075630 0 0
0.0028422340 -0.0010627440 0 0
0.0026627190 -0.0029973670 0 0
0.0025918490 -0.0048004070 0 0
0.0026316710 -0.0062853370 0 0
0.0027732420 -0.0072928790 0 0
0.0029991000 -0.0077084890 0 0
0.0032860630 -0.0074771330 0 0
0.0036078400 -0.0066115090 0 0
0.0039371190 -0.0051901320 0 0
0.0042470200 -0.0033451590 0 0
0.0045127130 -0.0012447130 0 0
0.0047140970 0.0009233890 0 0
0.0048391380 0.0029628030 0 0
0.0048862300 0.0046770600 0 0
0.0048644940 0.0058809280 0 0
0.0047925040 0.0064179440 0 0
0.0046961030 0.0061819250 0 0
0.0046050820 0.0051367340 0 0
0.0045487220 0.0033285290 0 0
0.0045515940 0.0008866250 0 0
0.0046310890 -0.0019885310 0 0
0.0047964360 -0.0050491040 0 0
0.0050480870 -0.0080309740 0 0
0.0053770090 -0.0106856170 0 0
0.0057641440 -0.0128069910 0 0
0.0061811030 -0.0142510630 0 0
0.0065936400 -0.0149480810 0 0
0.0069679730 -0.0149070170 0 0
0.0072777910 -0.0142109130 0 0
0.0075094750 -0.0130042430 0 0
0.0076642300 -0.0114760300 0 0
0.0077569840 -0.0098409650 0 0
0.0078123830 -0.0083183730 0 0
0.0078587940 -0.0071101700 0 0
0.0079222260 -0.0063815560 0 0
0.0080219820 -0.0062472710 0 0
0.0081684220 -0.0067630800 0 0
0.0083622190 -0.0079212440 0 0
0.0085947580 -0.0096501700 0 0
0.0088498570 -0.0118201320 0 0
0.0091069310 -0.0142566730 0 0
0.0093455130 -0.0167599470 0 0
0.0095507530 -0.0191258650 0 0
0.0097180140 -0.0211660680 0 0
0.0098535210 -0.0227254400 0 0
0.0099699170 -0.0236962020 0 0
0.0100793950 -0.0240274730 0 0
0.0101886910 -0.0237291880 0 0
0.0102977160 -0.0228700780 0 0
0.0104006470 -0.0215706990 0 0
0.0104880190 -0.0199922060 0 0
0.0105489010 -0.0183209880 0 0
0.0105724470 -0.0167502190 0 0
0.0105491530 -0.0154610850 0 0
0.0104730220 -0.0146072220 0 0
0.0103445850 -0.0143043620 0 0
0.0101723570 -0.0146237410 0 0
0.0099705400 -0.0155865570 0 0
0.0097541330 -0.0171585200 0 0
0.0095349380 -0.0192466850 0 0
0.0093202990 -0.0217026480 0 0
0.0091139200 -0.0243337860 0 0
0.0089175110 -0.0269199120 0 0
0.0087321300 -0.0292323630 0 0
0.0085584740 -0.0310549890 0 -1
0.0083963420 -0.0322073480 0 -1
0.0082444880 -0.0325686570 0 -1
0.0081018610 -0.0320979710 0 -1
0.0079693370 -0.0308442520 0 -1
0.0078498430 -0.0289422040 0 0
0.0077464630 -0.0265947790 0 0
0.0076602030 -0.0240475450 0 0
0.0075884540 -0.0215608220 0 0
0.0075239040 -0.0193834210 0 0
0.0074536410 -0.0177294130 0 0
0.0073590290 -0.0167578160 0 0
0.0072180330 -0.0165556890 0 0
0.0070113150 -0.0171276500 0 0
0.0067306910 -0.0183956830 0 0
0.0063860380 -0.0202104500 0 0
0.0060070520 -0.0223714140 0 0
0.0056386690 -0.0246510370 0 0
0.0053317470 -0.0268193530 0 0
0.0051321770 -0.0286665190 0 0
0.0050713290 -0.0300205970 0 -1
0.0051596360 -0.0307593550 0 -1
0.0053839820 -0.0308178840 0 -1
0.0057093710 -0.0301938400 0 -1
0.0060852510 -0.0289497120 0 0
0.0064551730 -0.0272105820 0 0
0.0067667710 -0.0251558610 0 0
0.0069795640 -0.0230041240 0 0
0.0070694820 -0.0209917120 0 0
0.0070298670 -0.0193473800 0 0
0.0068695400 -0.0182661660 0 0
0.0066091620 -0.0178859970 0 0
0.0062772110 -0.0182703580 0 0
0.0059068250 -0.0193997590 0 0
0.0055342050 -0.0211734130 0 0
0.0051976940 -0.0234208040 0 0
0.0049359810 -0.0259212550 0 0
0.0047850560 -0.0284286310 0 0
0.0047740670 -0.0306982650 0 -1
0.0049196270 -0.0325134660 0 -1
0.0052188320 -0.0337084090 0 -1
0.0056433050 -0.0341834390 0 -1
0.0061379910 -0.0339102080 0 -1
0.0066280200 -0.0329280010 0 -1
0.0070333420 -0.0313352500 0 -1
0.0072857160 -0.0292787130 0 0
0.0073410640 -0.0269400350 0 0
0.0071838980 -0.0245191470 0 0
0.0068249210 -0.0222162200 0 0
0.0062950050 -0.0202154380 0 0
0.0056391760 -0.0186724840 0 0
0.0049131120 -0.0177047960 0 0
0.0041817780 -0.0173830700 0 0
0.0035175260 -0.0177239870 0 0
0.0029951530 -0.0186858120 0 0
0.0026834080 -0.0201690280 0 0
0.0026350360 -0.0220228210 0 0
0.0028790530 -0.0240571450 0 0
0.0034177060 -0.0260604830 0 0
0.0042273780 -0.0278230040 0 0
0.0052613540 -0.0291623000 0 0
0.0064534900 -0.0299464730 0 0
0.0077233650 -0.0301094250 0 -1
0.0089841290 -0.0296562680 0 0
0.0101530470 -0.0286599390 0 0
0.0111618380 -0.0272509660 0 0
0.0119634000 -0.0256020780 0 0
0.0125346900 -0.0239092860 0 0
0.0128775670 -0.0223705160 0 0
0.0130175860 -0.0211631090 0 0
0.0129992790 -0.0204232680 0 0
0.0128780980 -0.0202314510 0 0
0.0127111070 -0.0206061870 0 0
0.0125485530 -0.0215063770 0 0
0.0124280850 -0.0228398150 0 0
0.0123727650 -0.0244746080 0 0
0.0123922600 -0.0262513990 0 0
0.0124848560 -0.0279960770 0 0
0.0126385980 -0.0295333950 0 0
0.0128319410 -0.0307024620 0 -1
0.0130347240 -0.0313743390 0 -1
0.0132096780 -0.0314685810 0 -1
0.0133151350 -0.0309637280 0 -1
0.0133099080 -0.0298995660 0 0
0.0131600510 -0.0283724340 0 0
0.0128456580 -0.0265249690 0 0
0.0123653340 -0.0245308970 0 0
0.0117364880 -0.0225769440 0 0
0.0109913210 -0.0208452700 0 0
0.0101706050 -0.0194982740 0 0
0.0093178960 -0.0186654050 0 0
0.0084754810 -0.0184316490 0 0
0.0076822690 -0.0188284740 0 0
0.0069738010 -0.0198289730 0 0
0.0063837750 -0.0213489940 0 0
0.0059445570 -0.0232542000 0 0
0.0056838170 -0.0253715690 0 0
0.0056171670 -0.0275045330 0 0
0.0057404490 -0.0294518660 0 0
0.0060267340 -0.0310295470 0 -1
0.0064309630 -0.0320929180 0 -1
0.0069006440 -0.0325543290 0 -1
0.0073874720 -0.0323916890 0 -1
0.0078550490 -0.0316468610 0 -1
0.0082809160 -0.0304167590 0 -1
0.0086532680 -0.0288404160 0 0
0.0089639600 -0.0270828350 0 0
0.0092017690 -0.0253164900 0 0
0.0093504720 -0.0237045890 0 0
0.0093925920 -0.0223892770 0 0
0.0093154180 -0.0214826000 0 0
0.0091155920 -0.0210574830 0 0
0.0088010630 -0.0211407570 0 0
0.0083911390 -0.0217118340 0 0
0.0079156040 -0.0227066730 0 0
0.0074132180 -0.0240233940 0 0
0.0069291250 -0.0255275120 0 0
0.0065103630 -0.0270591120 0 0
0.0061993630 -0.0284453480 0 0
0.0060269920 -0.0295180920 0 0
0.0060072240 -0.0301336140 0 -1
0.0061344200 -0.0301912490 0 -1
0.0063832680 -0.0296484540 0 0
0.0067117220 -0.0285295910 0 0
0.0070669200 -0.0269264060 0 0
0.0073923920 -0.0249891330 0 0
0.0076346070 -0.0229086830 0 0
0.0077481940 -0.0208928970 0 0
0.0077007300 -0.0191413010 0 0
0.0074779380 -0.0178226370 0 0
0.0070886210 -0.0170580870 0 0
0.0065674830 -0.0169112520 0 0
0.0059734910 -0.0173847500 0 0
0.0053822320 -0.0184230560 0 0
0.0048736620 -0.0199209960 0 0
0.0045194110 -0.0217364410 0 0
0.0043734990 -0.0237046250 0 0
0.0044678790 -0.0256517740 0 0
0.0048115520 -0.0274074870 0 0
0.0053909460 -0.0288168190 0 0
0.0061701430 -0.0297530080 0 0
0.0070914750 -0.0301301370 0 -1
0.0080784240 -0.0299130950 0 0
0.0090423850 -0.0291216460 0 0
0.0098930310 -0.0278274080 0 0
0.0105503040 -0.0261460610 0 0
0.0109552940 -0.0242281410 0 0
0.0110776990 -0.0222491220 0 0
0.0109189520 -0.0203969430 0 0
0.0105117380 -0.0188551120 0 0
0.0099164710 -0.0177822700 0 0
0.0092136170 -0.0172930860 0 0
0.0084915910 -0.0174448060 0 0
0.0078331300 -0.0182297240 0 0
0.0073043650 -0.0195735200 0 0
0.0069488880 -0.0213417290 0 0
0.0067864360 -0.0233548760 0 0
0.0068149650 -0.0254090210 0 0
0.0070152950 -0.0272975900 0 0
0.0073572340 -0.0288319730 0 0
0.0078056030 -0.0298594530 0 0
0.0083250230 -0.0302768360 0 -1
0.0088833510 -0.0300383860 0 -1
0.0094544570 -0.0291589750 0 0
0.0100205970 -0.0277148110 0 0
0.0105732660 -0.0258412110 0 0
0.0111107690 -0.0237234550 0 0
0.0116324420 -0.0215785600 0 0
0.0121324000 -0.0196307790 0 0
0.0125965440 -0.0180861650 0 0
0.0130043960 -0.0171099390 0 0
0.0133343670 -0.0168083430 0 0
0.0135701130 -0.0172167970 0 0
0.0137059170 -0.0182970620 0 0
0.0137496140 -0.0199444240 0 0
0.0137224540 -0.0220026310 0 0
0.0136563370 -0.0242826230 0 0
0.0135890610 -0.0265817610 0 0
0.0135578550 -0.0287015260 0 0
0.0135917330 -0.0304626760 0 -1
0.0137044870 -0.0317179420 0 -1
0.0138907800 -0.0323633070 0 -1
0.0141268300 -0.0323485420 0 -1
0.0143752870 -0.0316851870 0 -1
0.0145923050 -0.0304469520 0 -1
0.0147343780 -0.0287591050 0 0
0.0147639050 -0.0267805090 0 0
0.0146540880 -0.0246851830 0 0
0.0143934000 -0.0226462890 0 0
0.0139886420 -0.0208228310 0 0
0.0134656460 -0.0193502510 0 0
0.0128677930 -0.0183348210 0 0
0.0122524220 -0.0178486880 0 0
0.0116844620 -0.0179228970 0 0
0.0112273820 -0.0185400160 0 0
0.0109337520 -0.0196308860 0 0
0.0108387100 -0.0210781930 0 0
0.0109580770 -0.0227264140 0 0
0.0112898850 -0.0243972930 0 0
0.0118161980 -0.0259101410 0 0
0.0125035470 -0.0271044900 0 0
0.0133032570 -0.0278602980 0 0
0.0141542780 -0.0281109620 0 0
0.0149895080 -0.0278472670 0 0
0.0157438050 -0.0271138960 0 0
0.0163610000 -0.0260016720 0 0
0.0167988000 -0.0246377210 0 0
0.0170315660 -0.0231734640 0 0
0.0170510720 -0.0217700580 0 0
0.0168657760 -0.0205828440 0 0
0.0164992760 -0.0197469890 0 0
0.0159876680 -0.0193655530 0 0
0.0153753540 -0.0195005770 0 0
0.0147100370 -0.0201665760 0 0
0.0140377740 -0.0213253020 0 0
0.0133980260 -0.0228833080 0 0
0.0128193620 -0.0246970580 0 0
0.0123180070 -0.0265885720 0 0
0.0118999370 -0.0283683420 0 0
0.0115648720 -0.0298584190 0 0
0.0113103120 -0.0309111100 0 -1
0.0111342200 -0.0314224660 0 -1
0.0110348780 -0.0313408380 0 -1
0.0110079330 -0.0306712180 0 -1
0.0110425340 -0.0294752980 0 0
0.0111186840 -0.0278652400 0 0
0.0112074690 -0.0259903290 0 0
0.0112756880 -0.0240191550 0 0
0.0112947130 -0.0221219640 0 0
0.0112504490 -0.0204567350 0 0
0.0111500990 -0.0191589980 0 0
0.0110228300 -0.0183331910 0 0
0.0109140380 -0.0180447250 0 0
0.0108759800 -0.0183134660 0 0
0.0109588110 -0.0191095750 0 0
0.0112038020 -0.0203532570 0 0
0.0116374460 -0.0219201320 0 0
0.0122653170 -0.0236524060 0 0
0.0130670130 -0.0253742300 0 0
0.0139951130 -0.0269096170 0 0
0.0149802060 -0.0281013360 0 0
0.0159413630 -0.0288280710 0 0
0.0167989580 -0.0290175470 0 0
0.0174864390 -0.0286553850 0 0
0.0179581370 -0.0277890680 0 0
0.0181913720 -0.0265248030 0 0
0.0181841210 -0.0250162560 0 0
0.0179515720 -0.0234472660 0 0
0.0175234100 -0.0220124720 0 0
0.0169413250 -0.0208989210 0 0
0.0162556590 -0.0202682650 0 0
0.0155203520 -0.0202373570 0 0
0.0147862070 -0.0208590650 0 0
0.0140943450 -0.0221103230 0 0
0.0134727160 -0.0238929630 0 0
0.0129368120 -0.0260465650 0 0
0.0124934750 -0.0283690440 0 0
0.0121458790 -0.0306406700 0 -1
0.0118974900 -0.0326474680 0 -1
0.0117527000 -0.0342009980 0 -1
0.0117132330 -0.0351541100 0 -1
0.0117719950 -0.0354134940 0 -1
0.0119080160 -0.0349489000 0 -1
0.0120857910 -0.0337975250 0 -1
0.0122599390 -0.0320618780 0 -1
0.0123833210 -0.0299006070 0 0
0.0124151940 -0.0275131390 0 0
0.0123271290 -0.0251200480 0 0
0.0121070090 -0.0229417080 0 0
0.0117616950 -0.0211774090 0 0
0.0113171980 -0.0199858660 0 0
0.0108156820 -0.0194686490 0 0
0.0103105800 -0.0196599500 0 0
0.0098606270 -0.0205251120 0 0
0.0095222290 -0.0219669160 0 0
0.0093410000 -0.0238369590 0 0
0.0093455060 -0.0259498580 0 0
0.0095451510 -0.0280987770 0 0
0.0099312280 -0.0300717410 0 -1
0.0104793680 -0.0316689600 0 -1
0.0111528430 -0.0327213700 0 -1
0.0119069640 -0.0331095340 0 -1
0.0126941680 -0.0327800800 0 -1
0.0134686810 -0.0317565120 0 -1
0.0141897960 -0.0301417310 0 -1
0.0148239320 -0.0281091820 0 0
0.0153458240 -0.0258811910 0 0
0.0157384830 -0.0236988530 0 0
0.0159917090 -0.0217916690 0 0
0.0161003360 -0.0203528150 0 0
0.0160641410 -0.0195210340 0 0
0.0158897690 -0.0193675610 0 0
0.0155927690 -0.0198885360 0 0
0.0151978500 -0.0210062200 0 0
0.0147373690 -0.0225806680 0 0
0.0142490690 -0.0244294790 0 0
0.0137739920 -0.0263512010 0 0
0.0133550340 -0.0281483600 0 0
0.0130355030 -0.0296469110 0 0
0.0128558800 -0.0307098020 0 -1
0.0128478630 -0.0312445730 0 -1
0.0130274690 -0.0312064980 0 -1
0.0133907790 -0.0305981850 0 -1
0.0139146900 -0.0294665130 0 0
0.0145617050 -0.0278986750 0 0
0.0152856890 -0.0260182360 0 0
0.0160362510 -0.0239799010 0 0
0.0167615990 -0.0219607140 0 0
0.0174111080 -0.0201464010 0 0
0.0179389370 -0.0187134270 0 0
0.0183083890 -0.0178084700 0 0
0.0184949890 -0.0175278610 0 0
0.0184867480 -0.0179019840 0 0
0.0182826260 -0.0188909340 0 0
0.0178918420 -0.0203930660 0 0
0.0173352430 -0.0222610970 0 0
0.0166470200 -0.0243198250 0 0
0.0158738260 -0.0263831150 0 0
0.0150701770 -0.0282693560 0 0
0.0142917820 -0.0298153880 0 0
0.0135895310 -0.0308893770 0 -1
0.0130054110 -0.0314019060 0 -1
0.0125694870 -0.0313134740 0 -1
0.0122969950 -0.0306373300 0 -1
0.0121868710 -0.0294385210 0 0
0.0122237610 -0.0278308820 0 0
0.0123829010 -0.0259710640 0 0
0.0126350970 -0.0240469110 0 0
0.0129496730 -0.0222607050 0 0
0.0132952030 -0.0208098200 0 0
0.0136394790 -0.0198656700 0 0
0.0139507650 -0.0195522630 0 0
0.0142012390 -0.0199289130 0 0
0.0143717060 -0.0209813950 0 0
0.0144555940 -0.0226222820 0 0
0.0144604950 -0.0246994840 0 0
0.0144068750 -0.0270118430 0 0
0.0143246200 -0.0293297020 0 0
0.0142481990 -0.0314173320 0 -1
0.0142114230 -0.0330548070 0 -1
0.0142428910 -0.0340592370 0 -1
0.0143623210 -0.0343058940 0 -1
0.0145777590 -0.0337466230 0 -1
0.0148845370 -0.0324203120 0 -1
0.0152663710 -0.0304510130 0 -1
0.0156971400 -0.0280321860 0 0
0.0161423540 -0.0253993920 0 0
0.0165618650 -0.0227981680 0 0
0.0169150110 -0.0204555110 0 0
0.0171665720 -0.0185600120 0 0
0.0172914880 -0.0172503690 0 0
0.0172780430 -0.0166094380 0 0
0.0171300070 -0.0166618510 0 0
0.0168677500 -0.0173748620 0 0
0.0165275330 -0.0186622820 0 0
0.0161574660 -0.0203912300 0 0
0.0158093320 -0.0223924230 0 0
0.0155282150 -0.0244747690 0 0
0.0153440030 -0.0264428850 0 0
0.0152677420 -0.0281147950 0 0
0.0152927010 -0.0293382100 0 0
0.0153984760 -0.0300046170 0 -1
0.0155566570 -0.0300601360 0 -1
0.0157362980 -0.0295121660 0 0
0.0159073930 -0.0284308440 0 0
0.0160425970 -0.0269438910 0 0
0.0161191760 -0.0252238960 0 0
0.0161216990 -0.0234694300 0 0
0.0160439470 -0.0218836970 0 0
0.0158885900 -0.0206534540 0 0
0.0156650460 -0.0199291100 0 0
0.0153874270 -0.0198080960 0 0
0.0150743100 -0.0203242710 0 0
0.0147501760 -0.0214439420 0 0
0.0144464300 -0.0230684940 0 0
0.0141994360 -0.0250447610 0 0
0.0140445080 -0.0271832350 0 0
0.0140077790 -0.0292809090 0 0
0.0140995970 -0.0311431800 0 -1
0.0143115770 -0.0326004830 0 -1
0.0146172960 -0.0335193200 0 -1
0.0149760830 -0.0338100930 0 -1
0.0153391700 -0.0334342000 0 -1
0.0156565810 -0.0324109030 0 -1
0.0158830470 -0.0308211720 0 -1
0.0159820710 -0.0288034850 0 0
0.0159283470 -0.0265395150 0 0
0.0157098960 -0.0242342320 0 0
0.0153306680 -0.0220972890 0 0
0.0148123510 -0.0203277480 0 0
0.0141934660 -0.0190990090 0 0
0.0135252750 -0.0185413260 0 0
0.0128656640 -0.0187235700 0 0
0.0122720490 -0.0196390130 0 0
0.0117938190 -0.0211994320 0 0
0.0114655390 -0.0232398220 0 0
0.0113029310 -0.0255345330 0 0
0.0113026080 -0.0278236410 0 0
0.0114449120 -0.0298456930 0 0
0.0116989510 -0.0313710800 0 -1
0.0120287540 -0.0322302960 0 -1
0.0123989890 -0.0323330860 0 -1
0.0127790090 -0.0316759080 0 -1
0.0131449970 -0.0303367040 0 -1
0.0134802180 -0.0284595460 0 0
0.0137736080 -0.0262342020 0 0
0.0140177330 -0.0238744510 0 0
0.0142075670 -0.0215977200 0 0
0.0143407250 -0.0196078990 0 0
0.0144184930 -0.0180813370 0 0
0.0144458400 -0.0171547530 0 0
0.0144289560 -0.0169147330 0 0
0.0143715880 -0.0173899990 0 0
0.0142734010 -0.0185471320 0 0
0.0141316920 -0.0202893440 0 0
0.0139449300 -0.0224591460 0 0
0.0137163710 -0.0248483180 0 0
0.0134568740 -0.0272173960 0 0
0.0131855510 -0.0293216470 0 0
0.0129268320 -0.0309387200 0 -1
0.0127048400 -0.0318959070 0 -1
0.0125383280 -0.0320947550 0 -1
0.0124383290 -0.0315271650 0 -1
0.0124079250 -0.0302769600 0 -1
0.0124425250 -0.0285048960 0 0
0.0125299420 -0.0264202090 0 0
0.0126506790 -0.0242463850 0 0
0.0127797230 -0.0221911070 0 0
0.0128909860 -0.0204277340 0 0
0.0129635400 -0.0190884860 0 0
0.0129869870 -0.0182634210 0 0
0.0129640770 -0.0179994950 0 0
0.0129105100 -0.0182980530 0 0
0.0128523620 -0.0191127480 0 0
0.0128215690 -0.0203510920 0 0
0.0128504220 -0.0218814290 0 0
0.0129662370 -0.0235447790 0 0
0.0131868680 -0.0251699100 0 0
0.0135175220 -0.0265898650 0 0
0.0139497130 -0.0276579910 0 0
0.0144624830 -0.0282621260 0 0
0.0150244270 -0.0283359750 0 0
0.0155954100 -0.0278659630 0 0
0.0161289180 -0.0268921380 0 0
0.0165760470 -0.0255040050 0 0
0.0168908560 -0.0238330910 0 0
0.0170364640 -0.0220425700 0 0
0.0169910660 -0.0203132140 0 0
0.0167524530 -0.0188258040 0 0
0.0163397960 -0.0177418220 0 0
0.0157923910 -0.0171857550 0 0
0.0151657210 -0.0172322440 0 0
0.0145254770 -0.0178994750 0 0
0.0139403630 -0.0191483700 0 0
0.0134747400 -0.0208867160 0 0
0.0131820110 -0.0229776850 0 0
0.0130991010 -0.0252524750 0 0
0.0132419060 -0.0275256450 0 0
0.0136019110 -0.0296101950 0 0
0.0141453820 -0.0313310490 0 -1
0.0148173260 -0.0325389100 0 -1
0.0155504170 -0.0331262860 0 -1
0.0162756010 -0.0330433710 0 -1
0.0169304740 -0.0323082940 0 -1
0.0174642510 -0.0310074720 0 -1
0.0178407030 -0.0292858160 0 0
0.0180404570 -0.0273290880 0 0
0.0180624730 -0.0253412030 0 0
0.0179239680 -0.0235202300 0 0
0.0176587190 -0.0220383100 0 0
0.0173134290 -0.0210293460 0 0
0.0169418280 -0.0205839320 0 0
0.0165979540 -0.0207476710 0 0
0.0163307770 -0.0215193140 0 0
0.0161804370 -0.0228475700 0 0
0.0161744120 -0.0246282150 0 0
0.0163227300 -0.0267057230 0 0
0.0166139340 -0.0288835180 0 0
0.0170146910 -0.0309433420 0 -1
0.0174745120 -0.0326704140 0 -1
0.0179344410 -0.0338792560 0 -1
0.0183368520 -0.0344357300 0 -1
0.0186338220 -0.0342729480 0 -1
0.0187933520 -0.0333997720 0 -1
0.0188032400 -0.0319000930 0 -1
0.0186714120 -0.0299220180 0 0
0.0184221640 -0.0276590990 0 0
0.0180909340 -0.0253277450 0 0
0.0177205360 -0.0231445990 0 0
0.0173581180 -0.0213068570 0 0
0.0170504080 -0.0199771860 0 0
0.0168372100 -0.0192724870 0 0
0.0167454640 -0.0192542470 0 0
0.0167860250 -0.0199200260 0 0
0.0169536330 -0.0211990970 0 0
0.0172293410 -0.0229565620 0 0
0.0175845220 -0.0250075790 0 0
0.0179856060 -0.0271392540 0 0
0.0183986470 -0.0291356310 0 0
0.0187931500 -0.0308016060 0 -1
0.0191444500 -0.0319827840 0 -1
0.0194340340 -0.0325798120 0 -1
0.0196480910 -0.0325564960 0 -1
0.0197750780 -0.0319404600 0 -1
0.0198033820 -0.0308159050 0 -1
0.0197206570 -0.0293103580 0 0
0.0195157130 -0.0275782240 0 0
0.0191820420 -0.0257844510 0 0
0.0187210790 -0.0240914610 0 0
0.0181436370 -0.0226498010 0 0
0.0174695590 -0.0215902020 0 0
0.0167272310 -0.0210145470 0 0
0.0159536670 -0.0209850870 0 0
0.0151937470 -0.0215143650 0 0
0.0144972620 -0.0225594660 0 0
0.0139141120 -0.0240226930 0 0
0.0134886150 -0.0257598480 0 0
0.0132539420 -0.0275958820 0 0
0.0132281940 -0.0293439310 0 0
0.0134132540 -0.0308228450 0 -1
0.0137957080 -0.0318724390 0 -1
0.0143484850 -0.0323683410 0 -1
0.0150333950 -0.0322366270 0 -1
0.0158056040 -0.0314654460 0 -1
0.0166191570 -0.0301087560 0 -1
0.0174314670 -0.0282795290 0 0
0.0182061320 -0.0261354710 0 0
0.0189145770 -0.0238625480 0 0
0.0195364100 -0.0216586620 0 0
0.0200579810 -0.0197174670 0 0
0.0204697600 -0.0182123980 0 0
0.0207648200 -0.0172809770 0 0
0.0209399290 -0.0170101170 0 0
0.0209974710 -0.0174250510 0 0
0.0209453940 -0.0184845620 0 0
0.0207951760 -0.0200830760 0 0
0.0205600250 -0.0220592600 0 0
0.0202543710 -0.0242111180 0 0
0.0198938040 -0.0263163840 0 0
0.0194947970 -0.0281554690 0 0
0.0190742500 -0.0295345530 0 0
0.0186482890 -0.0303069620 0 -1
0.0182296950 -0.0303898580 0 -1
0.0178251280 -0.0297731380 0 0
0.0174344640 -0.0285196510 0 0
0.0170529150 -0.0267579370 0 0
0.0166744510 -0.0246688520 0 0
0.0162949250 -0.0224669930 0 0
0.0159140340 -0.0203785790 0 0
0.0155356090 -0.0186183430 0 0
0.0151667010 -0.0173673570 0 0
0.0148173070 -0.0167540800 0 0
0.0145018660 -0.0168420540 0 0
0.0142413570 -0.0176261020 0 0
0.0140639560 -0.0190359080 0 0
0.0140029120 -0.0209445500 0 0
0.0140912890 -0.0231798370 0 0
0.0143548840 -0.0255375750 0 0
0.0148056810 -0.0277971240 0 0
0.0154372210 -0.0297394550 0 0
0.0162224970 -0.0311675830 0 -1
0.0171151140 -0.0319285700 0 -1
0.0180537760 -0.0319342960 0 -1
0.0189690860 -0.0311762800 0 -1
0.0197919500 -0.0297298600 0 0
0.0204625920 -0.0277452530 0 0
0.0209374430 -0.0254276990 0 0
0.0211910930 -0.0230123280 0 0
0.0212137270 -0.0207377260 0 0
0.0210070700 -0.0188199290 0 0
0.0205811870 -0.0174298470 0 0
0.0199530870 -0.0166766460 0 0
0.0191479200 -0.0165971150 0 0
0.0182023570 -0.0171523340 0 0
0.0171674500 -0.0182352730 0 0
0.0161076640 -0.0196894580 0 0
0.0150951800 -0.0213333100 0 0
0.0142016580 -0.0229839100 0 0
0.0134900700 -0.0244762580 0 0
0.0130072590 -0.0256763530 0 0
0.0127771690 -0.0264887220 0 0
0.0127960840 -0.0268603500 0 0
0.0130320550 -0.0267813400 0 0
0.0134294520 -0.0262816050 0 0
0.0139176580 -0.0254250470 0 0
0.0144218580 -0.0243041360 0 0
0.0148741200 -0.0230350410 0 0
0.0152238430 -0.0217506740 0 0
0.0154463690 -0.0205899800 0 0
0.0155471330 -0.0196844860 0 0
0.0155595230 -0.0191443890 0 0
0.0155376690 -0.0190470370 0 0
0.0155469050 -0.0194300350 0 0
0.0156534050 -0.0202886930 0 0
0.0159132720 -0.0215753740 0 0
0.0163616160 -0.0231986800 0 0
0.0170038120 -0.0250239790 0 0
0.0178123320 -0.0268805010 0 0
0.0187312580 -0.0285788520 0 0
0.0196872750 -0.0299364220 0 0
0.0206032660 -0.0308028210 0 -1
0.0214102620 -0.0310780710 0 -1
0.0220551830 -0.0307213610 0 -1
0.0225041690 -0.0297528780 0 0
0.0227427350 -0.0282517400 0 0
0.0227738180 -0.0263495910 0 0
0.0226137690 -0.0242177820 0 0
0.0222864550 -0.0220491430 0 0
0.0218173860 -0.0200386510 0 0
0.0212302720 -0.0183661640 0 0
0.0205463740 -0.0171815450 0 0
0.0197852060 -0.0165920080 0 0
0.0189653360 -0.0166516590 0 0
0.0181051830 -0.0173530310 0 0
0.0172240000 -0.0186222160 0 0
0.0163424620 -0.0203208490 0 0
0.0154821210 -0.0222566930 0 0
0.0146640870 -0.0242023300 0 0
0.0139079470 -0.0259207120 0 0
0.0132314000 -0.0271953330 0 0
0.0126508250 -0.0278603320 0 0
0.0121820690 -0.0278237900 0 0
0.0118390540 -0.0270780150 0 0
0.0116290200 -0.0256949970 0 0
0.0115472890 -0.0238112290 0 0
0.0115761430 -0.0216079740 0 0
0.0116890370 -0.0192903690 0 0
0.0118572080 -0.0170669670 0 0
0.0120553640 -0.0151317940 0 0
0.0122657800 -0.0136504450 0 0
0.0124811160 -0.0127493100 0 0
0.0127051580 -0.0125064230 0 0
0.0129510100 -0.0129446180 0 0
0.0132380600 -0.0140291330 0 0
0.0135887990 -0.0156705880 0 0
0.0140251840 -0.0177324340 0 0
0.0145640650 -0.0200417360 0 0
0.0152121830 -0.0224029960 0 0
0.0159619030 -0.0246147240 0 0
0.0167886300 -0.0264871890 0 0
0.0176506720 -0.0278593700 0 0
0.0184927410 -0.0286143690 0 0
0.0192536240 -0.0286922680 0 0
0.0198761320 -0.0280970050 0 0
0.0203158820 -0.0268942830 0 0
0.0205464700 -0.0252018280 0 0
0.0205607190 -0.0231762940 0 0
0.0203690130 -0.0209997650 0 0
0.0199960100 -0.0188663160 0 0
0.0194764580 -0.0169676720 0 0
0.0188505300 -0.0154768570 0 0
0.0181598940 -0.0145304470 0 0
0.0174461230 -0.0142121810 0 0
0.0167510980 -0.0145410470 0 0
0.0161170520 -0.0154662790 0 0
0.0155843530 -0.0168716440 0 0
0.0151869360 -0.0185901340 0 0
0.0149465380 -0.0204258830 0 0
0.0148677350 -0.0221764630 0 0
0.0149361520 -0.0236515480 0 0
0.0151209160 -0.0246896400 0 0
0.0153804500 -0.0251747420 0 0
0.0156698090 -0.0250507210 0 0
0.0159473250 -0.0243290250 0 0
0.0161788990 -0.0230870220 0 0
0.0163402550 -0.0214579260 0 0
0.0164184120 -0.0196159450 0 0
0.0164121070 -0.0177591570 0 0
0.0163302150 -0.0160901170 0 0
0.0161886870 -0.0147945190 0 0
0.0160078770 -0.0140211910 0 0
0.0158113190 -0.0138674740 0 0
0.0156248170 -0.0143713790 0 0
0.0154738180 -0.0155096180 0 0
0.0153789850 -0.0172007530 0 0
0.0153522240 -0.0193130410 0 0
0.0153950860 -0.0216760420 0 0
0.0154993160 -0.0240952960 0 0
0.0156483450 -0.0263696050 0 0
0.0158198950 -0.0283100170 0 0
0.0159907710 -0.0297587480 0 0
0.0161427770 -0.0306046020 0 -1
0.0162659530 -0.0307906660 0 -1
0.0163565220 -0.0303138660 0 -1
0.0164115490 -0.0292214890 0 0
0.0164251470 -0.0276093230 0 0
0.0163895580 -0.0256200560 0 0
0.0163002330 -0.0234366840 0 0
0.0161604120 -0.0212670310 0 0
0.0159812190 -0.0193202330 0 0
0.0157779240 -0.0177806660 0 0
0.0155662480 -0.0167854140 0 0
0.0153609640 -0.0164093080 0 0
0.0151765110 -0.0166597400 0 0
0.0150286230 -0.0174810320 0 0
0.0149355910 -0.0187651070 0 0
0.0149176090 -0.0203647230 0 0
0.0149934740 -0.0221080250 0 0
0.0151755490 -0.0238149720 0 0
0.0154656470 -0.0253148470 0 0
0.0158539110 -0.0264619790 0 0
0.0163195420 -0.0271472710 0 0
0.0168306150 -0.0273060480 0 0
0.0173425080 -0.0269239710 0 0
0.0177977770 -0.0260406150 0 0
0.0181310200 -0.0247483050 0 0
0.0182793440 -0.0231847380 0 0
0.0181948180 -0.0215195630 0 0
0.0178535860 -0.0199357560 0 0
0.0172589040 -0.0186085030 0 0
0.0164389090 -0.0176868470 0 0
0.0154410260 -0.0172814110 0 0
0.0143248760 -0.0174565060 0 0
0.0131555830 -0.0182241920 0 0
0.0119989800 -0.0195403480 0 0
0.0109195600 -0.0213040320 0 0
0.0099802990 -0.0233622220 0 0
0.0092409850 -0.0255223110 0 0
0.0087525390 -0.0275717740 0 0
0.0085489980 -0.0293009550 0 0
0.0086409380 -0.0305250220 0 -1
0.0090122390 -0.0311030960 0 -1
0.0096200830 -0.0309539070 0 -1
0.0103985860 -0.0300666010 0 -1
0.0112670900 -0.0285039040 0 0
0.0121424720 -0.0263958920 0 0
0.0129522910 -0.0239263180 0 0
0.0136447480 -0.0213154690 0 0
0.0141931060 -0.0188017890 0 0
0.0145947840 -0.0166217090 0 0
0.0148669150 -0.0149864010 0 0
0.0150401690 -0.0140559700 0 0
0.0151515270 -0.0139153580 0 0
0.0152364040 -0.0145595740 0 0
0.0153220600 -0.0158938540 0 0
0.0154249970 -0.0177476500 0 0
0.0155524980 -0.0198977190 0 0
0.0157051050 -0.0220959310 0 0
0.0158769140 -0.0240978430 0 0
0.0160538460 -0.0256889720 0 0
0.0162127640 -0.0267076060 0 0
0.0163239590 -0.0270622240 0 0
0.0163568770 -0.0267393180 0 0
0.0162867650 -0.0257990180 0 0
0.0160995010 -0.0243610490 0 0
0.0157933020 -0.0225862190 0 0
0.0153775790 -0.0206571400 0 0
0.0148698180 -0.0187598040 0 0
0.0142917210 -0.0170677090 0 0
0.0136660150 -0.0157312620 0 0
0.0130147560 -0.0148725930 0 0
0.0123589220 -0.0145815500 0 0
0.0117187490 -0.0149087830 0 0
0.0111144380 -0.0158564080 0 0
0.0105670140 -0.0173708340 0 0
0.0100988450 -0.0193426240 0 0
0.0097327790 -0.0216150670 0 0
0.0094891320 -0.0239992110 0 0
0.0093814960 -0.0262916950 0 0
0.0094132190 -0.0282925790 0 0
0.0095755230 -0.0298220360 0 0
0.0098474320 -0.0307367060 0 -1
0.0101972730 -0.0309463970 0 -1
0.0105855540 -0.0304286970 0 -1
0.0109696840 -0.0292371470 0 0
0.0113104550 -0.0275001000 0 0
0.0115783070 -0.0254095700 0 0
0.0117571120 -0.0232011980 0 0
0.0118450040 -0.0211280730 0 0
0.0118528590 -0.0194319300 0 0
0.0118010090 -0.0183155370 0 0
0.0117149870 -0.0179197800 0 0
0.0116212790 -0.0183071540 0 0
0.0115438920 -0.0194527700 0 0
0.0115022960 -0.0212453350 0 0
0.0115110490 -0.0235003690 0 0
0.0115806270 -0.0259846140 0 0
0.0117178170 -0.0284472070 0 0
0.0119240760 -0.0306516140 0 -1
0.0121924970 -0.0324020380 0 -1
0.0125062290 -0.0335599820 0 -1
0.0128404250 -0.0340507340 0 -1
0.0131666340 -0.0338618400 0 -1
0.0134572400 -0.0330357470 0 -1
0.0136886600 -0.0316598160 0 -1
0.0138426990 -0.0298565790 0 0
0.0139053130 -0.0277744780 0 0
0.0138632610 -0.0255786550 0 0
0.0137019120 -0.0234421540 0 0
0.0134079620 -0.0215367220 0 0
0.0129772580 -0.0200215460 0 0
0.0124237450 -0.0190298400 0 0
0.0117848880 -0.0186543200 0 0
0.0111207970 -0.0189332350 0 0
0.0105069150 -0.0198402010 0 0
0.0100226920 -0.0212820260 0 0
0.0097401640 -0.0231074010 0 0
0.0097151190 -0.0251266850 0 0
0.0099814460 -0.0271390240 0 0
0.0105481240 -0.0289593470 0 0
0.0113977590 -0.0304378930 0 -1
0.0124857050 -0.0314691090 0 -1
0.0137404440 -0.0319922140 0 -1
0.0150677510 -0.0319891120 0 -1
0.0163607970 -0.0314836200 0 -1
0.0175150450 -0.0305414460 0 -1
0.0184437210 -0.0292678820 0 0
0.0190895460 -0.0278007570 0 0
0.0194303190 -0.0262987480 0 0
0.0194777000 -0.0249273770 0 0
0.0192702280 -0.0238437590 0 0
0.0188628950 -0.0231794450 0 0
0.0183166570 -0.0230230240 0 0
0.0176918110 -0.0234070590 0 0
0.0170467070 -0.0243026930 0 0
0.0164385430 -0.0256218860 0 0
0.0159216700 -0.0272256150 0 0
0.0155424090 -0.0289372770 0 0
0.0153329620 -0.0305618300 0 -1
0.0153069810 -0.0319098600 0 -1
0.0154575510 -0.0328222460 0 -1
0.0157573810 -0.0331898550 0 -1
0.0161613230 -0.0329650270 0 -1
0.0166116010 -0.0321636530 0 -1
0.0170458190 -0.0308582680 0 -1
0.0174070110 -0.0291655800 0 0
0.0176536330 -0.0272330660 0 0
0.0177658210 -0.0252268840 0 0
0.0177449490 -0.0233201790 0 0
0.0176071970 -0.0216807350 0 0
0.0173749740 -0.0204587780 0 0
0.0170701090 -0.0197748310 0 0
0.0167109200 -0.0197060340 0 0
0.0163133200 -0.0202729590 0 0
0.0158946280 -0.0214332220 0 0
0.0154772450 -0.0230851810 0 0
0.0150889330 -0.0250789270 0 0
0.0147588480 -0.0272300950 0 0
0.0145117380 -0.0293350040 0 0
0.0143635820 -0.0311881280 0 -1
0.0143201140 -0.0326025680 0 -1
0.0143775730 -0.0334317130 0 -1
0.0145244530 -0.0335876250 0 -1
0.0147436120 -0.0330509870 0 -1
0.0150142630 -0.0318707340 0 -1
0.0153135610 -0.0301561010 0 -1
0.0156180670 -0.0280647270 0 0
0.0159053140 -0.0257879140 0 0
0.0161551120 -0.0235325770 0 0
0.0163504160 -0.0215005650 0 0
0.0164784290 -0.0198678680 0 0
0.0165323230 -0.0187670830 0 0
0.0165125570 -0.0182761850 0 0
0.0164267590 -0.0184141610 0 0
0.0162884520 -0.0191408950 0 0
0.0161153050 -0.0203591510 0 0
0.0159272090 -0.0219201520 0 0
0.0157442630 -0.0236360600 0 0
0.0155847990 -0.0253006480 0 0
0.0154635100 -0.0267152330 0 0
0.0153898350 -0.0277140200 0 0
0.0153671950 -0.0281833270 0 0
0.0153941480 -0.0280707550 0 0
0.0154676180 -0.0273834980 0 0
0.0155863220 -0.0261799620 0 0
0.0157519190 -0.0245609830 0 0
0.0159672750 -0.0226634030 0 0
0.0162333020 -0.0206532500 0 0
0.0165460970 -0.0187136930 0 0
0.0168951800 -0.0170264630 0 0
0.0172631270 -0.0157508580 0 0
0.0176271430 -0.0150057660 0 0
0.0179626250 -0.0148577690 0 0
0.0182470840 -0.0153159810 0 0
0.0184622910 -0.0163331010 0 0
0.0185945360 -0.0178113790 0 0
0.0186349250 -0.0196123810 0 0
0.0185803550 -0.0215699410 0 0
0.0184333160 -0.0235050120 0 0
0.0181994330 -0.0252403930 0 0
0.0178847520 -0.0266146230 0 0
0.0174952650 -0.0274959960 0 0
0.0170385570 -0.0277967790 0 0
0.0165253220 -0.0274856450 0 0
0.0159694360 -0.0265949180 0 0
0.0153870990 -0.0252193700 0 0
0.0147955810 -0.0235057260 0 0
0.0142116750 -0.0216350760 0 0
0.0136504670 -0.0198018850 0 0
0.0131253910 -0.0181932960 0 0
0.0126495440 -0.0169711860 0 0
0.0122371280 -0.0162574740 0 0
0.0119034020 -0.0161227920 0 0
0.0116620750 -0.0165789660 0 0
0.0115208680 -0.0175759510 0 0
0.0114777600 -0.0190049100 0 0
0.0115202900 -0.0207090570 0 0
0.0116288020 -0.0225013450 0 0
0.0117827700 -0.0241857300 0 0
0.0119678080 -0.0255779160 0 0
0.0121801110 -0.0265227140 0 0
0.0124261550 -0.0269077730 0 0
0.0127179870 -0.0266740960 0 0
0.0130659610 -0.0258220250 0 0
0.0134704210 -0.0244112580 0 0
0.0139144850 -0.0225550810 0 0
0.0143617210 -0.0204096320 0 0
0.0147613560 -0.0181587120 0 0
0.0150589910 -0.0159958160 0 0
0.0152081640 -0.0141066290 0 0
0.0151794470 -0.0126546890 0 0
0.0149658790 -0.0117698300 0 0
0.0145839750 -0.0115361460 0 0
0.0140703840 -0.0119783100 0 0
0.0134757940 -0.0130511570 0 0
0.0128579140 -0.0146397980 0 0
0.0122742730 -0.0165729330 0 0
0.0117748020 -0.0186455540 0 0
0.0113945920 -0.0206447300 0 0
0.0111488100 -0.0223740030 0 0
0.0110324270 -0.0236742700 0 0
0.0110247820 -0.0244395910 0 0
0.0110960120 -0.0246257820 0 0
0.0112128220 -0.0242495390 0 0
0.0113429470 -0.0233786220 0 0
0.0114586800 -0.0221176910 0 0
0.0115400690 -0.0205950660 0 0
0.0115775020 -0.0189526840 0 0
0.0115721150 -0.0173382440 0 0
0.0115337400 -0.0158971670 0 0
0.0114782910 -0.0147626590 0 0
0.0114261270 -0.0140433920 0 0
0.0114006830 -0.0138091400 0 0
0.0114260460 -0.0140758970 0 0
0.0115233220 -0.0147944280 0 0
0.0117067290 -0.0158482060 0 0
0.0119805710 -0.0170644780 0 0
0.0123378240 -0.0182359820 0 0
0.0127600250 -0.0191467160 0 0
0.0132177680 -0.0195968830 0 0
0.0136723230 -0.0194251890 0 0
0.0140793870 -0.0185268170 0 0
0.0143944560 -0.0168651850 0 0
0.0145781640 -0.0144769840 0 0
0.0146004880 -0.0114706780 0 0
0.0144436020 -0.0080178170 0 0
0.0141036970 -0.0043360340 0 0
0.0135921760 -0.0006649720 0 0
0.0129359830 0.0027594270 0 0
0.0121760400 0.0057263820 0 0
0.0113630850 0.0080660620 0 0
0.0105516270 0.0096621600 0 0
0.0097934240 0.0104624460 0 0
0.0091322700 0.0104849590 0 0
0.0086017460 0.0098170090 0 0
0.0082260530 0.0086066380 0 0
0.0080223800 0.0070474700 0 0
0.0080028300 0.0053584760 0 0
0.0081741170 0.0037615990 0 0
0.0085345720 0.0024596810 0 0
0.0090704160 0.0016154560 0 0
0.0097539280 0.0013336020 0 0
0.0105448710 0.0016500360 0 0
0.0113951240 0.0025315890 0 0
0.0122556510 0.0038852330 0 0
0.0130835570 0.0055731030 0 0
0.0138456040 0.0074299750 0 0
0.0145164310 0.0092814560 0 0
0.0150742990 0.0109611470 0 0
0.0154994020 0.0123247820 0 0
0.0157765740 0.0132604750 0 0
0.0158994870 0.0136957610 0 0
0.0158726620 0.0136019540 0 0
0.0157106190 0.0129953850 0 0
0.0154359090 0.0119358380 0 0
0.0150773090 0.0105233940 0 0
0.0146678400 0.0088934400 0 0
0.0142417170 0.0072081130 0 0
0.0138306320 0.0056431480 0 0
0.0134605310 0.0043701030 0 0
0.0131495800 0.0035352260 0 0
0.0129074200 0.0032394710 0 0
0.0127351940 0.0035260940 0 0
0.0126258850 0.0043780850 0 0
0.0125653820 0.0057216980 0 0
0.0125350830 0.0074324470 0 0
0.0125159460 0.0093444790 0 0
0.0124924250 0.0112657080 0 0
0.0124545090 0.0129982210 0 0
0.0123975290 0.0143606350 0 0
0.0123207390 0.0152078720 0 0
0.0122262340 0.0154445920 0 0
0.0121193140 0.0150311290 0 0
0.0120097620 0.0139836130 0 0
0.0119121770 0.0123708000 0 0
0.0118437260 0.0103088910 0 0
0.0118195840 0.0079539170 0 0
0.0118482850 0.0054903340 0 0
0.0119293870 0.0031152410 0 0
0.0120540200 0.0010195240 0 0
0.0122071640 -0.0006320880 0 0
0.0123705290 -0.0017201080 0 0
0.0125256800 -0.0021848370 0 0
0.0126572330 -0.0020320430 0 0
0.0127550580 -0.0013293280 0 0
0.0128141660 -0.0001968400 0 0
0.0128330480 0.0012048900 0 0
0.0128133010 0.0026896350 0 0
0.0127616820 0.0040620330 0 0
0.0126920260 0.0051352330 0 0
0.0126238850 0.0057505550 0 0
0.0125778310 0.0057978270 0 0
0.0125701100 0.0052298410 0 0
0.0126095370 0.0040653420 0 0
0.0126978940 0.0023812400 0 0
0.0128330840 0.0002988360 0 0
0.0130127000 -0.0020305540 0 0
0.0132357840 -0.0044375390 0 0
0.0135023740 -0.0067453410 0 0
0.0138121300 -0.0087820750 0 0
0.0141631880 -0.0103955070 0 0
0.0145513080 -0.0114696610 0 0
0.0149688070 -0.0119410370 0 0
0.0154031990 -0.0118085040 0 0
0.0158362780 -0.0111317500 0 0
0.0162443800 -0.0100206980 0 0
0.0165996490 -0.0086218900 0 0
0.0168717330 -0.0071041580 0 0
0.0170300750 -0.0056426810 0 0
0.0170477580 -0.0044015570 0 0
0.0169073030 -0.0035177800 0 0
0.0166071170 -0.0030904870 0 0
0.0161659570 -0.0031764360 0 0
0.0156232130 -0.0037889950 0 0
0.0150342300 -0.0048968490 0 0
0.0144612370 -0.0064204880 0 0
0.0139620650 -0.0082299040 0 0
0.0135803190 -0.0101514220 0 0
0.0133400010 -0.0119874570 0 0
0.0132448750 -0.0135435670 0 0
0.0132808240 -0.0146534550 0 0
0.0134194340 -0.0151969590 0 0
0.0136221190 -0.0151111610 0 0
0.0138447270 -0.0143958690 0 0
0.0140422810 -0.0131136290 0 0
0.0141733490 -0.0113836900 0 0
0.0142036090 -0.0093699380 0 0
0.0141084090 -0.0072640910 0 0
0.0138745670 -0.0052661750 0 0
0.0135018560 -0.0035650020 0 0
0.0130039110 -0.0023211560 0 0
0.0124078650 -0.0016531860 0 0
0.0117529230 -0.0016271900 0 0
0.0110882520 -0.0022514840 0 0
0.0104694860 -0.0034775280 0 0
0.0099529690 -0.0052050840 0 0
0.0095880630 -0.0072888190 0 0
0.0094090160 -0.0095468330 0 0
0.0094285430 -0.0117736930 0 0
0.0096350300 -0.0137586440 0 0
0.0099937950 -0.0153077240 0 0
0.0104517380 -0.0162675210 0 0
0.0109451350 -0.0165464330 0 0
0.0114097480 -0.0161278380 0 0
0.0117902950 -0.0150714680 0 0
0.0120462320 -0.0135035250 0 0
0.0121536060 -0.0115992380 0 0
0.0121047710 -0.0095617070 0 0
0.0119071600 -0.0076004680 0 0
0.0115809830 -0.0059131990 0 0
0.0111555910 -0.0046714770 0 0
0.0106653900 -0.0040080510 0 0
0.0101468280 -0.0040044030 0 0
0.0096371550 -0.0046812490 0 0
0.0091740510 -0.0059943970 0 0
0.0087943520 -0.0078358290 0 0
0.0085307050 -0.0100404710 0 0
0.0084065570 -0.0124006030 0 0
0.0084312290 -0.0146875960 0 0
0.0085974560 -0.0166770340 0 0
0.0088830190 -0.0181728900 0 0
0.0092561570 -0.0190282710 0 0
0.0096825580 -0.0191602900 0 0
0.0101315160 -0.0185567190 0 0
0.0105801260 -0.0172750860 0 0
0.0110152580 -0.0154361580 0 0
0.0114328420 -0.0132116440 0 0
0.0118343570 -0.0108057200 0 0
0.0122218740 -0.0084325130 0 0
0.0125935990 -0.0062939750 0 0
0.0129410930 -0.0045622520 0 0
0.0132489570 -0.0033681690 0 0
0.0134980680 -0.0027954740 0 0
0.0136719390 -0.0028792620 0 0
0.0137626460 -0.0036054230 0 0
0.0137725540 -0.0049084600 0 0
0.0137118320 -0.0066697400 0 0
0.0135943870 -0.0087226270 0 0
0.0134340730 -0.0108680460 0 0
0.0132419290 -0.0128972990 0 0
0.0130254790 -0.0146164190 0 0
0.0127904600 -0.0158680540 0 0
0.0125432440 -0.0165482100 0 0
0.0122909630 -0.0166155340 0 0
0.0120380720 -0.0160921520 0 0
0.0117816460 -0.0150575660 0 0
0.0115097040 -0.0136380530 0 0
0.0112052960 -0.0119927770 0 0
0.0108549490 -0.0102973100 0 0
0.0104571190 -0.0087270000 0 0
0.0100264030 -0.0074429220 0 0
0.0095914290 -0.0065802640 0 0
0.0091872960 -0.0062374920 0 0
0.0088465180 -0.0064664260 0 0
0.0085928850 -0.0072645880 0 0
0.0084392910 -0.0085710220 0 0
0.0083876450 -0.0102670100 0 0
0.0084296880 -0.0121829830 0 0
0.0085491790 -0.0141119670 0 0
0.0087256800 -0.0158296180 0 0
0.0089391980 -0.0171202830 0 0
0.0091742310 -0.0178057940 0 0
0.0094211360 -0.0177712450 0 0
0.0096739620 -0.0169822570 0 0
0.0099265870 -0.0154905330 0 0
0.0101696900 -0.0134274150 0 0
0.0103897850 -0.0109872890 0 0
0.0105703940 -0.0084037170 0 0
0.0106950140 -0.0059226000 0 0
0.0107510700 -0.0037767660 0 0
0.0107337300 -0.0021636320 0 0
0.0106485510 -0.0012259550 0 0
0.0105122060 -0.0010375750 0 0
0.0103506200 -0.0015977410 0 0
0.0101943630 -0.0028356090 0 0
0.0100719370 -0.0046226080 0 0
0.0100028570 -0.0067885750 0 0
0.0099932240 -0.0091392070 0 0
0.0100356080 -0.0114744750 0 0
0.0101124910 -0.0136071000 0 0
0.0102007900 -0.0153781140 0 0
0.0102757830 -0.0166668440 0 0
0.0103144680 -0.0173953170 0 0
0.0102983200 -0.0175292460 0 0
0.0102148010 -0.0170790170 0 0
0.0100576070 -0.0161027850 0 0
0.0098264610 -0.0147090590 0 0
0.0095269940 -0.0130521120 0 0
0.0091705370 -0.0113160400 0 0
0.0087734080 -0.0096912010 0 0
0.0083557610 -0.0083512340 0 0
0.0079408150 -0.0074350350 0 0
0.0075548930 -0.0070333680 0 0
0.0072270660 -0.0071806790 0 0
0.0069864560 -0.0078537730 0 0
0.0068569360 -0.0089768000 0 0
0.0068517150 -0.0104303850 0 0
0.0069706250 -0.0120636130 0 0
0.0072009370 -0.0137085520 0 0
0.0075210820 -0.0151968080 0 0
0.0079058580 -0.0163761400 0 0
0.0083309020 -0.0171239260 0 0
0.0087747270 -0.0173563290 0 0
0.0092185140 -0.0170352070 0 0
0.0096450830 -0.0161741540 0 0
0.0100384540 -0.0148420790 0 0
0.0103847930 -0.0131617730 0 0
0.0106746060 -0.0113017490 0 0
0.0109053790 -0.0094607550 0 0
0.0110838800 -0.0078455240 0 0
0.0112271300 -0.0066444160 0 0
0.0113607740 -0.0060023000 0 0
0.0115142600 -0.0060026480 0 0
0.0117140530 -0.0066596940 0 0
0.0119778760 -0.0079188600 0 0
0.0123130850 -0.0096621700 0 0
0.0127188720 -0.0117181890 0 0
0.0131885040 -0.0138779220 0 0
0.0137091800 -0.0159161920 0 0
0.0142607550 -0.0176159460 0 0
0.0148151050 -0.0187925940 0 0
0.0153365850 -0.0193154680 0 0
0.0157839930 -0.0191232730 0 0
0.0161145770 -0.0182310370 0 0
0.0162899350 -0.0167275880 0 0
0.0162826050 -0.0147644040 0 0
0.0160814190 -0.0125385940 0 0
0.0156938310 -0.0102732200 0 0
0.0151450180 -0.0081968200 0 0
0.0144748330 -0.0065233710 0 0
0.0137336630 -0.0054338410 0 0
0.0129772550 -0.0050590840 0 0
0.0122601100 -0.0054637230 0 0
0.0116281470 -0.0066333130 0 0
0.0111129600 -0.0084697820 0 0
0.0107302620 -0.0108004070 0 0
0.0104828370 -0.0134010520 0 0
0.0103655330 -0.0160272570 0 0
0.0103693700 -0.0184432960 0 0
0.0104831950 -0.0204426690 0 0
0.0106926620 -0.0218601530 0 0
0.0109776670 -0.0225801020 0 0
0.0113106480 -0.0225442140 0 0
0.0116583060 -0.0217574640 0 0
0.0119868250 -0.0202894460 0 0
0.0122678050 -0.0182698100 0 0
0.0124824250 -0.0158772290 0 0
0.0126235010 -0.0133213300 0 0
0.0126954250 -0.0108192640 0 0
0.0127115890 -0.0085723180 0 0
0.0126900530 -0.0067481330 0 0
0.0126496000 -0.0054693460 0 0
0.0126078630 -0.0048064730 0 0
0.0125811430 -0.0047746690 0 0
0.0125840720 -0.0053351610 0 0
0.0126279660 -0.0064005930 0 0
0.0127180060 -0.0078426170 0 0
0.0128505710 -0.0095014220 0 0
0.0130130860 -0.0111987380 0 0
0.0131877460 -0.0127551990 0 0
0.0133574180 -0.0140097660 0 0
0.0135103130 -0.0148364520 0 0
0.0136414380 -0.0151544870 0 0
0.0137508490 -0.0149310860 0 0
0.0138396280 -0.0141792650 0 0
0.0139053640 -0.0129553310 0 0
0.0139396320 -0.0113585880 0 0
0.0139291280 -0.0095294530 0 0
0.0138595710 -0.0076404780 0 0
0.0137200790 -0.0058805950 0 0
0.0135068280 -0.0044361700 0 0
0.0132256840 -0.0034704730 0 0
0.0128932640 -0.0031031210 0 0
0.0125362920 -0.0033935000 0 0
0.0121899550 -0.0043320130 0 0
0.0118952920 -0.0058405900 0 0
0.0116948310 -0.0077813680 0 0
0.0116270030 -0.0099706900 0 0
0.0117208420 -0.0121960270 0 0
0.0119916850 -0.0142352320 0 0
0.0124378130 -0.0158783710 0 0
0.0130383570 -0.0169508190 0 0
0.0137536040 -0.0173336790 0 0
0.0145290810 -0.0169777400 0 0
0.0153036370 -0.0159099170 0 0
0.0160195620 -0.0142319800 0 0
0.0166313960 -0.0121105410 0 0
0.0171107030 -0.0097577680 0 0
0.0174459770 -0.0074051020 0 0
0.0176386450 -0.0052761670 0 0
0.0176972110 -0.0035649200 0 0
0.0176322750 -0.0024200050 0 0
0.0174546350 -0.0019332410 0 0
0.0171766040 -0.0021322870 0 0
0.0168147830 -0.0029788860 0 0
0.0163921750 -0.0043724740 0 0
0.0159382040 -0.0061584680 0 0
0.0154864410 -0.0081417910 0 0
0.0150708430 -0.0101061080 0 0
0.0147217270 -0.0118371800 0 0
0.0144622690 -0.0131468540 0 0
0.0143054780 -0.0138936920 0 0
0.0142513740 -0.0139969930 0 0
0.0142851220 -0.0134426300 0 0
0.0143776690 -0.0122819110 0 0
0.0144896140 -0.0106262800 0 0
0.0145776930 -0.0086378880 0 0
0.0146025330 -0.0065131920 0 0
0.0145357650 -0.0044599360 0 0
0.0143648800 -0.0026734660 0 0
0.0140952790 -0.0013186690 0 0
0.0137490880 -0.0005190860 0 0
0.0133601380 -0.0003510020 0 0
0.0129659770 -0.0008396070 0 0
0.0125997980 -0.0019558040 0 0
0.0122854690 -0.0036147380 0 0
0.0120371160 -0.0056786800 0 0
0.0118624640 -0.0079658080 0 0
0.0117674330 -0.0102648270 0 0
0.0117592110 -0.0123546280 0 0
0.0118460290 -0.0140272570 0 0
0.0120337260 -0.0151120080 0 0
0.0123208970 -0.0154981340 0 0
0.0126950620 -0.0151519610 0 0
0.0131313830 -0.0141231580 0 0
0.0135941160 -0.0125375560 0 0
0.0140402880 -0.0105787740 0 0
0.0144253070 -0.0084638890 0 0
0.0147102260 -0.0064181860 0 0
0.0148690570 -0.0046516110 0 0
0.0148936010 -0.0033378260 0 0
0.0147945930 -0.0025978510 0 0
0.0145999100 -0.0024907860 0 0
0.0143504260 -0.0030118070 0 0
0.0140930620 -0.0040956130 0 0
0.0138717650 -0.0056240830 0 0
0.0137193220 -0.0074380460 0 0
0.0136530880 -0.0093527180 0 0
0.0136754930 -0.0111753210 0 0
0.0137777600 -0.0127232500 0 0
0.0139442210 -0.0138412280 0 0
0.0141552820 -0.0144154640 0 0
0.0143884820 -0.0143829110 0 0
0.0146185930 -0.0137350340 0 0
0.0148183420 -0.0125170160 0 0
0.0149609100 -0.0108232590 0 0
0.0150242290 -0.0087894100 0 0
0.0149960270 -0.0065815700 0 0
0.0148779980 -0.0043839140 0 0
0.0146871170 -0.0023848860 0 0
0.0144524160 -0.0007611730 0 0
0.0142079830 0.0003396670 0 0
0.0139855480 0.0008150360 0 0
0.0138100070 0.0006195760 0 0
0.0136987900 -0.0002262670 0 0
0.0136632770 -0.0016320720 0 0
0.0137093600 -0.0034405100 0 0
0.0138361100 -0.0054411360 0 0
0.0140344190 -0.0073960110 0 0
0.0142874170 -0.0090735750 0 0
0.0145721020 -0.0102826240 0 0
0.0148608560 -0.0108977720 0 0
0.0151232960 -0.0108720350 0 0
0.0153298120 -0.0102369750 0 0
0.0154566610 -0.0090931320 0 0
0.0154906020 -0.0075938360 0 0
0.0154310130 -0.0059253600 0 0
0.0152886010 -0.0042858670 0 0
0.0150811980 -0.0028642740 0 0
0.0148285340 -0.0018205750 0 0
0.0145486150 -0.0012717860 0 0
0.0142567610 -0.0012863260 0 0
0.0139660250 -0.0018838140 0 0
0.0136874280 -0.0030353570 0 0
0.0134298830 -0.0046637670 0 0
0.0132011830 -0.0066478580 0 0
0.0130106310 -0.0088334370 0 0
0.0128709900 -0.0110482400 0 0
0.0127965560 -0.0131167650 0 0
0.0127973970 -0.0148742170 0 0
0.0128729820 -0.0161801330 0 0
0.0130089340 -0.0169309110 0 0
0.0131789870 -0.0170696880 0 0
0.0133507200 -0.0165924860 0 0
0.0134909650 -0.0155500680 0 0
0.0135690600 -0.0140444350 0 0
0.0135598470 -0.0122195100 0 0
0.0134478340 -0.0102480620 0 0
0.0132312210 -0.0083177240 0 0
0.0129239770 -0.0066163430 0 0
0.0125550230 -0.0053154760 0 0
0.0121644330 -0.0045528560 0 0
0.0117975740 -0.0044160360 0 0
0.0114987400 -0.0049288880 0 0
0.0113056380 -0.0060434290 0 0
0.0112455370 -0.0076414680 0 0
0.0113328920 -0.0095487870 0 0
0.0115676100 -0.0115589350 0 0
0.0119340770 -0.0134596570 0 0
0.0124024620 -0.0150568810 0 0
0.0129331550 -0.0161951290 0 0
0.0134831250 -0.0167733810 0 0
0.0140124090 -0.0167536850 0 0
0.0144895520 -0.0161611350 0 0
0.0148947820 -0.0150764820 0 0
0.0152194570 -0.0136241930 0 0
0.0154618790 -0.0119591800 0 0
0.0156216760 -0.0102534650 0 0
0.0156955990 -0.0086820800 0 0
0.0156768260 -0.0074087340 0 0
0.0155580530 -0.0065725800 0 0
0.0153367920 -0.0062761050 0 0
0.0150203700 -0.0065744290 0 0
0.0146284360 -0.0074676590 0 0
0.0141920940 -0.0088975200 0 0
0.0137505120 -0.0107486750 0 0
0.0133461060 -0.0128557480 0 0
0.0130182680 -0.0150176140 0 0
0.0127956180 -0.0170186470 0 0
0.0126882700 -0.0186534300 0 0
0.0126830750 -0.0197502630 0 0
0.0127446870 -0.0201896300 0 0
0.0128229370 -0.0199155410 0 0
0.0128634280 -0.0189399470 0 0
0.0128170420 -0.0173414310 0 0
0.0126466830 -0.0152584600 0 0
0.0123322210 -0.0128775570 0 0
0.0118742720 -0.0104173240 0 0
0.0112960020 -0.0081084030 0 0
0.0106414500 -0.0061700900 0 0
0.0099692050 -0.0047869390 0 0
0.0093423930 -0.0040895440 0 0
0.0088178250 -0.0041417250 0 0
0.0084370910 -0.0049346090 0 0
0.0082213970 -0.0063877920 0 0
0.0081710930 -0.0083572880 0 0
0.0082698110 -0.0106495320 0 0
0.0084917560 -0.0130414440 0 0
0.0088096430 -0.0153051780 0 0
0.0092005860 -0.0172323740 0 0
0.0096481060 -0.0186522200 0 0
0.0101403810 -0.0194421880 0 0
0.0106667920 -0.0195342020 0 0
0.0112150780 -0.0189188870 0 0
0.0117701820 -0.0176483840 0 0
0.0123145420 -0.0158361320 0 0
0.0128289100 -0.0136506050 0 0
0.0132932490 -0.0113010240 0 0
0.0136887810 -0.0090163880 0 0
0.0140025330 -0.0070210830 0 0
0.0142332550 -0.0055103850 0 0
0.0143951020 -0.0046299500 0 0
0.0145159960 -0.0044629290 0 0
0.0146306530 -0.0050252540 0 0
0.0147708260 -0.0062669410 0 0
0.0149562560 -0.0080772330 0 0
0.0151894600 -0.0102931840 0 0
0.0154558920 -0.0127132100 0 0
0.0157287670 -0.0151167850 0 0
0.0159756180 -0.0172881870 0 0
0.0161633430 -0.0190390500 0 0
0.0162609440 -0.0202251820 0 0
0.0162413280 -0.0207567000 0 0
0.0160828910 -0.0206030080 0 0
0.0157712890 -0.0197939020 0 0
0.0153024800 -0.0184167540 0 0
0.0146869080 -0.0166085570 0 0
0.0139522240 -0.0145428450 0 0
0.0131417490 -0.0124143570 0 0
0.0123082370 -0.0104239370 0 0
0.0115051060 -0.0087629130 0 0
0.0107788600 -0.0075956480 0 0
0.0101653430 -0.0070419720 0 0
0.0096894330 -0.0071631250 0 0
0.0093656720 -0.0079534120 0 0
0.0091980330 -0.0093372210 0 0
0.0091787940 -0.0111709970 0 0
0.0092875340 -0.0132525810 0 0
0.0094914940 -0.0153412150 0 0
0.0097485040 -0.0171870650 0 0
0.0100128330 -0.0185639050 0 0
0.0102429040 -0.0192983710 0 0
0.0104089670 -0.0192915120 0 0
0.0104985480 -0.0185294920 0 0
0.0105175020 -0.0170816410 0 0
0.0104856290 -0.0150870730 0 0
0.0104286030 -0.0127342920 0 0
0.0103697850 -0.0102395570 0 0
0.0103248080 -0.0078272230 0 0
0.0102998300 -0.0057112430 0 0
0.0102925630 -0.0040766520 0 0
0.0102948100 -0.0030625240 0 0
0.0102958430 -0.0027493260 0 0
0.0102858370 -0.0031527030 0 0
0.0102581730 -0.0042239450 0 0
0.0102099030 -0.0058557980 0 0
0.0101409540 -0.0078921140 0 0
0.0100534130 -0.0101408860 0 0
0.0099517390 -0.0123908020 0 0
0.0098434170 -0.0144307460 0 0
0.0097390630 -0.0160703270 0 0
0.0096512120 -0.0171591900 0 0
0.0095916170 -0.0176037430 0 0
0.0095678710 -0.0173796680 0 0
0.0095809990 -0.0165367260 0 0
0.0096254530 -0.0151923980 0 0
0.0096915930 -0.0135149400 0 0
0.0097691220 -0.0117009470 0 0
0.0098492710 -0.0099528060 0 0
0.0099250720 -0.0084586900 0 0
0.0099911000 -0.0073761130 0 0
0.0100436760 -0.0068191870 0 0
0.0100813030 -0.0068488320 0 0
0.0101048930 -0.0074664070 0 0
0.0101177890 -0.0086134090 0 0
0.0101261050 -0.0101793590 0 0
0.0101394750 -0.0120167400 0 0
0.0101714180 -0.0139587070 0 0
0.0102384090 -0.0158345860 0 0
0.0103571610 -0.0174808150 0 0
0.0105403810 -0.0187493670 0 0
0.0107923130 -0.0195176020 0 0
0.0111061500 -0.0197007400 0 0
0.0114649650 -0.0192637580 0 0
0.0118455030 -0.0182281700 0 0
0.0122222820 -0.0166717560 0 0
0.0125702290 -0.0147228730 0 0
0.0128661500 -0.0125512210 0 0
0.0130905240 -0.0103547390 0 0
0.0132305580 -0.0083418630 0 0
0.0132835260 -0.0067100900 0 0
0.0132584070 -0.0056228740 0 0
0.0131745630 -0.0051875840 0 0
0.0130578730 -0.0054386740 0 0
0.0129363930 -0.0063308050 0 0
0.0128371590 -0.0077443450 0 0
0.0127832420 -0.0095012770 0 0
0.0127898950 -0.0113868750 0 0
0.0128609170 -0.0131735310 0 0
0.0129875240 -0.0146454960 0 0
0.0131505370 -0.0156235850 0 0
0.0133247560 -0.0159864560 0 0
0.0134835640 -0.0156834200 0 0
0.0136022650 -0.0147369920 0 0
0.0136596780 -0.0132379470 0 0
0.0136386330 -0.0113350580 0 0
0.0135266040 -0.0092189040 0 0
0.0133170470 -0.0071002400 0 0
0.0130110190 -0.0051866680 0 0
0.0126180520 -0.0036616900 0 0
0.0121554920 -0.0026681820 0 0
0.0116466100 -0.0022971180 0 0
0.0111183060 -0.0025825930 0 0
0.0105989640 -0.0035036890 0 0
0.0101169440 -0.0049907500 0 0
0.0096995540 -0.0069315620 0 0
0.0093715330 -0.0091758540 0 0
0.0091521930 -0.0115412040 0 0
0.0090518120 -0.0138242440 0 0
0.0090697600 -0.0158179840 0 0
0.0091963010 -0.0173332450 0 0
0.0094167760 -0.0182212420 0 0
0.0097149750 -0.0183939250 0 0
0.0100741260 -0.0178387450 0 0
0.0104761460 -0.0166242130 0 0
0.0109006650 -0.0148923420 0 0
0.0113251740 -0.0128376970 0 0
0.0117269330 -0.0106792680 0 0
0.0120862330 -0.0086337200 0 0
0.0123896550 -0.0068947020 0 0
0.0126317730 -0.0056180660 0 0
0.0128147470 -0.0049110920 0 0
0.0129460780 -0.0048253050 0 0
0.0130348540 -0.0053545990 0 0
0.0130875170 -0.0064392400 0 0
0.0131047300 -0.0079729320 0 0
0.0130805440 -0.0098104680 0 0
0.0130044900 -0.0117774380 0 0
0.0128661890 -0.0136844950 0 0
0.0126604810 -0.0153459130 0 0
0.0123901530 -0.0165995650 0 0
0.0120644470 -0.0173243980 0 0
0.0116942810 -0.0174526270 0 0
0.0112871590 -0.0169769450 0 0
0.0108441520 -0.0159532650 0 0
0.0103594550 -0.0144960370 0 0
0.0098219880 -0.0127632910 0 0
0.0092189250 -0.0109350930 0 0
0.0085411470 -0.0091934160 0 0
0.0077894280 -0.0077075770 0 0
0.0069793800 -0.0066234250 0 0
0.0061439600 -0.0060534080 0 0
0.0053330490 -0.0060671480 0 0
0.0046096580 -0.0066838770 0 0
0.0040422150 -0.0078674150 0 0
0.0036933440 -0.0095240510 0 0
0.0036079470 -0.0115050510 0 0
0.0038045490 -0.0136162710 0 0
0.0042721690 -0.0156364180 0 0
0.0049720370 -0.0173430770 0 0
0.0058425890 -0.0185418270 0 0
0.0068071020 -0.0190914140 0 0
0.0077838920 -0.0189197890 0 0
0.0086975480 -0.0180297620 0 0
0.0094879910 -0.0164953480 0 0
0.0101148700 -0.0144507830 0 0
0.0105570420 -0.0120750410 0 0
0.0108086030 -0.0095745470 0 0
0.0108737370 -0.0071653250 0 0
0.0107629030 -0.0050550800 0 0
0.0104917340 -0.0034261620 0 0
0.0100819580 -0.0024207100 0 0
0.0095627480 -0.0021292510 0 0
0.0089713550 -0.0025829870 0 0
0.0083521960 -0.0037486940 0 0
0.0077540610 -0.0055264670 0 0
0.0072258630 -0.0077532590 0 0
0.0068114440 -0.0102153770 0 0
0.0065439710 -0.0126707490 0 0
0.0064411290 -0.0148777770 0 0
0.0065023760 -0.0166241200 0 0
0.0067087250 -0.0177500830 0 0
0.0070250600 -0.0181649960 0 0
0.0074046150 -0.0178556890 0 0
0.0077950520 -0.0168855330 0 0
0.0081454720 -0.0153838660 0 0
0.0084128370 -0.0135280650 0 0
0.0085657850 -0.0115223130 0 0
0.0085853990 -0.0095765970 0 0
0.0084644980 -0.0078872980 0 0
0.0082068200 -0.0066197670 0 0
0.0078262920 -0.0058939160 0 0
0.0073462240 -0.0057744670 0 0
0.0067983660 -0.0062671110 0 0
0.0062218160 -0.0073201660 0 0
0.0056619170 -0.0088306510 0 0
0.0051688720 -0.0106546510 0 0
0.0047949470 -0.0126209540 0 0
0.0045894010 -0.0145452910 0 0
0.0045914250 -0.0162445210 0 0
0.0048222940 -0.0175529430 0 0
0.0052789720 -0.0183404720 0 0
0.0059317750 -0.0185282850 0 0
0.0067269350 -0.0180978630 0 0
0.0075930720 -0.0170922990 0 0
0.0084500270 -0.0156105670 0 0
0.0092186860 -0.0137963150 0 0
0.0098309230 -0.0118234710 0 0
0.0102388360 -0.0098804380 0 0
0.0104218370 -0.0081531290 0 0
0.0103896790 -0.0068070440 0 0
0.0101798680 -0.0059705660 0 0
0.0098497390 -0.0057226340 0 0
0.0094660150 -0.0060865300 0 0
0.0090951930 -0.0070294150 0 0
0.0087961840 -0.0084659550 0 0
0.0086149380 -0.0102646810 0 0
0.0085807090 -0.0122575270 0 0
0.0087038560 -0.0142538740 0 0
0.0089748780 -0.0160588790 0 0
0.0093646000 -0.0174940120 0 0
0.0098263210 -0.0184169660 0 0
0.0103006910 -0.0187379280 0 0
0.0107228820 -0.0184298110 0 0
0.0110305660 -0.0175314110 0 0
0.0111710430 -0.0161423320 0 0
0.0111068880 -0.0144086110 0 0
0.0108205620 -0.0125021340 0 0
0.0103177410 -0.0106016930 0 0
0.0096276390 -0.0088812470 0 0
0.0087988650 -0.0075029330 0 0
0.0078914590 -0.0066084210 0 0
0.0069675530 -0.0063061370 0 0
0.0060831510 -0.0066570030 0 0
0.0052827030 -0.0076623030 0 0
0.0045971210 -0.0092567420 0 0
0.0040448920 -0.0113097400 0 0
0.0036351460 -0.0136365750 0 0
0.0033709640 -0.0160179960 0 0
0.0032518370 -0.0182246760 0 0
0.0032753270 -0.0200426680 0 0
0.0034377170 -0.0212972070 0 0
0.0037323750 -0.0218728000 0 0
0.0041457810 -0.0217264980 0 0
0.0046542050 -0.0208906800 0 0
0.0052246360 -0.0194651270 0 0
0.0058202310 -0.0176027650 0 0
0.0064074260 -0.0154936020 0 0
0.0069616130 -0.0133475930 0 0
0.0074689740 -0.0113751980 0 0
0.0079238380 -0.0097666420 0 0
0.0083242170 -0.0086733460 0 0
0.0086689430 -0.0081940590 0 0
0.0089567770 -0.0083658650 0 0
0.0091859650 -0.0091596270 0 0
0.0093540120 -0.0104807070 0 0
0.0094587430 -0.0121764910 0 0
0.0095008640 -0.0140514410 0 0
0.0094861310 -0.0158888080 0 0
0.0094245430 -0.0174763330 0 0
0.0093263690 -0.0186312060 0 0
0.0091974060 -0.0192188700 0 0
0.0090361510 -0.0191627530 0 0
0.0088344320 -0.0184462100 0 0
0.0085814480 -0.0171104350 0 0
0.0082693240 -0.0152517630 0 0
0.0078976260 -0.0130187140 0 0
0.0074751230 -0.0106052980 0 0
0.0070185510 -0.0082363220 0 0
0.0065497500 -0.0061437200 0 0
0.0060934850 -0.0045373930 0 0
0.0056768830 -0.0035767150 0 0
0.0053293570 -0.0033493830 0 0
0.0050812630 -0.0038624660 0 0
0.0049605830 -0.0050468100 0 0
0.0049885100 -0.0067713690 0 0
0.0051755630 -0.0088613070 0 0
0.0055193100 -0.0111155410 0 0
0.0060035030 -0.0133239930 0 0
0.0065980580 -0.0152865300 0 0
0.0072603790 -0.0168323210 0 0
0.0079395950 -0.0178355460 0 0
0.0085838860 -0.0182249250 0 0
0.0091478990 -0.0179873030 0 0
0.0095967290 -0.0171660200 0 0
0.0099060820 -0.0158548230 0 0
0.0100610300 -0.0141889560 0 0
0.0100554610 -0.0123345830 0 0
0.0098923290 -0.0104756440 0 0
0.0095837060 -0.0087970980 0 0
0.0091502470 -0.0074665390 0 0
0.0086205000 -0.0066179120 0 0
0.0080303960 -0.0063389410 0 0
0.0074225280 -0.0066615430 0 0
0.0068439290 -0.0075555720 0 0
0.0063410650 -0.0089286470 0 0
0.0059528810 -0.0106348850 0 0
0.0057048080 -0.0124917590 0 0
0.0056058380 -0.0142996720 0 0
0.0056482820 -0.0158589320 0 0
0.0058091990 -0.0169847610 0 0
0.0060541070 -0.0175251020 0 0
0.0063436580 -0.0173821830 0 0
0.0066414910 -0.0165323130 0 0
0.0069203480 -0.0150363850 0 0
0.0071649800 -0.0130364090 0 0
0.0073718430 -0.0107372600 0 0
0.0075462090 -0.0083771660 0 0
0.0076983060 -0.0061943360 0 0
0.0078403380 -0.0043979690 0 0
0.0079849440 -0.0031493660 0 0
0.0081440980 -0.0025542210 0 0
0.0083273490 -0.0026621080 0 0
0.0085395120 -0.0034675420 0 0
0.0087790030 -0.0049099300 0 0
0.0090373500 -0.0068737110 0 0
0.0092990230 -0.0091925750 0 0
0.0095416250 -0.0116615820 0 0
0.0097384090 -0.0140574340 0 0
0.0098640570 -0.0161628330 0 0
0.0099011880 -0.0177900040 0 0
0.0098435150 -0.0188004370 0 0
0.0096936910 -0.0191186720 0 0
0.0094575120 -0.0187379590 0 0
0.0091388270 -0.0177173370 0 0
0.0087391030 -0.0161721690 0 0
0.0082619440 -0.0142608430 0 0
0.0077188310 -0.0121692390 0 0
0.0071314890 -0.0100940810 0 0
0.0065293540 -0.0082264500 0 0
0.0059443510 -0.0067361700 0 0
0.0054060850 -0.0057575440 0 0
0.0049391520 -0.0053769320 0 0
0.0045628640 -0.0056224180 0 0
0.0042925750 -0.0064570850 0 0
0.0041413510 -0.0077792780 0 0
0.0041210280 -0.0094320540 0 0
0.0042420390 -0.0112207090 0 0
0.0045113570 -0.0129352990 0 0
0.0049288930 -0.0143745090 0 0
0.0054844030 -0.0153673440 0 0
0.0061560940 -0.0157903040 0 0
0.0069098280 -0.0155790620 0 0
0.0076985320 -0.0147337420 0 0
0.0084640220 -0.0133170020 0 0
0.0091432620 -0.0114457120 0 0
0.0096779390 -0.0092789520 0 0
0.0100242410 -0.0070046380 0 0
0.0101603920 -0.0048251170 0 0
0.0100906610 -0.0029417440 0 0
0.0098450970 -0.0015387400 0 0
0.0094750330 -0.0007656920 0 0
0.0090453880 -0.0007190880 0 0
0.0086250460 -0.0014268940 0 0
0.0082765770 -0.0028414490 0 0
0.0080475800 -0.0048428760 0 0
0.0079661810 -0.0072518410 0 0
0.0080411900 -0.0098488620 0 0
0.0082653960 -0.0123971890 0 0
0.0086197260 -0.0146670480 0 0
0.0090764410 -0.0164593400 0 0
0.0096007850 -0.0176258350 0 0
0.0101518250 -0.0180826860 0 0
0.0106837240 -0.0178159820 0 0
0.0111483790 -0.0168804000 0 0
0.0114992930 -0.0153925310 0 0
0.0116963680 -0.0135196090 0 0
0.0117115950 -0.0114640730 0 0
0.0115348500 -0.0094450050 0 0
0.0111772750 -0.0076777840 0 0
0.0106697010 -0.0063535550 0 0
0.0100560410 -0.0056211850 0 0
0.0093848540 -0.0055744370 0 0
0.0087030440 -0.0062448870 0 0
0.0080529500 -0.0075991040 0 0
0.0074708240 -0.0095389850 0 0
0.0069851740 -0.0119064350 0 0
0.0066160030 -0.0144946090 0 0
0.0063758510 -0.0170664030 0 0
0.0062714330 -0.0193793860 0 0
0.0063042830 -0.0212153370 0 0
0.0064699000 -0.0224092060 0 0
0.0067559140 -0.0228696370 0 0
0.0071402810 -0.0225859960 0 0
0.0075904390 -0.0216224200 0 0
0.0080638670 -0.0201027390 0 0
0.0085107810 -0.0181912830 0 0
0.0088796600 -0.0160743690 0 0
0.0091248280 -0.0139454650 0 0
0.0092138120 -0.0119942980 0 0
0.0091326310 -0.0103981930 0 0
0.0088887640 -0.0093127590 0 0
0.0085121790 -0.0088584070 0 0
0.0080533990 -0.0091026100 0 0
0.0075772210 -0.0100443040 0 0
0.0071530300 -0.0116078320 0 0
0.0068443520 -0.0136486240 0 0
0.0066999900 -0.0159694370 0 0
0.0067482260 -0.0183449370 0 0
0.0069946630 -0.0205500090 0 0
0.0074230570 -0.0223856640 0 0
0.0079980610 -0.0236986050 0 0
0.0086690880 -0.0243937610 0 0
0.0093741790 -0.0244394940 0 0
0.0100426760 -0.0238645650 0 0
0.0105979040 -0.0227486220 0 0
0.0109635760 -0.0212109690 0 0
0.0110754570 -0.0194004240 0 0
0.0108945010 -0.0174854550 0 0
0.0104159600 -0.0156428960 0 0
0.0096721190 -0.0140439270 0 0
0.0087288410 -0.0128368600 0 0
0.0076758650 -0.0121288540 0 0
0.0066117590 -0.0119708710 0 0
0.0056273820 -0.0123500610 0 0
0.0047925710 -0.0131915490 0 0
0.0041486670 -0.0143691700 0 0
0.0037073080 -0.0157224920 0 0
0.0034552950 -0.0170760210 0 0
0.0033639460 -0.0182567210 0 0
0.0033992000 -0.0191080680 0 0
0.0035290450 -0.0195017460 0 0
0.0037271880 -0.0193492530 0 0
0.0039733300 -0.0186126620 0 0
0.0042509600 -0.0173110310 0 0
0.0045442500 -0.0155207850 0 0
0.0048362580 -0.0133708640 0 0
0.0051095890 -0.0110326850 0 0
0.0053486170 -0.0087047900 0 0
0.0055416870 -0.0065937820 0 0
0.0056826830 -0.0048935960 0 0
0.0057720100 -0.0037646210 0 0
0.0058170970 -0.0033150700 0 0
0.0058325840 -0.0035885920 0 0
0.0058396570 -0.0045614110 0 0
0.0058638170 -0.0061479550 0 0
0.0059313890 -0.0082105330 0 0
0.0060658290 -0.0105711000 0 0
0.0062843640 -0.0130265750 0 0
0.0065948290 -0.0153671870 0 0
0.0069926780 -0.0173945940 0 0
0.0074589850 -0.0189379200 0 0
0.0079606190 -0.0198678270 0 0
0.0084529970 -0.0201082930 0 0
0.0088848480 -0.0196442540 0 0
0.0092039950 -0.0185228250 0 0
0.0093634900 -0.0168485970 0 0
0.0093277720 -0.0147767350 0 0
0.0090782200 -0.0125050000 0 0
0.0086174760 -0.0102610100 0 0
0.0079720990 -0.0082814240 0 0
0.0071922300 -0.0067840130 0 0
0.0063463190 -0.0059375620 0 0
0.0055110900 -0.0058368070 0 0
0.0047601140 -0.0064883280 0 0
0.0041548350 -0.0078097750 0 0
0.0037396000 -0.0096419780 0 0
0.0035398490 -0.0117714190 0 0
0.0035621790 -0.0139589070 0 0
0.0037958840 -0.0159697740 0 0
0.0042154090 -0.0176009080 0 0
0.0047824940 -0.0187002630 0 0
0.0054478980 -0.0191764830 0 0
0.0061541860 -0.0190000070 0 0
0.0068404940 -0.0181995700 0 0
0.0074485730 -0.0168567540 0 0
0.0079287600 -0.0150986410 0 0
0.0082451520 -0.0130880560 0 0
0.0083798100 -0.0110115840 0 0
0.0083350090 -0.0090653310 0 0
0.0081317240 -0.0074383110 0 0
0.0078037770 -0.0062945570 0 0
0.0073894520 -0.0057561660 0 0
0.0069237370 -0.0058899000 0 0
0.0064335620 -0.0066989530 0 0
0.0059367240 -0.0081198680 0 0
0.0054438410 -0.0100249660 0 0
0.0049620910 -0.0122323920 0 0
0.0044990960 -0.0145249830 0 0
0.0040654340 -0.0166752250 0 0
0.0036744740 -0.0184711100 0 0
0.0033392580 -0.0197390700 0 0
0.0030682170 -0.0203622040 0 0
0.0028627620 -0.0202924870 0 0
0.0027182990 -0.0195564470 0 0
0.0026278450 -0.0182541580 0 0
0.0025864000 -0.0165495220 0 0
0.0025940710 -0.0146502200 0 0
0.0026563860 -0.0127807570 0 0
0.0027817200 -0.0111561070 0 0
0.0029769710 -0.0099611990 0 0
0.0032428410 -0.0093357510 0 0
0.0035702340 -0.0093619190 0 0
0.0039394270 -0.0100550650 0 0
0.0043229530 -0.0113606880 0 0
0.0046911360 -0.0131599610 0 0
0.0050176790 -0.0152839930 0 0
0.0052836540 -0.0175343380 0 0
0.0054801440 -0.0197047460 0 0
0.0056096490 -0.0215992470 0 0
0.0056850900 -0.0230455160 0 0
0.0057256920 -0.0239063270 0 0
0.0057512990 -0.0240917390 0 0
0.0057774880 -0.0235707990 0 0
0.0058121440 -0.0223779930 0 0
0.0058533750 -0.0206105210 0 0
0.0058899040 -0.0184168390 0 0
0.0059050260 -0.0159809400 0 0
0.0058827330 -0.0135069400 0 0
0.0058128750 -0.0112047730 0 0
0.0056931010 -0.0092742960 0 0
0.0055274170 -0.0078858730 0 0
0.0053226530 -0.0071596700 0 0
0.0050854870 -0.0071495880 0 0
0.0048227520 -0.0078372140 0 0
0.0045450960 -0.0091369840 0 0
0.0042708250 -0.0109095190 0 0
0.0040261330 -0.0129783850 0 0
0.0038406100 -0.0151467180 0 0
0.0037403180 -0.0172135340 0 0
0.0037413920 -0.0189909060 0 0
0.0038458850 -0.0203206360 0 0
0.0040411320 -0.0210875370 0 0
0.0043031270 -0.0212285080 0 0
0.0046022760 -0.0207382800 0 0
0.0049087660 -0.0196719760 0 0
0.0051961470 -0.0181427890 0 0
0.0054435610 -0.0163125680 0 0
0.0056370230 -0.0143752400 0 0
0.0057692970 -0.0125354790 0 0
0.0058386650 -0.0109857050 0 0
0.0058481280 -0.0098843510 0 0
0.0058056840 -0.0093383910 0 0
0.0057247580 -0.0093929980 0 0
0.0056239620 -0.0100297620 0 0
0.0055262110 -0.0111720960 0 0
0.0054567300 -0.0126946420 0 0
0.0054390870 -0.0144349400 0 0
0.0054901170 -0.0162077500 0 0
0.0056165740 -0.0178219300 0 0
0.0058152620 -0.0190984640 0 0
0.0060756000 -0.0198880020 0 0
0.0063827330 -0.0200863310 0 0
0.0067201830 -0.0196460170 0 0
0.0070717350 -0.0185831300 0 0
0.0074225770 -0.0169781740 0 0
0.0077599350 -0.0149698590 0 0
0.0080736050 -0.0127416320 0 0
0.0083565930 -0.0105027200 0 0
0.0086053640 -0.0084653510 0 0
0.0088189090 -0.0068196270 0 0
0.0089970300 -0.0057096780 0 0
0.0091391630 -0.0052169970 0 0
0.0092441130 -0.0053551730 0 0
0.0093099450 -0.0060752490 0 0
0.0093338010 -0.0072772620 0 0
0.0093122460 -0.0088236890 0 0
0.0092419820 -0.0105526350 0 0
0.0091199060 -0.0122905270 0 0
0.0089421540 -0.0138648660 0 0
0.0087031370 -0.0151171930 0 0
0.0083956080 -0.0159159750 0 0
0.0080113970 -0.0161690520 0 0
0.0075420530 -0.0158345930 0 0
0.0069796430 -0.0149282660 0 0
0.0063181170 -0.0135244900 0 0
0.0055549070 -0.0117506680 0 0
0.0046924110 -0.0097744050 0 0
0.0037397060 -0.0077848130 0 0
0.0027146480 -0.0059703030 0 0
0.0016451500 -0.0044961840 0 0
0.0005677340 -0.0034857940 0 0
-0.0004768850 -0.0030086470 0 0
-0.0014492860 -0.0030775630 0 0
-0.0023160790 -0.0036531080 0 0
-0.0030530440 -0.0046511650 0 0
-0.0036456100 -0.0059516130 0 0
-0.0040862280 -0.0074091820 0 0
-0.0043705130 -0.0088669650 0 0
-0.0044953220 -0.0101705780 0 0
-0.0044603610 -0.0111806660 0 0
-0.0042719630 -0.0117834000 0 0
-0.0039459420 -0.0119003660 0 0
-0.0035077410 -0.0114983170 0 0
-0.0029905020 -0.0105964550 0 0
-0.0024324320 -0.0092679240 0 0
-0.0018743890 -0.0076342330 0 0
-0.0013581840 -0.0058539160 0 0
-0.0009250430 -0.0041069670 0 0
-0.0006128520 -0.0025759910 0 0
-0.0004515960 -0.0014269180 0 0
-0.0004574080 -0.0007931570 0 0
-0.0006265400 -0.0007638560 0 0
-0.0009324240 -0.0013749230 0 0
-0.0013291400 -0.0026033820 0 0
-0.0017611310 -0.0043662990 0 0
-0.0021750590 -0.0065245650 0 0
-0.0025292120 -0.0088925880 0 0
-0.0027984060 -0.0112555900 0 0
-0.0029750180 -0.0133938770 0 0
-0.0030672810 -0.0151095580 0 0
-0.0030953720 -0.0162499810 0 0
-0.0030858440 -0.0167246150 0 0
-0.0030655790 -0.0165148020 0 0
-0.0030565190 -0.0156757270 0 0
-0.0030717430 -0.0143287000 0 0
-0.0031131910 -0.0126426800 0 0
-0.0031718290 -0.0108075580 0 0
-0.0032308620 -0.0090066980 0 0
-0.0032709320 -0.0073978180 0 0
-0.0032750460 -0.0061053630 0 0
-0.0032318190 -0.0052202190 0 0
-0.0031369200 -0.0048012470 0 0
-0.0029929340 -0.0048749800 0 0
-0.0028078260 -0.0054317020 0 0
-0.0025925590 -0.0064191780 0 0
-0.0023587130 -0.0077387670 0 0
-0.0021168430 -0.0092492020 0 0
-0.0018760110 -0.0107799060 0 0
-0.0016443750 -0.0121509500 0 0
-0.0014306300 -0.0131947700 0 0
-0.0012461360 -0.0137760660 0 0
-0.0011066760 -0.0138077410 0 0
-0.0010322580 -0.0132606630 0 0
-0.0010447070 -0.0121658570 0 0
-0.0011640900 -0.0106099900 0 0
-0.0014047510 -0.0087260960 0 0
-0.0017714070 -0.0066808470 0 0
-0.0022558190 -0.0046595880 0 0
-0.0028345560 -0.0028506030 0 0
-0.0034686950 -0.0014289700 0 0
-0.0041066360 -0.0005392010 0 0
-0.0046898050 -0.0002772700 0 0
-0.0051593580 -0.0006758390 0 0
-0.0054623940 -0.0016975900 0 0
-0.0055575570 -0.0032384360 0 0
-0.0054202630 -0.0051391950 0 0
-0.0050472980 -0.0072043970 0 0
-0.0044597210 -0.0092268230 0 0
-0.0037021260 -0.0110137960 0 0
-0.0028374590 -0.0124089070 0 0
-0.0019392550 -0.0133050630 0 0
-0.0010839350 -0.0136497270 0 0
-0.0003439830 -0.0134446620 0 0
0.0002185100 -0.0127403300 0 0
0.0005578370 -0.0116253960 0 0
0.0006493560 -0.0102142780 0 0
0.0004921550 -0.0086359520 0 0
0.0001088380 -0.0070248640 0 0
-0.0004580230 -0.0055130990 0 0
-0.0011516140 -0.0042232830 0 0
-0.0019069130 -0.0032626940 0 0
-0.0026564740 -0.0027187100 0 0
-0.0033366170 -0.0026537580 0 0
-0.0038943420 -0.0030972770 0 0
-0.0042941740 -0.0040350540 0 0
-0.0045230770 -0.0053999470 0 0
-0.0045910070 -0.0070693130 0 0
-0.0045257270 -0.0088733920 0 0
-0.0043640830 -0.0106156620 0 0
-0.0041443740 -0.0121010850 0 0
-0.0039023670 -0.0131644170 0 0
-0.0036693420 -0.0136920860 0 0
-0.0034698610 -0.0136344240 0 0
-0.0033195450 -0.0130069230 0 0
-0.0032248950 -0.0118813840 0 0
-0.0031864540 -0.0103711700 0 0
-0.0032042320 -0.0086162780 0 0
-0.0032819090 -0.0067719190 0 0
-0.0034271160 -0.0050001740 0 0
-0.0036481850 -0.0034620250 0 0
-0.0039492010 -0.0023072310 0 0
-0.0043247560 -0.0016608470 0 0
-0.0047557490 -0.0016076110 0 0
-0.0052078670 -0.0021778370 0 0
-0.0056339100 -0.0033390420 0 0
-0.0059801340 -0.0049960850 0 0
-0.0061955540 -0.0070003010 0 0
-0.0062420020 -0.0091659090 0 0
-0.0061024510 -0.0112899800 0 0
-0.0057858230 -0.0131718530 0 0
-0.0053274570 -0.0146307270 0 0
-0.0047850030 -0.0155225230 0 0
-0.0042302960 -0.0157554230 0 0
-0.0037391550 -0.0153015920 0 0
-0.0033814930 -0.0142034950 0 0
-0.0032132850 -0.0125740320 0 0
-0.0032709780 -0.0105883200 0 0
-0.0035678870 -0.0084647410 0 0
-0.0040919140 -0.0064362800 0 0
-0.0048052240 -0.0047183300 0 0
-0.0056475770 -0.0034815910 0 0
-0.0065438560 -0.0028359390 0 0
-0.0074139390 -0.0028250700 0 0
-0.0081821160 -0.0034274360 0 0
-0.0087846700 -0.0045595640 0 0
-0.0091754240 -0.0060812890 0 0
-0.0093288270 -0.0078048940 0 0
-0.0092400320 -0.0095102580 0 0
-0.0089221920 -0.0109663930 0 0
-0.0084028330 -0.0119569140 0 0
-0.0077217240 -0.0123053230 0 0
-0.0069309110 -0.0118965700 0 0
-0.0060951170 -0.0106916990 0 0
-0.0052898840 -0.0087321400 0 0
-0.0045955200 -0.0061329260 0 0
-0.0040869220 -0.0030676970 0 0
-0.0038217760 0.0002509330 0 0
-0.0038311900 0.0035926170 0 0
-0.0041162750 0.0067297030 0 0
-0.0046511250 0.0094562360 0 0
-0.0053891680 0.0116060980 0 0
-0.0062692390 0.0130688880 0 0
-0.0072199460 0.0138003010 0 0
-0.0081632700 0.0138250460 0 0
-0.0090193410 0.0132325240 0 0
-0.0097132900 0.0121667030 0 0
-0.0101828090 0.0108122150 0 0
-0.0103842100 0.0093780790 0 0
-0.0102960020 0.0080793610 0 0
-0.0099203220 0.0071171030 0 0
-0.0092821030 0.0066580910 0 0
-0.0084253120 0.0068167430 0 0
-0.0074068310 0.0076417610 0 0
-0.0062902760 0.0091100850 0 0
-0.0051416570 0.0111298780 0 0
-0.0040267940 0.0135521440 0 0
-0.0030088100 0.0161875990 0 0
-0.0021441130 0.0188249980 0 0
-0.0014771470 0.0212497700 0 0
-0.0010355280 0.0232631950 0 0
-0.0008263740 0.0247012830 0 0
-0.0008343000 0.0254514870 0 0
-0.0010228530 0.0254650210 0 0
-0.0013404290 0.0247628560 0 0
-0.0017293480 0.0234344690 0 0
-0.0021357820 0.0216296570 0 0
-0.0025179830 0.0195443710 0 0
-0.0028500470 0.0174012760 0 0
-0.0031197420 0.0154261020 0 0
-0.0033222120 0.0138234950 0 0
-0.0034537930 0.0127579850 0 0
-0.0035093120 0.0123427280 0 0
-0.0034834870 0.0126335390 0 0
-0.0033750860 0.0136250340 0 0
-0.0031913700 0.0152489850 0 0
-0.0029501250 0.0173775210 0 0
-0.0026778210 0.0198334490 0 0
-0.0024046380 0.0224070330 0 0
-0.0021588370 0.0248760480 0 0
-0.0019629260 0.0270261550 0 0
-0.0018318050 0.0286700460 0 0
-0.0017714270 0.0296640360 0 0
-0.0017778720 0.0299206570 0 0
-0.0018384060 0.0294161280 0 0
-0.0019350560 0.0281923690 0 0
-0.0020485560 0.0263536140 0 0
-0.0021597400 0.0240572040 0 0
-0.0022482670 0.0214983680 0 0
-0.0022922250 0.0188908010 0 0
-0.0022714040 0.0164462490 0 0
-0.0021723940 0.0143552900 0 0
-0.0019915750 0.0127700090 0 0
-0.0017349020 0.0117896480 0 0
-0.0014160860 0.0114508040 0 0
-0.0010544150 0.0117229490 0 0
-0.0006726280 0.0125096210 0 0
-0.0002949020 0.0136566600 0 0
0.0000555439 0.0149685740 0 0
0.0003599130 0.0162313860 0 0
0.0006079210 0.0172382110 0 0
0.0008008360 0.0178142080 0 0
0.0009518060 0.0178380570 0 0
0.0010832600 0.0172567310 0 0
0.0012223560 0.0160904560 0 0
0.0013953320 0.0144268490 0 0
0.0016217800 0.0124063660 0 0
0.0019106260 0.0102028510 0 0
0.0022586670 0.0080023450 0 0
0.0026506980 0.0059836120 0 0
0.0030607960 0.0043042040 0 0
0.0034554780 0.0030919550 0 0
0.0037984640 0.0024377990 0 0
0.0040559210 0.0023880360 0 0
0.0042016090 0.0029381410 0 0
0.0042209100 0.0040302910 0 0
0.0041119470 0.0055551820 0 0
0.0038834840 0.0073584380 0 0
0.0035515660 0.0092524710 0 0
0.0031368980 0.0110341040 0 0
0.0026633550 0.0125058620 0 0
0.0021570310 0.0134979100 0 0
0.0016454100 0.0138885970 0 0
0.0011566310 0.0136204990 0 0
0.0007187190 0.0127075760 0 0
0.0003584570 0.0112316440 0 0
0.0000998936 0.0093302900 0 0
-0.0000372203 0.0071795070 0 0
-0.0000390726 0.0049733850 0 0
0.0001000300 0.0029025600 0 0
0.0003749710 0.0011336470 0 0
0.0007680380 -0.0002068160 0 0
0.0012498570 -0.0010401230 0 0
0.0017830540 -0.0013343140 0 0
0.0023263380 -0.0010988660 0 0
0.0028374870 -0.0003815470 0 0
0.0032762310 0.0007308480 0 0
0.0036076840 0.0021127410 0 0
0.0038052060 0.0036060630 0 0
0.0038521510 0.0050322450 0 0
0.0037439380 0.0062071380 0 0
0.0034913450 0.0069582520 0 0
0.0031231780 0.0071444290 0 0
0.0026852660 0.0066760000 0 0
0.0022342620 0.0055315360 0 0
0.0018275260 0.0037668600 0 0
0.0015129090 0.0015129760 0 0
0.0013221930 -0.0010376710 0 0
0.0012688060 -0.0036538690 0 0
0.0013480510 -0.0060927030 0 0
0.0015389650 -0.0081266320 0 0
0.0018081400 -0.0095672310 0 0
0.0021148540 -0.0102832070 0 0
0.0024158250 -0.0102115400 0 0
0.0026692370 -0.0093617190 0 0
0.0028389590 -0.0078132530 0 0
0.0028986930 -0.0057066750 0 0
0.0028344290 -0.0032289650 0 0
0.0026445270 -0.0005952140 0 0
0.0023384810 0.0019708760 0 0
0.0019360990 0.0042551940 0 0
0.0014680590 0.0060699090 0 0
0.0009766480 0.0072700210 0 0
0.0005138820 0.0077693710 0 0
0.0001355230 0.0075526440 0 0
-0.0001078790 0.0066797820 0 0
-0.0001803570 0.0052811800 0 0
-0.0000674621 0.0035432640 0 0
0.0002214240 0.0016850280 0 0
0.0006560350 -0.0000706370 0 0
0.0011920190 -0.0015238220 0 0
0.0017787490 -0.0025167610 0 0
0.0023657410 -0.0029443200 0 0
0.0029069400 -0.0027592190 0 0
0.0033632010 -0.0019757040 0 0
0.0037032840 -0.0006717700 0 0
0.0039037850 0.0010138320 0 0
0.0039493280 0.0028934810 0 0
0.0038342570 0.0047510660 0 0
0.0035650910 0.0063668850 0 0
0.0031619520 0.0075432130 0 0
0.0026583730 0.0081281520 0 0
0.0020999890 0.0080346410 0 0
0.0015419870 0.0072507210 0 0
0.0010447710 0.0058388950 0 0
0.0006681190 0.0039254130 0 0
0.0004641950 0.0016829570 0 0
0.0004693030 -0.0006886610 0 0
0.0006954440 -0.0029811380 0 0
0.0011249240 -0.0049957930 0 0
0.0017112780 -0.0065608650 0 0
0.0023869310 -0.0075455860 0 0
0.0030749460 -0.0078691260 0 0
0.0037014520 -0.0075051320 0 0
0.0042060920 -0.0064832420 0 0
0.0045485170 -0.0048877040 0 0
0.0047101140 -0.0028525670 0 0
0.0046917370 -0.0005527860 0 0
0.0045088480 0.0018102370 0 0
0.0041852120 0.0040293100 0 0
0.0037465710 0.0059148700 0 0
0.0032170690 0.0073143930 0 0
0.0026206140 0.0081234430 0 0
0.0019859580 0.0082898750 0 0
0.0013515860 0.0078152450 0 0
0.0007672050 0.0067550070 0 0
0.0002911750 0.0052156260 0 0
-0.0000150242 0.0033464590 0 0
-0.0000938613 0.0013268260 0 0
0.0001003030 -0.0006494810 0 0
0.0005925540 -0.0023912160 0 0
0.0013791520 -0.0037283610 0 0
0.0024227060 -0.0045312940 0 0
0.0036537580 -0.0047274960 0 0
0.0049793050 -0.0043119290 0 0
0.0062963530 -0.0033470790 0 0
0.0075069490 -0.0019517010 0 0
0.0085301350 -0.0002827490 0 0
0.0093079090 0.0014828410 0 0
0.0098060710 0.0031632440 0 0
0.0100129300 0.0045852750 0 0
0.0099380150 0.0055994580 0 0
0.0096107420 0.0060964800 0 0
0.0090776050 0.0060210960 0 0
0.0083974340 0.0053790600 0 0
0.0076361770 0.0042352280 0 0
0.0068624600 0.0027051380 0 0
0.0061431260 0.0009444010 0 0
0.0055371210 -0.0008630420 0 0
0.0050879880 -0.0025207980 0 0
0.0048174740 -0.0038413510 0 0
0.0047225380 -0.0046693180 0 0
0.0047762390 -0.0049015640 0 0
0.0049321490 -0.0045007560 0 0
0.0051319390 -0.0035005370 0 0
0.0053154310 -0.0020022310 0 0
0.0054312660 -0.0001639460 0 0
0.0054455560 0.0018179080 0 0
0.0053464680 0.0037334880 0 0
0.0051438410 0.0053851200 0 0
0.0048642710 0.0066064660 0 0
0.0045437740 0.0072730680 0 0
0.0042206120 0.0073077870 0 0
0.0039293050 0.0066849700 0 0
0.0036957760 0.0054335840 0 0
0.0035346950 0.0036370090 0 0
0.0034505020 0.0014279510 0 0
0.0034412770 -0.0010207870 0 0
0.0035027190 -0.0035080180 0 0
0.0036306820 -0.0058180770 0 0
0.0038225850 -0.0077380450 0 0
0.0040777600 -0.0090791770 0 0
0.0043957360 -0.0097010600 0 0
0.0047727080 -0.0095337250 0 0
0.0051984190 -0.0085913770 0 0
0.0056552670 -0.0069731910 0 0
0.0061194510 -0.0048512280 0 0
0.0065631620 -0.0024491340 0 0
0.0069571720 -0.0000157789 0 0
0.0072735850 0.0022022100 0 0
0.0074892000 0.0039855360 0 0
0.0075903160 0.0051629300 0 0
0.0075784340 0.0056262830 0 0
0.0074738630 0.0053390900 0 0
0.0073143140 0.0043377330 0 0
0.0071481410 0.0027262000 0 0
0.0070244130 0.0006652350 0 0
0.0069835440 -0.0016429660 0 0
0.0070518300 -0.0039735760 0 0
0.0072404840 -0.0061006940 0 0
0.0075473220 -0.0078196160 0 0
0.0079590510 -0.0089660500 0 0
0.0084531820 -0.0094296580 0 0
0.0089995800 -0.0091622790 0 0
0.0095624160 -0.0081821790 0 0
0.0101031640 -0.0065742710 0 0
0.0105838810 -0.0044855330 0 0
0.0109698590 -0.0021143940 0 0
0.0112322630 0.0003076860 0 0
0.0113520390 0.0025421430 0 0
0.0113244630 0.0043719150 0 0
0.0111613280 0.0056259430 0 0
0.0108880240 0.0061952020 0 0
0.0105366330 0.0060398010 0 0
0.0101397560 0.0051887550 0 0
0.0097283060 0.0037340160 0 0
0.0093317570 0.0018202750 0 0
0.0089768870 -0.0003680250 0 0
0.0086829050 -0.0026217940 0 0
0.0084548830 -0.0047244160 0 0
0.0082800660 -0.0064700560 0 0
0.0081302790 -0.0076818790 0 0
0.0079692930 -0.0082291150 0 0
0.0077617490 -0.0080417520 0 0
0.0074813610 -0.0071206550 0 0
0.0071168440 -0.0055401770 0 0
0.0066737570 -0.0034419190 0 0
0.0061713580 -0.0010213160 0 0
0.0056352000 0.0014902970 0 0
0.0050875780 0.0038473030 0 0
0.0045399830 0.0058142770 0 0
0.0039913290 0.0071901050 0 0
0.0034319180 0.0078274260 0 0
0.0028501160 0.0076445560 0 0
0.0022383200 0.0066302790 0 0
0.0015950090 0.0048437930 0 0
0.0009215970 0.0024101630 0 0
0.0002162890 -0.0004906900 0 0
-0.0005315080 -0.0036419150 0 0
-0.0013444320 -0.0068123370 0 0
-0.0022583750 -0.0097800570 0 0
-0.0033219020 -0.0123528740 0 0
-0.0045930530 -0.0143829820 0 0
-0.0061326830 -0.0157758040 0 0
-0.0079950200 -0.0164938670 0 0
-0.0102187610 -0.0165570480 0 0
-0.0128230130 -0.0160407670 0 0
-0.0158089520 -0.0150727950 0 0
-0.0191639300 -0.0138271620 0 0
-0.0228650220 -0.0125118640 0 0
-0.0268818730 -0.0113484010 0 0
-0.0311796890 -0.0105458370 -1 0
-0.0357219630 -0.0102754950 -1 0
-0.0404721580 -0.0106522410 -1 0
-0.0453948820 -0.0117254760 -1 0
-0.0504575600 -0.0134787460 -1 0
-0.0556329070 -0.0158343210 -1 0
-0.0609017560 -0.0186598140 -1 0
-0.0662550640 -0.0217771850 -1 0
-0.0716938100 -0.0249771310 -1 0
-0.0772267820 -0.0280401900 -1 0
-0.0828672940 -0.0307616880 -1 -1
-0.0886295740 -0.0329759690 -1 -1
-0.0945252510 -0.0345761490 -1 -1
-0.1005607070 -0.0355265320 -1 -1
-0.1067361550 -0.0358662360 -1 -1
-0.1130466830 -0.0357045140 -1 -1
-0.1194844040 -0.0352092140 -1 -1
-0.1260398600 -0.0345896140 -1 -1
-0.1327013440 -0.0340744770 -1 -1
-0.1394524160 -0.0338866910 -1 -1
-0.1462694450 -0.0342172620 -1 -1
-0.1531209790 -0.0352022830 -1 -1
-0.1599693710 -0.0369056100 -1 -1
-0.1667736040 -0.0393088740 -1 -1
-0.1734920310 -0.0423104100 -1 -1
-0.1800849190 -0.0457347950 -1 -1
-0.1865179990 -0.0493537940 -1 -1
-0.1927671300 -0.0529165560 -1 -1
-0.1988220800 -0.0561828660 -1 -1
-0.2046875140 -0.0589519270 -1 -1
-0.2103806250 -0.0610819780 -1 -1
-0.2159258330 -0.0624996350 -1 -1
-0.2213476300 -0.0631999680 -1 -1
-0.2266631150 -0.0632405580 -1 -1
-0.2318763090 -0.0627329190 -1 -1
-0.2369765690 -0.0618311310 -1 -1
-0.2419415690 -0.0607160140 -1 -1
-0.2467427660 -0.0595763720 -1 -1
-0.2513505580 -0.0585906330 -1 -1
-0.2557374620 -0.0579108470 -1 -1
-0.2598786810 -0.0576500000 -1 -1
-0.2637505030 -0.0578740200 -1 -1
-0.2673281590 -0.0586000920 -1 -1
-0.2705851330 -0.0598009110 -1 -1
-0.2734954090 -0.0614112500 -1 -1
-0.2760389540 -0.0633331050 -1 -1
-0.2782086940 -0.0654402190 -1 -1
-0.2800156480 -0.0675856880 -1 -1
-0.2814895760 -0.0696136880 -1 -1
-0.2826754540 -0.0713726690 -1 -1
-0.2836283600 -0.0727276720 -1 -1
-0.2844085860 -0.0735721720 -1 -1
-0.2850768230 -0.0738399660 -1 -1
-0.2856888790 -0.0735148170 -1 -1
-0.2862903530 -0.0726346340 -1 -1
-0.2869125410 -0.0712894780 -1 -1
-0.2875708130 -0.0696149220 -1 -1
-0.2882655190 -0.0677816460 -1 -1
-0.2889842240 -0.0659805880 -1 -1
-0.2897041590 -0.0644036130 -1 -1
-0.2903950670 -0.0632220500 -1 -1
-0.2910233070 -0.0625671660 -1 -1
-0.2915566980 -0.0625159790 -1 -1
-0.2919683140 -0.0630836440 -1 -1
-0.2922388420 -0.0642223770 -1 -1
-0.2923583610 -0.0658268610 -1 -1
-0.2923276800 -0.0677452950 -1 -1
-0.2921586220 -0.0697944390 -1 -1
-0.2918730830 -0.0717776170 -1 -1
-0.2915012880 -0.0735047470 -1 -1
-0.2910795710 -0.0748124390 -1 -1
-0.2906480340 -0.0755817930 -1 -1
-0.2902482560 -0.0757518130 -1 -1
-0.2899207900 -0.0753265470 -1 -1
-0.2897019170 -0.0743743330 -1 -1
-0.2896197540 -0.0730186600 -1 -1
-0.2896908950 -0.0714226220 -1 -1
-0.2899186970 -0.0697706870 -1 -1
-0.2902935190 -0.0682512350 -1 -1
-0.2907946320 -0.0670413650 -1 -1
-0.2913927790 -0.0662930050 -1 -1
-0.2920521300 -0.0661186060 -1 -1
-0.2927313140 -0.0665771240 -1 -1
-0.2933837730 -0.0676644210 -1 -1
-0.2939581980 -0.0693118380 -1 -1
-0.2944010570 -0.0713924270 -1 -1
-0.2946628650 -0.0737317450 -1 -1
-0.2947068170 -0.0761210110 -1 -1
-0.2945163020 -0.0783322050 -1 -1
-0.2940989210 -0.0801362880 -1 -1
-0.2934864610 -0.0813262290 -1 -1
-0.2927306400 -0.0817438400 -1 -1
-0.2918949720 -0.0813051870 -1 -1
-0.2910447090 -0.0800171310 -1 -1
-0.2902378340 -0.0779801100 -1 -1
-0.2895194270 -0.0753770010 -1 -1
-0.2889200680 -0.0724506260 -1 -1
-0.2884572380 -0.0694734660 -1 -1
-0.2881374540 -0.0667151290 -1 -1
-0.2879567880 -0.0644136540 -1 -1
-0.2878992460 -0.0627533540 -1 -1
-0.2879347940 -0.0618488530 -1 -1
-0.2880196000 -0.0617357510 -1 -1
-0.2881005200 -0.0623699900 -1 -1
-0.2881240410 -0.0636368780 -1 -1
-0.2880468340 -0.0653676410 -1 -1
-0.2878437160 -0.0673598270 -1 -1
-0.2875109150 -0.0693984990 -1 -1
-0.2870650370 -0.0712763220 -1 -1
-0.2865393400 -0.0728117070 -1 -1
-0.2859787050 -0.0738642850 -1 -1
-0.2854333310 -0.0743460230 -1 -1
-0.2849506110 -0.0742265530 -1 -1
-0.2845662780 -0.0735336010 -1 -1
-0.2842976440 -0.0723497990 -1 -1
-0.2841412060 -0.0708044190 -1 -1
-0.2840749150 -0.0690583770 -1 -1
-0.2840641340 -0.0672847850 -1 -1
-0.2840700310 -0.0656504910 -1 -1
-0.2840588550 -0.0643033190 -1 -1
-0.2840097580 -0.0633657180 -1 -1
-0.2839185800 -0.0629311930 -1 -1
-0.2837964430 -0.0630584440 -1 -1
-0.2836643200 -0.0637617960 -1 -1
-0.2835459250 -0.0650015710 -1 -1
-0.2834608350 -0.0666792970 -1 -1
-0.2834191010 -0.0686407670 -1 -1
-0.2834184930 -0.0706887010 -1 -1
-0.2834450800 -0.0726050310 -1 -1
-0.2834771670 -0.0741785940 -1 -1
-0.2834916700 -0.0752312500 -1 -1
-0.2834711240 -0.0756374260 -1 -1
-0.2834094260 -0.0753356460 -1 -1
-0.2833146560 -0.0743321020 -1 -1
-0.2832079660 -0.0726972750 -1 -1
-0.2831188510 -0.0705574340 -1 -1
-0.2830782580 -0.0680818860 -1 -1
-0.2831112120 -0.0654657700 -1 -1
-0.2832306370 -0.0629096470 -1 -1
-0.2834340150 -0.0606000540 -1 -1
-0.2837035540 -0.0586957070 -1 -1
-0.2840092290 -0.0573201100 -1 -1
-0.2843135050 -0.0565572210 -1 -1
-0.2845766270 -0.0564468450 -1 -1
-0.2847613480 -0.0569789390 -1 -1
-0.2848361910 -0.0580882580 -1 -1
-0.2847770560 -0.0596526550 -1 -1
-0.2845681830 -0.0614984490 -1 -1
-0.2842044180 -0.0634147480 -1 -1
-0.2836952650 -0.0651763880 -1 -1
-0.2830683720 -0.0665725210 -1 -1
-0.2823688890 -0.0674351310 -1 -1
-0.2816532190 -0.0676608760 -1 -1
-0.2809795740 -0.0672214120 -1 -1
-0.2803992330 -0.0661608210 -1 -1
-0.2799504550 -0.0645828470 -1 -1
-0.2796549470 -0.0626336010 -1 -1
-0.2795166350 -0.0604852010 -1 -1
-0.2795229920 -0.0583222810 -1 -1
-0.2796488920 -0.0563293180 -1 -1
-0.2798619520 -0.0546765840 -1 -1
-0.2801274350 -0.0535058990 -1 -1
-0.2804112140 -0.0529191950 -1 -1
-0.2806809860 -0.0529702770 -1 -1
-0.2809071490 -0.0536574970 -1 -1
-0.2810640530 -0.0549170390 -1 -1
-0.2811312960 -0.0566208790 -1 -1
-0.2810948460 -0.0585848320 -1 -1
-0.2809480270 -0.0605882560 -1 -1
-0.2806925540 -0.0624014180 -1 -1
-0.2803403820 -0.0638142700 -1 -1
-0.2799159760 -0.0646619030 -1 -1
-0.2794566670 -0.0648435390 -1 -1
-0.2790094030 -0.0643326600 -1 -1
-0.2786246870 -0.0631774240 -1 -1
-0.2783497510 -0.0614931540 -1 -1
-0.2782225780 -0.0594496220 -1 -1
-0.2782672650 -0.0572545660 -1 -1
-0.2784905760 -0.0551339680 -1 -1
-0.2788796690 -0.0533099860 -1 -1
-0.2794015090 -0.0519778780 -1 -1
-0.2800052820 -0.0512828710 -1 -1
-0.2806292200 -0.0512982860 -1 -1
-0.2812110480 -0.0520094810 -1 -1
-0.2816983220 -0.0533115970 -1 -1
-0.2820547380 -0.0550253180 -1 -1
-0.2822615530 -0.0569253550 -1 -1
-0.2823160770 -0.0587721550 -1 -1
-0.2822287460 -0.0603411380 -1 -1
-0.2820185510 -0.0614471490 -1 -1
-0.2817075620 -0.0619615110 -1 -1
-0.2813175850 -0.0618202290 -1 -1
-0.2808706770 -0.0610260900 -1 -1
-0.2803912520 -0.0596484240 -1 -1
-0.2799056770 -0.0578197330 -1 -1
-0.2794376910 -0.0557248620 -1 -1
-0.2790021670 -0.0535797650 -1 -1
-0.2786019300 -0.0516018390 -1 -1
-0.2782302370 -0.0499796460 -1 -1
-0.2778766890 -0.0488513100 -1 -1
-0.2775323480 -0.0482950400 -1 -1
-0.2771917650 -0.0483288390 -1 -1
-0.2768517250 -0.0489155170 -1 -1
-0.2765073980 -0.0499712220 -1 -1
-0.2761477880 -0.0513770610 -1 -1
-0.2757534670 -0.0529925830 -1 -1
-0.2752988010 -0.0546682950 -1 -1
-0.2747582520 -0.0562554500 -1 -1
-0.2741140940 -0.0576143830 -1 -1
-0.2733624390 -0.0586227710 -1 -1
-0.2725158440 -0.0591828410 -1 -1
-0.2716029630 -0.0592262530 -1 -1
-0.2706664590 -0.0587181460 -1 -1
-0.2697590540 -0.0576626020 -1 -1
-0.2689370550 -0.0561083230 -1 -1
-0.2682517590 -0.0541503830 -1 -1
-0.2677405790 -0.0519257860 -1 -1
-0.2674202310 -0.0496037970 -1 -1
-0.2672838830 -0.0473726940 -1 -1
-0.2673030100 -0.0454238950 -1 -1
-0.2674333480 -0.0439340760 -1 -1
-0.2676233710 -0.0430458350 -1 -1
-0.2678230750 -0.0428487900 -1 -1
-0.2679907870 -0.0433655380 -1 -1
-0.2680965160 -0.0445463980 -1 -1
-0.2681221210 -0.0462733440 -1 -1
-0.2680600000 -0.0483719530 -1 -1
-0.2679115460 -0.0506300410 -1 -1
-0.2676852140 -0.0528197980 -1 -1
-0.2673942590 -0.0547198590 -1 -1
-0.2670550160 -0.0561365790 -1 -1
-0.2666859830 -0.0569244950 -1 -1
-0.2663074870 -0.0570033910 -1 -1
-0.2659423440 -0.0563684830 -1 -1
-0.2656172450 -0.0550921590 -1 -1
-0.2653623880 -0.0533167570 -1 -1
-0.2652065390 -0.0512376690 -1 -1
-0.2651680650 -0.0490785460 -1 -1
-0.2652467250 -0.0470646850 -1 -1
-0.2654215570 -0.0454013690 -1 -1
-0.2656562520 -0.0442587630 -1 -1
-0.2659091880 -0.0437599500 -1 -1
-0.2661434480 -0.0439697040 -1 -1
-0.2663328240 -0.0448857770 -1 -1
-0.2664621450 -0.0464364360 -1 -1
-0.2665229610 -0.0484865260 -1 -1
-0.2665076770 -0.0508513740 -1 -1
-0.2664057640 -0.0533159310 -1 -1
-0.2662037760 -0.0556573570 -1 -1
-0.2658889760 -0.0576698590 -1 -1
-0.2654554810 -0.0591879600 -1 -1
-0.2649101450 -0.0601023400 -1 -1
-0.2642746920 -0.0603651020 -1 -1
-0.2635831770 -0.0599872010 -1 -1
-0.2628766270 -0.0590334160 -1 -1
-0.2621971090 -0.0576173390 -1 -1
-0.2615827470 -0.0558948890 -1 -1
-0.2610643440 -0.0540538790 -1 -1
-0.2606631760 -0.0522980600 -1 -1
-0.2603893050 -0.0508260270 -1 -1
-0.2602405260 -0.0498082470 -1 -1
-0.2602028370 -0.0493670600 -1 -1
-0.2602532090 -0.0495630610 -1 -1
-0.2603642850 -0.0503890940 -1 -1
-0.2605092600 -0.0517713860 -1 -1
-0.2606653530 -0.0535762520 -1 -1
-0.2608155010 -0.0556212430 -1 -1
-0.2609479640 -0.0576916980 -1 -1
-0.2610536530 -0.0595639710 -1 -1
-0.2611228140 -0.0610326580 -1 -1
-0.2611439440 -0.0619350770 -1 -1
-0.2611061620 -0.0621679150 -1 -1
-0.2610034960 -0.0616961350 -1 -1
-0.2608383530 -0.0605560790 -1 -1
-0.2606224340 -0.0588530900 -1 -1
-0.2603750760 -0.0567521860 -1 -1
-0.2601198460 -0.0544595170 -1 -1
-0.2598802460 -0.0521951010 -1 -1
-0.2596755940 -0.0501637480 -1 -1
-0.2595179730 -0.0485333220 -1 -1
-0.2594103600 -0.0474244200 -1 -1
-0.2593458630 -0.0469088570 -1 -1
-0.2593084170 -0.0470116680 -1 -1
-0.2592751790 -0.0477133660 -1 -1
-0.2592203430 -0.0489524490 -1 -1
-0.2591199010 -0.0506288130 -1 -1
-0.2589560870 -0.0526083390 -1 -1
-0.2587197510 -0.0547301680 -1 -1
-0.2584101630 -0.0568187220 -1 -1
-0.2580339170 -0.0587002700 -1 -1
-0.2576049000 -0.0602209560 -1 -1
-0.2571449260 -0.0612623040 -1 -1
-0.2566827830 -0.0617518820 -1 -1
-0.2562507200 -0.0616689860 -1 -1
-0.2558798500 -0.0610462180 -1 -1
-0.2555963310 -0.0599675870 -1 -1
-0.2554189520 -0.0585620710 -1 -1
-0.2553576130 -0.0569908280 -1 -1
-0.2554119550 -0.0554291310 -1 -1
-0.2555702280 -0.0540472530 -1 -1
-0.2558090630 -0.0529936390 -1 -1
-0.2560944440 -0.0523814110 -1 -1
-0.2563841920 -0.0522784720 -1 -1
-0.2566328390 -0.0527006180 -1 -1
-0.2567983090 -0.0536071600 -1 -1
-0.2568475360 -0.0549010470 -1 -1
-0.2567584410 -0.0564368690 -1 -1
-0.2565186700 -0.0580371270 -1 -1
-0.2561238130 -0.0595132590 -1 -1
-0.2555776080 -0.0606869080 -1 -1
-0.2548945200 -0.0614078360 -1 -1
-0.2541030290 -0.0615666130 -1 -1
-0.2532469390 -0.0611031540 -1 -1
-0.2523823570 -0.0600138300 -1 -1
-0.2515705950 -0.0583572120 -1 -1
-0.2508699890 -0.0562542840 -1 -1
-0.2503293310 -0.0538788790 -1 -1
-0.2499833100 -0.0514374970 -1 -1
-0.2498492930 -0.0491421970 -1 -1
-0.2499255100 -0.0471840850 -1 -1
-0.2501914140 -0.0457144310 -1 -1
-0.2506106950 -0.0448358460 -1 -1
-0.2511361870 -0.0446014430 -1 -1
-0.2517150000 -0.0450177120 -1 -1
-0.2522931570 -0.0460466880 -1 -1
-0.2528205120 -0.0476054440 -1 -1
-0.2532557490 -0.0495655960 -1 -1
-0.2535698380 -0.0517585720 -1 -1
-0.2537473520 -0.0539901580 -1 -1
-0.2537865060 -0.0560612210 -1 -1
-0.2536984960 -0.0577880500 -1 -1
-0.2535056560 -0.0590191760 -1 -1
-0.2532378530 -0.0596495870 -1 -1
-0.2529278090 -0.0596325390 -1 -1
-0.2526067430 -0.0589862740 -1 -1
-0.2523009150 -0.0577927040 -1 -1
-0.2520290420 -0.0561877830 -1 -1
-0.2518011950 -0.0543456240 -1 -1
-0.2516194350 -0.0524595450 -1 -1
-0.2514789030 -0.0507237640 -1 -1
-0.2513679610 -0.0493176620 -1 -1
-0.2512673620 -0.0483915110 -1 -1
-0.2511497410 -0.0480520690 -1 -1
-0.2509812570 -0.0483491420 -1 -1
-0.2507270630 -0.0492663880 -1 -1
-0.2503606100 -0.0507190700 -1 -1
-0.2498738200 -0.0525602600 -1 -1
-0.2492828920 -0.0545960630 -1 -1
-0.2486259140 -0.0566082020 -1 -1
-0.2479530910 -0.0583794780 -1 -1
-0.2473141150 -0.0597173670 -1 -1
-0.2467474560 -0.0604741680 -1 -1
-0.2462747440 -0.0605634850 -1 -1
-0.2459015800 -0.0599706840 -1 -1
-0.2456233070 -0.0587545870 -1 -1
-0.2454316580 -0.0570406300 -1 -1
-0.2453184840 -0.0550073750 -1 -1
-0.2452757670 -0.0528675960 -1 -1
-0.2452933740 -0.0508446540 -1 -1
-0.2453565840 -0.0491459830 -1 -1
-0.2454454090 -0.0479384340 -1 -1
-0.2455369730 -0.0473315070 -1 -1
-0.2456098890 -0.0473705730 -1 -1
-0.2456480910 -0.0480372630 -1 -1
-0.2456425440 -0.0492540950 -1 -1
-0.2455909300 -0.0508927480 -1 -1
-0.2454963120 -0.0527863260 -1 -1
-0.2453656480 -0.0547454560 -1 -1
-0.2452083700 -0.0565765620 -1 -1
-0.2450346360 -0.0580998340 -1 -1
-0.2448531870 -0.0591651670 -1 -1
-0.2446695520 -0.0596651750 -1 -1
-0.2444855320 -0.0595447760 -1 -1
-0.2443000340 -0.0588072240 -1 -1
-0.2441107200 -0.0575155090 -1 -1
-0.2439157030 -0.0557872950 -1 -1
-0.2437143240 -0.0537832750 -1 -1
-0.2435062980 -0.0516910740 -1 -1
-0.2432896630 -0.0497068940 -1 -1
-0.2430590100 -0.0480168150 -1 -1
-0.2428056650 -0.0467799490 -1 -1
-0.2425203110 -0.0461144440 -1 -1
-0.2421970090 -0.0460852620 -1 -1
-0.2418371380 -0.0466934200 -1 -1
-0.2414516890 -0.0478703320 -1 -1
-0.2410603960 -0.0494824600 -1 -1
-0.2406872550 -0.0513473240 -1 -1
-0.2403539810 -0.0532563040 -1 -1
-0.2400747300 -0.0549982510 -1 -1
-0.2398546770 -0.0563806030 -1 -1
-0.2396919400 -0.0572469900 -1 -1
-0.2395806390 -0.0574908460 -1 -1
-0.2395138170 -0.0570641600 -1 -1
-0.2394860950 -0.0559804450 -1 -1
-0.2394956780 -0.0543122420 -1 -1
-0.2395446990 -0.0521848170 -1 -1
-0.2396373780 -0.0497665040 -1 -1
-0.2397769530 -0.0472546310 -1 -1
-0.2399633540 -0.0448567510 -1 -1
-0.2401932150 -0.0427688240 -1 -1
-0.2404619520 -0.0411542160 -1 -1
-0.2407652620 -0.0401283870 -1 -1
-0.2410977530 -0.0397520230 -1 -1
-0.2414497450 -0.0400314870 -1 -1
-0.2418053060 -0.0409229390 -1 -1
-0.2421433630 -0.0423371110 -1 -1
-0.2424415540 -0.0441442750 -1 -1
-0.2426811420 -0.0461812210 -1 -1
-0.2428508560 -0.0482625680 -1 -1
-0.2429483570 -0.0501961750 -1 -1
-0.2429795850 -0.0517998560 -1 -1
-0.2429573510 -0.0529177170 -1 -1
-0.2428995510 -0.0534362050 -1 -1
-0.2428260830 -0.0532989560 -1 -1
-0.2427545350 -0.0525175290 -1 -1
-0.2426965530 -0.0511747660 -1 -1
-0.2426566660 -0.0494191300 -1 -1
-0.2426338550 -0.0474498240 -1 -1
-0.2426246150 -0.0454937750 -1 -1
-0.2426253220 -0.0437774790 -1 -1
-0.2426324660 -0.0424988320 -1 -1
-0.2426410730 -0.0418047210 -1 -1
-0.2426423260 -0.0417774370 -1 -1
-0.2426216750 -0.0424283130 -1 -1
-0.2425595070 -0.0436964730 -1 -1
-0.2424356730 -0.0454543680 -1 -1
-0.2422361790 -0.0475225870 -1 -1
-0.2419582550 -0.0496924370 -1 -1
-0.2416115230 -0.0517514110 -1 -1
-0.2412156250 -0.0535054930 -1 -1
-0.2407955910 -0.0547938080 -1 -1
-0.2403765760 -0.0554968420 -1 -1
-0.2399799450 -0.0555432890 -1 -1
-0.2396216010 -0.0549177040 -1 -1
-0.2393118710 -0.0536664700 -1 -1
-0.2390558420 -0.0518983670 -1 -1
-0.2388539770 -0.0497771520 -1 -1
-0.2387032480 -0.0475056070 -1 -1
-0.2385983980 -0.0453028580 -1 -1
-0.2385323720 -0.0433794680 -1 -1
-0.2384954620 -0.0419156190 -1 -1
-0.2384735580 -0.0410451070 -1 -1
-0.2384465160 -0.0408447930 -1 -1
-0.2383881340 -0.0413289520 -1 -1
-0.2382690290 -0.0424486270 -1 -1
-0.2380626180 -0.0440956680 -1 -1
-0.2377527270 -0.0461109680 -1 -1
-0.2373399390 -0.0482977210 -1 -1
-0.2368437550 -0.0504410440 -1 -1
-0.2362996630 -0.0523324590 -1 -1
-0.2357531560 -0.0537944960 -1 -1
-0.2352530990 -0.0547000210 -1 -1
-0.2348447030 -0.0549825810 -1 -1
-0.2345621410 -0.0546382790 -1 -1
-0.2344228280 -0.0537233930 -1 -1
-0.2344257140 -0.0523498550 -1 -1
-0.2345534760 -0.0506753940 -1 -1
-0.2347767760 -0.0488859730 -1 -1
-0.2350590990 -0.0471741430 -1 -1
-0.2353615350 -0.0457193010 -1 -1
-0.2356472580 -0.0446725960 -1 -1
-0.2358853090 -0.0441460470 -1 -1
-0.2360530100 -0.0442040970 -1 -1
-0.2361361710 -0.0448562970 -1 -1
-0.2361264850 -0.0460524840 -1 -1
-0.2360169950 -0.0476835180 -1 -1
-0.2357983510 -0.0495888600 -1 -1
-0.2354587180 -0.0515702850 -1 -1
-0.2349879570 -0.0534113820 -1 -1
-0.2343836510 -0.0549020280 -1 -1
-0.2336549460 -0.0558639190 -1 -1
-0.2328223300 -0.0561716360 -1 -1
-0.2319152570 -0.0557653460 -1 -1
-0.2309702150 -0.0546541870 -1 -1
-0.2300296600 -0.0529128790 -1 -1
-0.2291404860 -0.0506764200 -1 -1
-0.2283505070 -0.0481344750 -1 -1
-0.2277028200 -0.0455210470 -1 -1
-0.2272296150 -0.0430942600 -1 -1
-0.2269472380 -0.0411066530 -1 -1
-0.2268536600 -0.0397713850 -1 -1
-0.2269293170 -0.0392312200 -1 -1
-0.2271413920 -0.0395372410 -1 -1
-0.2274498740 -0.0406427350 -1 -1
-0.2278128950 -0.0424134790 -1 -1
-0.2281900980 -0.0446503530 -1 -1
-0.2285444650 -0.0471172580 -1 -1
-0.2288431550 -0.0495685520 -1 -1
-0.2290575480 -0.0517737110 -1 -1
-0.2291631230 -0.0535383340 -1 -1
-0.2291403560 -0.0547202630 -1 -1
-0.2289770560 -0.0552398940 -1 -1
-0.2286710510 -0.0550839000 -1 -1
-0.2282322130 -0.0543012030 -1 -1
-0.2276833670 -0.0529913460 -1 -1
-0.2270597280 -0.0512878950 -1 -1
-0.2264065340 -0.0493414160 -1 -1
-0.2257745410 -0.0473072180 -1 -1
-0.2252127440 -0.0453402710 -1 -1
-0.2247590900 -0.0435933160 -1 -1
-0.2244328120 -0.0422105940 -1 -1
-0.2242321070 -0.0413137860 -1 -1
-0.2241368440 -0.0409844680 -1 -1
-0.2241131290 -0.0412505830 -1 -1
-0.2241180510 -0.0420815160 -1 -1
-0.2241050010 -0.0433915430 -1 -1
-0.2240297200 -0.0450485600 -1 -1
-0.2238562830 -0.0468850780 -1 -1
-0.2235616350 -0.0487107660 -1 -1
-0.2231378170 -0.0503277810 -1 -1
-0.2225919230 -0.0515505860 -1 -1
-0.2219442970 -0.0522298910 -1 -1
-0.2212256530 -0.0522763280 -1 -1
-0.2204740370 -0.0516769540 -1 -1
-0.2197322560 -0.0504989030 -1 -1
-0.2190452550 -0.0488786400 -1 -1
-0.2184565180 -0.0470008310 -1 -1
-0.2180037530 -0.0450741390 -1 -1
-0.2177149590 -0.0433093400 -1 -1
-0.2176059240 -0.0419010660 -1 -1
-0.2176796290 -0.0410122140 -1 -1
-0.2179268330 -0.0407602960 -1 -1
-0.2183262290 -0.0412067020 -1 -1
-0.2188437620 -0.0423504530 -1 -1
-0.2194333850 -0.0441266250 -1 -1
-0.2200418370 -0.0464095270 -1 -1
-0.2206164650 -0.0490216990 -1 -1
-0.2211117970 -0.0517490670 -1 -1
-0.2214917400 -0.0543613360 -1 -1
-0.2217282480 -0.0566361760 -1 -1
-0.2217999640 -0.0583841240 -1 -1
-0.2216935450 -0.0594694140 -1 -1
-0.2214072670 -0.0598226150 -1 -1
-0.2209543390 -0.0594436700 -1 -1
-0.2203635140 -0.0583964670 -1 -1
-0.2196762370 -0.0567973810 -1 -1
-0.2189416630 -0.0548010750 -1 -1
-0.2182117590 -0.0525876390 -1 -1
-0.2175372470 -0.0503521060 -1 -1
-0.2169639030 -0.0482921310 -1 -1
-0.2165288680 -0.0465898820 -1 -1
-0.2162567490 -0.0453897470 -1 -1
-0.2161556780 -0.0447783420 -1 -1
-0.2162148940 -0.0447737620 -1 -1
-0.2164058990 -0.0453263120 -1 -1
-0.2166873640 -0.0463274660 -1 -1
-0.2170115840 -0.0476231830 -1 -1
-0.2173299940 -0.0490303730 -1 -1
-0.2175973640 -0.0503563050 -1 -1
-0.2177759910 -0.0514200490 -1 -1
-0.2178402090 -0.0520739530 -1 -1
-0.2177794730 -0.0522214920 -1 -1
-0.2175984930 -0.0518272500 -1 -1
-0.2173147000 -0.0509173130 -1 -1
-0.2169541640 -0.0495719180 -1 -1
-0.2165465070 -0.0479137970 -1 -1
-0.2161192860 -0.0460948240 -1 -1
-0.2156933370 -0.0442823040 -1 -1
-0.2152809130 -0.0426451900 -1 -1
-0.2148868350 -0.0413401900 -1 -1
-0.2145111640 -0.0404981010 -1 -1
-0.2141514310 -0.0402113060 -1 -1
-0.2138030320 -0.0405240050 -1 -1
-0.2134578680 -0.0414268780 -1 -1
-0.2131031970 -0.0428564580 -1 -1
-0.2127231520 -0.0446982820 -1 -1
-0.2123034490 -0.0467934130 -1 -1
-0.2118368480 -0.0489494220 -1 -1
-0.2113261610 -0.0509569380 -1 -1
-0.2107837940 -0.0526108250 -1 -1
-0.2102292550 -0.0537330140 -1 -1
-0.2096858820 -0.0541939370 -1 -1
-0.2091772650 -0.0539294470 -1 -1
-0.2087243090 -0.0529496920 -1 -1
-0.2083441200 -0.0513380800 -1 -1
-0.2080508540 -0.0492413640 -1 -1
-0.2078572680 -0.0468532630 -1 -1
-0.2077750680 -0.0443938190 -1 -1
-0.2078130580 -0.0420862010 -1 -1
-0.2079739110 -0.0401332260 -1 -1
-0.2082514030 -0.0386969940 -1 -1
-0.2086293880 -0.0378841980 -1 -1
-0.2090822520 -0.0377381610 -1 -1
-0.2095759060 -0.0382382560 -1 -1
-0.2100695990 -0.0393066060 -1 -1
-0.2105196450 -0.0408200940 -1 -1
-0.2108850970 -0.0426243820 -1 -1
-0.2111338110 -0.0445472030 -1 -1
-0.2112471050 -0.0464109620 -1 -1
-0.2112223070 -0.0480467070 -1 -1
-0.2110730900 -0.0493092110 -1 -1
-0.2108273100 -0.0500900280 -1 -1
-0.2105228560 -0.0503265640 -1 -1
-0.2102028210 -0.0500071950 -1 -1
-0.2099105150 -0.0491720060 -1 -1
-0.2096841330 -0.0479084720 -1 -1
-0.2095516670 -0.0463430360 -1 -1
-0.2095271450 -0.0446307020 -1 -1
-0.2096088350 -0.0429437140 -1 -1
-0.2097794440 -0.0414579120 -1 -1
-0.2100083550 -0.0403354820 -1 -1
-0.2102563330 -0.0397053950 -1 -1
-0.2104824660 -0.0396451350 -1 -1
-0.2106511160 -0.0401687470 -1 -1
-0.2107360420 -0.0412254660 -1 -1
-0.2107210670 -0.0427087060 -1 -1
-0.2105989750 -0.0444713880 -1 -1
-0.2103701920 -0.0463437310 -1 -1
-0.2100415440 -0.0481510860 -1 -1
-0.2096250410 -0.0497304770 -1 -1
-0.2091369190 -0.0509455150 -1 -1
-0.2085968780 -0.0516986310 -1 -1
-0.2080272280 -0.0519382590 -1 -1
-0.2074523310 -0.0516599200 -1 -1
-0.2068987830 -0.0509032340 -1 -1
-0.2063951990 -0.0497477710 -1 -1
-0.2059698240 -0.0483084000 -1 -1
-0.2056460960 -0.0467281770 -1 -1
-0.2054386080 -0.0451669460 -1 -1
-0.2053516390 -0.0437861660 -1 -1
-0.2053797170 -0.0427318590 -1 -1
-0.2055082420 -0.0421176770 -1 -1
-0.2057135600 -0.0420110310 -1 -1
-0.2059639760 -0.0424256400 -1 -1
-0.2062234000 -0.0433215250 -1 -1
-0.2064572700 -0.0446106800 -1 -1
-0.2066379410 -0.0461660620 -1 -1
-0.2067472970 -0.0478323770 -1 -1
-0.2067769160 -0.0494377010 -1 -1
-0.2067267880 -0.0508061310 -1 -1
-0.2066023330 -0.0517727270 -1 -1
-0.2064098410 -0.0522006390 -1 -1
-0.2061523500 -0.0519977230 -1 -1
-0.2058290580 -0.0511298110 -1 -1
-0.2054396700 -0.0496288310 -1 -1
-0.2049914180 -0.0475941750 -1 -1
-0.2045041590 -0.0451862230 -1 -1
-0.2040107680 -0.0426117690 -1 -1
-0.2035535680 -0.0401019290 -1 -1
-0.2031787310 -0.0378844050 -1 -1
-0.2029291970 -0.0361536930 -1 -1
-0.2028359650 -0.0350448220 -1 -1
-0.2029094100 -0.0346165410 -1 -1
-0.2031343210 -0.0348468150 -1 -1
-0.2034720030 -0.0356398030 -1 -1
-0.2038693180 -0.0368420150 -1 -1
-0.2042706110 -0.0382646770 -1 -1
-0.2046273150 -0.0397080110 -1 -1
-0.2049027350 -0.0409824280 -1 -1
-0.2050729520 -0.0419237380 -1 -1
-0.2051264390 -0.0424026420 -1 -1
-0.2050639350 -0.0423302250 -1 -1
-0.2048981030 -0.0416613120 -1 -1
-0.2046518880 -0.0403969130 -1 -1
-0.2043552330 -0.0385853530 -1 -1
-0.2040408180 -0.0363211280 -1 -1
-0.2037398350 -0.0337407010 -1 -1
-0.2034784680 -0.0310138350 -1 -1
-0.2032751870 -0.0283302160 -1 0
-0.2031385290 -0.0258836660 -1 0
-0.2030648500 -0.0238554980 -1 0
-0.2030365780 -0.0223964470 -1 0
-0.2030229100 -0.0216086500 -1 0
-0.2029840140 -0.0215327360 -1 0
-0.2028777830 -0.0221440570 -1 0
-0.2026674630 -0.0233572120 -1 0
-0.2023286360 -0.0250353750 -1 0
-0.2018542090 -0.0270024670 -1 0
-0.2012567450 -0.0290584470 -1 0
-0.2005679330 -0.0309982470 -1 -1
-0.1998349830 -0.0326331860 -1 -1
-0.1991142970 -0.0338118380 -1 -1
-0.1984638870 -0.0344373200 -1 -1
-0.1979360080 -0.0344784940 -1 -1
-0.1975705940 -0.0339723910 -1 -1
-0.1973901200 -0.0330167920 -1 -1
-0.1973970160 -0.0317555230 -1 -1
-0.1975744820 -0.0303605480 -1 -1
-0.1978909400 -0.0290134750 -1 0
-0.1983065860 -0.0278879940 -1 0
-0.1987788350 -0.0271350710 -1 0
-0.1992651230 -0.0268718320 -1 0
-0.1997245460 -0.0271727230 -1 0
-0.2001200860 -0.0280615170 -1 0
-0.2004210730 -0.0295053680 -1 0
-0.2006045940 -0.0314136390 -1 -1
-0.2006554150 -0.0336442460 -1 -1
-0.2005652330 -0.0360190260 -1 -1
-0.2003322470 -0.0383456270 -1 -1
-0.1999612680 -0.0404396680 -1 -1
-0.1994640900 -0.0421419510 -1 -1
-0.1988598080 -0.0433294510 -1 -1
-0.1981746760 -0.0439215620 -1 -1
-0.1974409010 -0.0438838430 -1 -1
-0.1966941070 -0.0432312850 -1 -1
-0.1959702950 -0.0420309350 -1 -1
-0.1953028190 -0.0404008130 -1 -1
-0.1947187750 -0.0385019890 -1 -1
-0.1942346190 -0.0365236920 -1 -1
-0.1938525200 -0.0346642390 -1 -1
-0.1935596110 -0.0331113440 -1 -1
-0.1933311300 -0.0320244520 -1 -1
-0.1931363920 -0.0315204360 -1 -1
-0.1929453450 -0.0316635160 -1 -1
-0.1927337560 -0.0324597990 -1 -1
-0.1924861280 -0.0338563020 -1 -1
-0.1921962560 -0.0357446130 -1 -1
-0.1918656910 -0.0379697200 -1 -1
-0.1915010870 -0.0403433080 -1 -1
-0.1911118260 -0.0426598380 -1 -1
-0.1907082770 -0.0447146440 -1 -1
-0.1902998350 -0.0463236970 -1 -1
-0.1898922760 -0.0473424840 -1 -1
-0.1894852710 -0.0476802250 -1 -1
-0.1890718980 -0.0473080540 -1 -1
-0.1886418190 -0.0462628460 -1 -1
-0.1881876780 -0.0446484760 -1 -1
-0.1877118470 -0.0426330230 -1 -1
-0.1872300980 -0.0404374010 -1 -1
-0.1867702900 -0.0383123100 -1 -1
-0.1863668240 -0.0365058360 -1 -1
-0.1860540740 -0.0352290420 -1 -1
-0.1858616190 -0.0346280070 -1 -1
-0.1858110600 -0.0347676320 -1 -1
-0.1859126490 -0.0356276240 -1 -1
-0.1861613870 -0.0371078140 -1 -1
-0.1865337600 -0.0390406510 -1 -1
-0.1869865820 -0.0412107350 -1 -1
-0.1874595780 -0.0433803220 -1 -1
-0.1878829080 -0.0453167840 -1 -1
-0.1881889000 -0.0468175360 -1 -1
-0.1883254050 -0.0477303060 -1 -1
-0.1882674790 -0.0479675990 -1 -1
-0.1880238970 -0.0475136020 -1 -1
-0.1876359270 -0.0464227470 -1 -1
-0.1871681920 -0.0448116590 -1 -1
-0.1866939860 -0.0428473260 -1 -1
-0.1862794660 -0.0407326940 -1 -1
-0.1859711690 -0.0386891990 -1 -1
-0.1857893500 -0.0369363080 -1 -1
-0.1857275710 -0.0356695720 -1 -1
-0.1857576060 -0.0350397680 -1 -1
-0.1858375200 -0.0351360640 -1 -1
-0.1859201590 -0.0359749580 -1 -1
-0.1859602170 -0.0374957580 -1 -1
-0.1859197170 -0.0395645600 -1 -1
-0.1857725610 -0.0419881030 -1 -1
-0.1855077270 -0.0445356010 -1 -1
-0.1851295500 -0.0469651550 -1 -1
-0.1846544800 -0.0490513420 -1 -1
-0.1841062390 -0.0506096320 -1 -1
-0.1835119760 -0.0515135780 -1 -1
-0.1828999140 -0.0517033820 -1 -1
-0.1822976580 -0.0511871250 -1 -1
-0.1817316310 -0.0500370020 -1 -1
-0.1812282440 -0.0483818680 -1 -1
-0.1808151240 -0.0463957360 -1 -1
-0.1805197640 -0.0442822750 -1 -1
-0.1803650120 -0.0422577240 -1 -1
-0.1803634190 -0.0405338370 -1 -1
-0.1805130630 -0.0392996760 -1 -1
-0.1807960380 -0.0387022570 -1 -1
-0.1811795920 -0.0388297530 -1 -1
-0.1816196110 -0.0397008240 -1 -1
-0.1820657330 -0.0412606010 -1 -1
-0.1824668940 -0.0433831490 -1 -1
-0.1827764890 -0.0458820430 -1 -1
