-0.0041474210 -0.0233952170 0 0
-0.0044053750 -0.0264112870 0 0
-0.0046689070 -0.0292038780 0 0
-0.0049046590 -0.0315427740 0 -1
-0.0050866710 -0.0332567380 0 -1
-0.0051999560 -0.0342571340 0 -1
-0.0052415130 -0.0345476590 0 -1
-0.0052184770 -0.0342155530 0 -1
-0.0051439040 -0.0334073180 0 -1
-0.0050323770 -0.0322983780 0 -1
-0.0048983980 -0.0310667070 0 -1
-0.0047584910 -0.0298745870 0 0
-0.0046343540 -0.0288570540 0 0
-0.0045529200 -0.0281149340 0 0
-0.0045417480 -0.0277115710 0 0
-0.0046224390 -0.0276720960 0 0
-0.0048060690 -0.0279840100 0 0
-0.0050917310 -0.0285985900 0 0
-0.0054664850 -0.0294335120 0 0
-0.0059056770 -0.0303778180 0 -1
-0.0063744200 -0.0313004910 0 -1
-0.0068313740 -0.0320627670 0 -1
-0.0072345810 -0.0325324770 0 -1
-0.0075475700 -0.0325975240 0 -1
-0.0077435960 -0.0321762930 0 -1
-0.0078074560 -0.0312247470 0 -1
-0.0077356730 -0.0297419130 0 0
-0.0075360090 -0.0277756330 0 0
-0.0072266370 -0.0254277090 0 0
-0.0068348940 -0.0228532040 0 0
-0.0063953870 -0.0202482660 0 0
-0.0059468650 -0.0178266680 0 0
-0.0055274570 -0.0157915280 0 0
-0.0051689780 -0.0143092460 0 0
-0.0048919180 -0.0134896640 0 0
-0.0047022840 -0.0133752270 0 0
-0.0045908130 -0.0139408280 0 0
-0.0045346420 -0.0151019800 0 0
-0.0045010890 -0.0167268580 0 0
-0.0044526400 -0.0186505210 0 0
-0.0043520130 -0.0206913930 0 0
-0.0041667340 -0.0226674070 0 0
-0.0038735300 -0.0244080440 0 0
-0.0034621220 -0.0257628000 0 0
-0.0029367930 -0.0266103480 0 0
-0.0023152870 -0.0268705340 0 0
-0.0016266140 -0.0265175500 0 0
-0.0009089750 -0.0255903460 0 0
-0.0002072560 -0.0241957020 0 0
0.0004307090 -0.0224999030 0 0
0.0009589170 -0.0207071760 0 0
0.0013380110 -0.0190281910 0 0
0.0015391630 -0.0176478000 0 0
0.0015467970 -0.0167019690 0 0
0.0013603480 -0.0162679890 0 0
0.0009950450 -0.0163650050 0 0
0.0004813480 -0.0169595300 0 0
-0.0001373300 -0.0179727370 0 0
-0.0008086110 -0.0192886730 0 0
-0.0014766280 -0.0207635270 0 0
-0.0020882780 -0.0222366590 0 0
-0.0025987180 -0.0235439920 0 0
-0.0029742530 -0.0245333610 0 0
-0.0031921370 -0.0250798120 0 0
-0.0032388410 -0.0250983300 0 0
-0.0031093540 -0.0245527070 0 0
-0.0028089800 -0.0234598540 0 0
-0.0023568390 -0.0218880600 0 0
-0.0017885300 -0.0199487880 0 0
-0.0011551660 -0.0177846730 0 0
-0.0005174690 -0.0155576590 0 0
0.0000636413 -0.0134393660 0 0
0.0005366740 -0.0116026050 0 0
0.0008661860 -0.0102108950 0 0
0.0010347050 -0.0094035820 0 0
0.0010407530 -0.0092773970 0 0
0.0008956530 -0.0098691010 0 0
0.0006211000 -0.0111451030 0 0
0.0002476960 -0.0130007220 0 0
-0.0001859860 -0.0152678360 0 0
-0.0006343710 -0.0177287600 0 0
-0.0010471360 -0.0201355850 0 0
-0.0013741640 -0.0222353880 0 0
-0.0015729080 -0.0238004810 0 0
-0.0016157660 -0.0246587810 0 0
-0.0014949160 -0.0247171930 0 0
-0.0012237780 -0.0239733720 0 0
-0.0008352100 -0.0225145160 0 0
-0.0003765530 -0.0205038230 0 0
0.0000980000 -0.0181583420 0 0
0.0005360840 -0.0157236740 0 0
0.0008942460 -0.0134485670 0 0
0.0011411390 -0.0115599140 0 0
0.0012570700 -0.0102393550 0 0
0.0012325280 -0.0096043980 0 0
0.0010679650 -0.0096973000 0 0
0.0007747790 -0.0104838320 0 0
0.0003757630 -0.0118620010 0 0
-0.0000964962 -0.0136785600 0 0
-0.0006034900 -0.0157492060 0 0
-0.0011060940 -0.0178775990 0 0
-0.0015693270 -0.0198702700 0 0
-0.0019644910 -0.0215486200 0 0
-0.0022688320 -0.0227615290 0 0
-0.0024652830 -0.0233996530 0 0
-0.0025446490 -0.0234082940 0 0
-0.0025097800 -0.0227941510 0 0
-0.0023786390 -0.0216227640 0 0
-0.0021835980 -0.0200077530 0 0
-0.0019670920 -0.0180969570 0 0
-0.0017757950 -0.0160594020 0 0
-0.0016554600 -0.0140726770 0 0
-0.0016467580 -0.0123093140 0 0
-0.0017810030 -0.0109232290 0 0
-0.0020756210 -0.0100379310 0 0
-0.0025310880 -0.0097366250 0 0
-0.0031306100 -0.0100539400 0 0
-0.0038419130 -0.0109702030 0 0
-0.0046203660 -0.0124094390 0 0
-0.0054137390 -0.0142420600 0 0
-0.0061684240 -0.0162933860 0 0
-0.0068351040 -0.0183587350 0 0
-0.0073718410 -0.0202242340 0 0
-0.0077449680 -0.0216908600 0 0
-0.0079299320 -0.0225982790 0 0
-0.0079135130 -0.0228448580 0 0
-0.0076970580 -0.0224001840 0 0
-0.0072989570 -0.0213075650 0 0
-0.0067543030 -0.0196772450 0 0
-0.0061109750 -0.0176741360 0 0
-0.0054232970 -0.0155029910 0 0
-0.0047454400 -0.0133899040 0 0
-0.0041261510 -0.0115580090 0 0
-0.0036049230 -0.0101998900 0 0
-0.0032090680 -0.0094540560 0 0
-0.0029520990 -0.0093916780 0 0
-0.0028339490 -0.0100139910 0 0
-0.0028423910 -0.0112563190 0 0
-0.0029547230 -0.0129955030 0 0
-0.0031400400 -0.0150604500 0 0
-0.0033629290 -0.0172462720 0 0
-0.0035877050 -0.0193318690 0 0
-0.0037807610 -0.0211007880 0 0
-0.0039100730 -0.0223640060 0 0
-0.0039440880 -0.0229817860 0 0
-0.0038536020 -0.0228814480 0 0
-0.0036177620 -0.0220678290 0 0
-0.0032314950 -0.0206232010 0 0
-0.0027104070 -0.0186954080 0 0
-0.0020906750 -0.0164767820 0 0
-0.0014238660 -0.0141793950 0 0
-0.0007690830 -0.0120122270 0 0
-0.0001850230 -0.0101636430 0 0
0.0002771190 -0.0087896750 0 0
0.0005794440 -0.0080058880 0 0
0.0007008670 -0.0078789840 0 0
0.0006385240 -0.0084157050 0 0
0.0004076340 -0.0095518240 0 0
0.0000392218 -0.0111485130 0 0
-0.0004248790 -0.0130021040 0 0
-0.0009383810 -0.0148679820 0 0
-0.0014561150 -0.0164938990 0 0
-0.0019379180 -0.0176539220 0 0
-0.0023510680 -0.0181745100 0 0
-0.0026714950 -0.0179491350 0 0
-0.0028840250 -0.0169432210 0 0
-0.0029822770 -0.0151939920 0 0
-0.0029686250 -0.0128084630 0 0
-0.0028539680 -0.0099580030 0 0
-0.0026572710 -0.0068646630 0 0
-0.0024050950 -0.0037764220 0 0
-0.0021305770 -0.0009338290 0 0
-0.0018707730 0.0014637880 0 0
-0.0016621530 0.0032815900 0 0
-0.0015352870 0.0044548500 0 0
-0.0015106250 0.0049794710 0 0
-0.0015966490 0.0049000360 0 0
-0.0017892390 0.0043095330 0 0
-0.0020704900 0.0033619570 0 0
-0.0024079030 0.0022802680 0 0
-0.0027567480 0.0013375610 0 0
-0.0030666490 0.0008078060 0 0
-0.0032908150 0.0009086250 0 0
-0.0033950560 0.0017649070 0 0
-0.0033639490 0.0034027940 0 0
-0.0032031670 0.0057629220 0 0
-0.0029386500 0.0087193100 0 0
-0.0026138820 0.0120993460 0 0
-0.0022859520 0.0157051310 0 0
-0.0020199960 0.0193349960 0 0
-0.0018811180 0.0228027180 0 0
-0.0019243580 0.0259529320 0 0
-0.0021851170 0.0286729970 0 0
-0.0026729020 0.0309019680 0 1
-0.0033703230 0.0326360240 0 1
-0.0042370770 0.0339289340 0 1
-0.0052165360 0.0348874490 0 1
-0.0062430050 0.0356626350 0 1
-0.0072496860 0.0364377360 0 1
-0.0081771820 0.0374131660 0 1
-0.0089799140 0.0387904290 0 1
-0.0096280170 0.0407570920 0 1
-0.0101059360 0.0434739950 0 1
-0.0104108940 0.0470649620 0 1
-0.0105529450 0.0516088460 0 1
-0.0105562900 0.0571332760 0 1
-0.0104605710 0.0636091960 0 1
-0.0103203610 0.0709467050 0 1
-0.0102008690 0.0789949420 0 1
-0.0101695050 0.0875486150 0 1
-0.0102858100 0.0963609820 0 1
-0.0105932780 0.1051620800 0 1
-0.0111152370 0.1136818090 0 1
-0.0118548920 0.1216759880 0 1
-0.0127979900 0.1289514750 0 1
-0.0139158650 0.1353868790 0 1
-0.0151669390 0.1409455500 0 1
-0.0164963790 0.1456774860 0 1
-0.0178363910 0.1497094160 0 1
-0.0191106680 0.1532260930 0 1
-0.0202435100 0.1564473860 0 1
-0.0211706480 0.1596050580 0 1
-0.0218484030 0.1629212900 0 1
-0.0222593850 0.1665898580 0 1
-0.0224143890 0.1707603140 0 1
-0.0223507110 0.1755244060 0 1
-0.0221274410 0.1809047090 0 1
-0.0218189720 0.1868483960 0 1
-0.0215080280 0.1932292870 0 1
-0.0212786440 0.1998584450 0 1
-0.0212089460 0.2065019280 0 1
-0.0213634410 0.2129033260 0 1
-0.0217852320 0.2188068550 0 1
-0.0224899750 0.2239771380 0 1
-0.0234633990 0.2282157930 0 1
-0.0246623770 0.2313785250 0 1
-0.0260182430 0.2333939660 0 1
-0.0274421550 0.2342792110 0 1
-0.0288338750 0.2341443680 0 1
-0.0300941090 0.2331815690 -1 1
-0.0311374320 0.2316401030 -1 1
-0.0319018380 0.2297945110 -1 1
-0.0323530700 0.2279126920 -1 1
-0.0324843210 0.2262280200 -1 1
-0.0323124670 0.2249178670 -1 1
-0.0318719670 0.2240907370 -1 1
-0.0312084350 0.2237821840 -1 1
-0.0303742970 0.2239573530 -1 1
-0.0294272260 0.2245184890 0 1
-0.0284294480 0.2253170180 0 1
-0.0274457520 0.2261696970 0 1
-0.0265396580 0.2268776350 0 1
-0.0257679270 0.2272465140 0 1
-0.0251738170 0.2271056710 0 1
-0.0247807290 0.2263235140 0 1
-0.0245887280 0.2248179570 0 1
-0.0245752490 0.2225622490 0 1
-0.0246992000 0.2195871490 0 1
-0.0249064830 0.2159797610 0 1
-0.0251356980 0.2118788900 0 1
-0.0253237260 0.2074661110 0 1
-0.0254107510 0.2029512830 0 1
-0.0253443480 0.1985529140 0 1
-0.0250830310 0.1944761280 0 1
-0.0245999440 0.1908904700 0 1
-0.0238865960 0.1879085300 0 1
-0.0229558540 0.1855680110 0 1
-0.0218430810 0.1838217760 0 1
-0.0206043300 0.1825397930 0 1
-0.0193112750 0.1815245970 0 1
-0.0180435420 0.1805377800 0 1
-0.0168794930 0.1793315880 0 1
-0.0158870280 0.1776800310 0 1
-0.0151162250 0.1754062290 0 1
-0.0145947270 0.1724037610 0 1
-0.0143256300 0.1686498350 0 1
-0.0142875150 0.1642080430 0 1
-0.0144368420 0.1592195510 0 1
-0.0147128750 0.1538838500 0 1
-0.0150446630 0.1484323640 0 1
-0.0153588640 0.1431001100 0 1
-0.0155868680 0.1381014080 0 1
-0.0156706110 0.1336130670 0 1
-0.0155676860 0.1297644240 0 1
-0.0152557370 0.1266321230 0 1
-0.0147345800 0.1242385490 0 1
-0.0140249270 0.1225532480 0 1
-0.0131647360 0.1214960960 0 1
-0.0122046360 0.1209416150 0 1
-0.0112023830 0.1207254720 0 1
-0.0102166350 0.1206547300 0 1
-0.0093017700 0.1205229190 0 1
-0.0085048480 0.1201296400 0 1
-0.0078638890 0.1193016650 0 1
-0.0074056600 0.1179102340 0 1
-0.0071422960 0.1158811140 0 1
-0.0070684950 0.1131986930 0 1
-0.0071618020 0.1099071710 0 1
-0.0073861920 0.1061098320 0 1
-0.0076971050 0.1019645800 0 1
-0.0080462970 0.0976733240 0 1
-0.0083859460 0.0934649720 0 1
-0.0086720240 0.0895739870 0 1
-0.0088673520 0.0862168410 0 1
-0.0089451690 0.0835687070 0 1
-0.0088936180 0.0817432230 0 1
-0.0087196420 0.0807781540 0 1
-0.0084494310 0.0806292630 0 1
-0.0081242220 0.0811736280 0 1
-0.0077928050 0.0822218440 0 1
-0.0075029670 0.0835372870 0 1
-0.0072941030 0.0848600200 0 1
-0.0071928930 0.0859324080 0 1
-0.0072123980 0.0865240800 0 1
-0.0073532790 0.0864548960 0 1
-0.0076057110 0.0856137980 0 1
-0.0079511250 0.0839711500 0 1
-0.0083637080 0.0815833290 0 1
-0.0088123690 0.0785882040 0 1
-0.0092635540 0.0751898120 0 1
-0.0096840970 0.0716334490 0 1
-0.0100430310 0.0681761260 0 1
-0.0103124520 0.0650579830 0 1
-0.0104688210 0.0624782100 0 1
-0.0104960240 0.0605772110 0 1
-0.0103899630 0.0594255580 0 1
-0.0101627060 0.0590194720 0 1
-0.0098435130 0.0592834150 0 1
-0.0094753660 0.0600812870 0 1
-0.0091080600 0.0612349930 0 1
-0.0087903630 0.0625450590 0 1
-0.0085632190 0.0638086260 0 1
-0.0084547420 0.0648342040 0 1
-0.0084771520 0.0654546520 0 1
-0.0086258650 0.0655398400 0 1
-0.0088806310 0.0650093200 0 1
-0.0092082960 0.0638428680 0 1
-0.0095668720 0.0620854420 0 1
-0.0099107630 0.0598443190 0 1
-0.0101964580 0.0572782130 0 1
-0.0103876010 0.0545792310 0 1
-0.0104585560 0.0519498060 0 1
-0.0103958210 0.0495792790 0 1
-0.0101968060 0.0476251000 0 1
-0.0098666320 0.0462006230 0 1
-0.0094154510 0.0453690330 0 1
-0.0088582960 0.0451420690 0 1
-0.0082166810 0.0454819600 0 1
-0.0075199460 0.0463046410 0 1
-0.0068052060 0.0474831330 0 1
-0.0061156100 0.0488531880 0 1
-0.0054971700 0.0502255630 0 1
-0.0049944560 0.0514060290 0 1
-0.0046450070 0.0522190450 0 1
-0.0044729280 0.0525298980 0 1
-0.0044835900 0.0522619510 0 1
-0.0046612840 0.0514064200 0 1
-0.0049701700 0.0500224330 0 1
-0.0053579720 0.0482271310 0 1
-0.0057626070 0.0461786700 0 1
-0.0061215740 0.0440564000 0 1
-0.0063816400 0.0420415690 0 1
-0.0065055500 0.0403001550 0 1
-0.0064744890 0.0389674050 0 1
-0.0062869640 0.0381334670 0 1
-0.0059552360 0.0378327680 0 1
-0.0055008580 0.0380412770 0 1
-0.0049511050 0.0386824480 0 1
-0.0043370270 0.0396393140 0 1
-0.0036925980 0.0407690600 0 1
-0.0030542900 0.0419169370 0 1
-0.0024601980 0.0429290430 0 1
-0.0019477180 0.0436651530 0 1
-0.0015500250 0.0440111010 0 1
-0.0012930150 0.0438882630 0 1
-0.0011936610 0.0432578070 0 1
-0.0012588730 0.0421200800 0 1
-0.0014841390 0.0405125300 0 1
-0.0018527380 0.0385085150 0 1
-0.0023364020 0.0362157640 0 1
-0.0028969390 0.0337727640 0 1
-0.0034879770 0.0313429760 0 1
-0.0040570790 0.0291069100 0 0
-0.0045494800 0.0272502380 0 0
-0.0049139440 0.0259455490 0 0
-0.0051098390 0.0253288690 0 0
-0.0051137800 0.0254764750 0 0
-0.0049242920 0.0263879360 0 0
-0.0045634470 0.0279796490 0 0
-0.0040751870 0.0300910480 0 1
-0.0035202450 0.0325019250 0 1
-0.0029675480 0.0349551160 0 1
-0.0024832770 0.0371794840 0 1
-0.0021209720 0.0389137450 0 1
-0.0019163310 0.0399341810 0 1
-0.0018871380 0.0400844630 0 1
-0.0020352000 0.0393003180 0 1
-0.0023474480 0.0376209840 0 1
-0.0027965600 0.0351831400 0 1
-0.0033431100 0.0321994870 0 1
-0.0039395860 0.0289298680 0 0
-0.0045352250 0.0256526120 0 0
-0.0050811620 0.0226386130 0 0
-0.0055358490 0.0201274160 0 0
-0.0058701660 0.0183056930 0 0
-0.0060712840 0.0172906540 0 0
-0.0061441360 0.0171206340 0 0
-0.0061092600 0.0177532610 0 0
-0.0059968580 0.0190707320 0 0
-0.0058390780 0.0208918240 0 0
-0.0056637910 0.0229899450 0 0
-0.0054921280 0.0251154980 0 0
-0.0053393180 0.0270206800 0 0
-0.0052163190 0.0284844570 0 0
-0.0051303900 0.0293347400 0 0
-0.0050849170 0.0294651730 0 0
-0.0050794870 0.0288449430 0 0
-0.0051096840 0.0275203760 0 0
-0.0051654000 0.0256082280 0 0
-0.0052281610 0.0232827690 0 0
-0.0052696010 0.0207588630 0 0
-0.0052523260 0.0182714530 0 0
-0.0051334040 0.0160512710 0 0
-0.0048709140 0.0142987140 0 0
-0.0044329170 0.0131607420 0 0
-0.0038061870 0.0127156170 0 0
-0.0030014490 0.0129668480 0 0
-0.0020536470 0.0138453130 0 0
-0.0010181200 0.0152188870 0 0
0.0000358930 0.0169089000 0 0
0.0010338750 0.0187111300 0 0
0.0019059320 0.0204180580 0 0
0.0025959890 0.0218399260 0 0
0.0030686240 0.0228226430 0 0
0.0033124310 0.0232603410 0 0
0.0033388020 0.0231012130 0 0
0.0031766120 0.0223470060 0 0
0.0028659120 0.0210480580 0 0
0.0024536390 0.0192966370 0 0
0.0019911900 0.0172203390 0 0
0.0015319640 0.0149749290 0 0
0.0011280720 0.0127346760 0 0
0.0008268540 0.0106784200 0 0
0.0006678420 0.0089709480 0 0
0.0006802190 0.0077424250 0 0
0.0008803700 0.0070720250 0 0
0.0012693180 0.0069805630 0 0
0.0018307500 0.0074320640 0 0
0.0025308250 0.0083421200 0 0
0.0033204840 0.0095906640 0 0
0.0041401630 0.0110351800 0 0
0.0049263210 0.0125208090 0 0
0.0056189580 0.0138881540 0 0
0.0061687260 0.0149827490 0 0
0.0065419700 0.0156684240 0 0
0.0067229900 0.0158439490 0 0
0.0067138920 0.0154605860 0 0
0.0065328800 0.0145361930 0 0
0.0062123270 0.0131602150 0 0
0.0057974060 0.0114867840 0 0
0.0053444480 0.0097177490 0 0
0.0049171310 0.0080790330 0 0
0.0045795170 0.0067927420 0 0
0.0043871890 0.0060475890 0 0
0.0043792730 0.0059722020 0 0
0.0045734170 0.0066171320 0 0
0.0049638730 0.0079494850 0 0
0.0055220030 0.0098600070 0 0
0.0061990810 0.0121794260 0 0
0.0069317000 0.0146994530 0 0
0.0076494650 0.0171930860 0 0
0.0082837010 0.0194301910 0 0
0.0087756390 0.0211901580 0 0
0.0090827130 0.0222784280 0 0
0.0091821450 0.0225503750 0 0
0.0090718400 0.0219368010 0 0
0.0087696700 0.0204608400 0 0
0.0083122620 0.0182393500 0 0
0.0077526830 0.0154676630 0 0
0.0071554490 0.0123921250 0 0
0.0065891310 0.0092785130 0 0
0.0061182340 0.0063829000 0 0
0.0057955560 0.0039272790 0 0
0.0056560010 0.0020801100 0 0
0.0057134430 0.0009425010 0 0
0.0059618910 0.0005422580 0 0
0.0063799820 0.0008373000 0 0
0.0069358990 0.0017265920 0 0
0.0075905030 0.0030647820 0 0
0.0082990040 0.0046777950 0 0
0.0090126720 0.0063779390 0 0
0.0096808970 0.0079773750 0 0
0.0102530000 0.0092998890 0 0
0.0106803730 0.0101924340 0 0
0.0109205210 0.0105377550 0 0
0.0109433320 0.0102673240 0 0
0.0107377450 0.0093715870 0 0
0.0103163800 0.0079044120 0 0
0.0097165900 0.0059803850 0 0
0.0089972830 0.0037642710 0 0
0.0082317800 0.0014525150 0 0
0.0074984860 -0.0007500840 0 0
0.0068720030 -0.0026527970 0 0
0.0064162150 -0.0040966800 0 0
0.0061794190 -0.0049669100 0 0
0.0061909370 -0.0052004300 0 0
0.0064586650 -0.0047898690 0 0
0.0069677070 -0.0037838670 0 0
0.0076806410 -0.0022831550 0 0
0.0085395330 -0.0004330120 0 0
0.0094697160 0.0015866000 0 0
0.0103861840 0.0035735240 0 0
0.0112027610 0.0053204130 0 0
0.0118426800 0.0066359280 0 0
0.0122490850 0.0073657330 0 0
0.0123940780 0.0074091070 0 0
0.0122842920 0.0067308450 0 0
0.0119609800 0.0053686720 0 0
0.0114941190 0.0034338270 0 0
0.0109715370 0.0011025100 0 0
0.0104848610 -0.0014015380 0 0
0.0101148880 -0.0038310470 0 0
0.0099197380 -0.0059424690 0 0
0.0099285260 -0.0075227260 0 0
0.0101412900 -0.0084124580 0 0
0.0105340820 -0.0085234240 0 0
0.0110670210 -0.0078481240 0 0
0.0116922520 -0.0064609840 0 0
0.0123589570 -0.0045111800 0 0
0.0130145940 -0.0022066940 0 0
0.0136043320 0.0002095690 0 0
0.0140721000 0.0024875070 0 0
0.0143655290 0.0043963610 0 0
0.0144443090 0.0057465170 0 0
0.0142891700 0.0064045930 0 0
0.0139083230 0.0063019860 0 0
0.0133389140 0.0054393740 0 0
0.0126420740 0.0038888990 0 0
0.0118924290 0.0017922910 0 0
0.0111654670 -0.0006485830 0 0
0.0105267140 -0.0031894480 0 0
0.0100245430 -0.0055672470 0 0
0.0096864590 -0.0075273720 0 0
0.0095186650 -0.0088523940 0 0
0.0095093550 -0.0093878610 0 0
0.0096352560 -0.0090597430 0 0
0.0098688310 -0.0078807310 0 0
0.0101835010 -0.0059457490 0 0
0.0105562770 -0.0034186390 0 0
0.0109683810 -0.0005136930 0 0
0.0114043740 0.0025239600 0 0
0.0118505990 0.0054381150 0 0
0.0122940230 0.0079830890 0 0
0.0127216350 0.0099468740 0 0
0.0131194050 0.0111715400 0 0
0.0134703200 0.0115661750 0 0
0.0137530270 0.0111119740 0 0
0.0139433160 0.0098622450 0 0
0.0140191710 0.0079379920 0 0
0.0139676730 0.0055173460 0 0
0.0137900700 0.0028189750 0 0
0.0135023230 0.0000818028 0 0
0.0131317010 -0.0024574120 0 0
0.0127115540 -0.0045878160 0 0
0.0122752260 -0.0061465830 0 0
0.0118503110 -0.0070343540 0 0
0.0114559310 -0.0072206400 0 0
0.0111039030 -0.0067405000 0 0
0.0108009750 -0.0056866290 0 0
0.0105493410 -0.0041993950 0 0
0.0103456210 -0.0024546930 0 0
0.0101798310 -0.0006491570 0 0
0.0100355630 0.0010174990 0 0
0.0098919920 0.0023621660 0 0
0.0097273850 0.0032368740 0 0
0.0095234550 0.0035434640 0 0
0.0092699490 0.0032436910 0 0
0.0089679820 0.0023632490 0 0
0.0086302470 0.0009882220 0 0
0.0082780120 -0.0007444140 0 0
0.0079366040 -0.0026594660 0 0
0.0076311220 -0.0045588210 0 0
0.0073837200 -0.0062402540 0 0
0.0072128220 -0.0075188820 0 0
0.0071329000 -0.0082472260 0 0
0.0071530240 -0.0083300390 0 0
0.0072741900 -0.0077338940 0 0
0.0074867820 -0.0064929900 0 0
0.0077690880 -0.0047100980 0 0
0.0080875570 -0.0025500930 0 0
0.0083996480 -0.0002253590 0 0
0.0086590110 0.0020251000 0 0
0.0088211970 0.0039596560 0 0
0.0088484580 0.0053589110 0 0
0.0087137730 0.0060501820 0 0
0.0084048090 0.0059288190 0 0
0.0079275480 0.0049725820 0 0
0.0073079560 0.0032470740 0 0
0.0065900370 0.0009014310 0 0
0.0058301950 -0.0018466910 0 0
0.0050895060 -0.0047361560 0 0
0.0044261460 -0.0074936760 0 0
0.0038895970 -0.0098661770 0 0
0.0035168110 -0.0116487990 0 0
0.0033294840 -0.0127043620 0 0
0.0033318960 -0.0129737800 0 0
0.0035099530 -0.0124799390 0 0
0.0038324790 -0.0113261730 0 0
0.0042553980 -0.0096868520 0 0
0.0047285090 -0.0077874890 0 0
0.0052032920 -0.0058763360 0 0
0.0056391890 -0.0041939430 0 0
0.0060062410 -0.0029470170 0 0
0.0062846760 -0.0022882460 0 0
0.0064638330 -0.0023007380 0 0
0.0065416770 -0.0029887440 0 0
0.0065246400 -0.0042791410 0 0
0.0064275330 -0.0060341450 0 0
0.0062737960 -0.0080707210 0 0
0.0060957630 -0.0101828190 0 0
0.0059334460 -0.0121640960 0 0
0.0058306560 -0.0138280250 0 0
0.0058294040 -0.0150228000 0 0
0.0059649080 -0.0156408840 0 0
0.0062625000 -0.0156246730 0 0
0.0067356640 -0.0149698320 0 0
0.0073839070 -0.0137267980 0 0
0.0081904550 -0.0119989590 0 0
0.0091211600 -0.0099350980 0 0
0.0101260460 -0.0077159380 0 0
0.0111438870 -0.0055369600 0 0
0.0121090210 -0.0035895820 0 0
0.0129592750 -0.0020427900 0 0
0.0136436680 -0.0010286660 0 0
0.0141277270 -0.0006340700 0 0
0.0143949310 -0.0008963340 0 0
0.0144452340 -0.0017987470 0 0
0.0142928620 -0.0032656810 0 0
0.0139649720 -0.0051617200 0 0
0.0135009980 -0.0072986300 0 0
0.0129509580 -0.0094512260 0 0
0.0123713830 -0.0113807560 0 0
0.0118194180 -0.0128618670 0 0
0.0113464170 -0.0137090170 0 0
0.0109917510 -0.0137995000 0 0
0.0107777410 -0.0130903860 0 0
0.0107070010 -0.0116263900 0 0
0.0107626340 -0.0095372230 0 0
0.0109108350 -0.0070242540 0 0
0.0111056900 -0.0043368570 0 0
0.0112959050 -0.0017413540 0 0
0.0114323870 0.0005112980 0 0
0.0114751040 0.0022133850 0 0
0.0113982330 0.0032211660 0 0
0.0111933960 0.0034671720 0 0
0.0108707540 0.0029624370 0 0
0.0104574710 0.0017885000 0 0
0.0099934820 0.0000824563 0 0
0.0095251420 -0.0019805330 0 0
0.0090983580 -0.0042047880 0 0
0.0087534680 -0.0063903940 0 0
0.0085224860 -0.0083477750 0 0
0.0084270320 -0.0099118880 0 0
0.0084755600 -0.0109564130 0 0
0.0086610710 -0.0114050560 0 0
0.0089617450 -0.0112367410 0 0
0.0093446480 -0.0104848150 0 0
0.0097699170 -0.0092333930 0 0
0.0101939360 -0.0076133650 0 0
0.0105721950 -0.0057961040 0 0
0.0108623860 -0.0039796560 0 0
0.0110276240 -0.0023660620 0 0
0.0110397420 -0.0011355180 0 0
0.0108821750 -0.0004248930 0 0
0.0105519130 -0.0003158210 0 0
0.0100608600 -0.0008336660 0 0
0.0094367630 -0.0019521790 0 0
0.0087226670 -0.0035960770 0 0
0.0079735320 -0.0056412850 0 0
0.0072499550 -0.0079205470 0 0
0.0066107790 -0.0102385240 0 0
0.0061069400 -0.0123917480 0 0
0.0057771470 -0.0141882490 0 0
0.0056445880 -0.0154652840 0 0
0.0057143010 -0.0161034700 0 0
0.0059719530 -0.0160364310 0 0
0.0063852620 -0.0152578560 0 0
0.0069084840 -0.0138268680 0 0
0.0074884130 -0.0118688720 0 0
0.0080701010 -0.0095679700 0 0
0.0086022450 -0.0071501630 0 0
0.0090423790 -0.0048600630 0 0
0.0093606540 -0.0029340190 0 0
0.0095411080 -0.0015724560 0 0
0.0095808020 -0.0009159710 0 0
0.0094878050 -0.0010299910 0 0
0.0092785970 -0.0019001600 0 0
0.0089753100 -0.0034375900 0 0
0.0086035980 -0.0054911590 0 0
0.0081918600 -0.0078637410 0 0
0.0077713910 -0.0103305280 0 0
0.0073757980 -0.0126596790 0 0
0.0070385620 -0.0146369180 0 0
0.0067892370 -0.0160924530 0 0
0.0066495780 -0.0169223980 0 0
0.0066307040 -0.0170969520 0 0
0.0067317260 -0.0166547180 0 0
0.0069399220 -0.0156880170 0 0
0.0072324240 -0.0143250610 0 0
0.0075791950 -0.0127137260 0 0
0.0079466530 -0.0110091090 0 0
0.0083009370 -0.0093637150 0 0
0.0086101020 -0.0079179700 0 0
0.0088456060 -0.0067905830 0 0
0.0089842630 -0.0060704600 0 0
0.0090108160 -0.0058116510 0 0
0.0089202490 -0.0060305260 0 0
0.0087194350 -0.0067029730 0 0
0.0084283600 -0.0077612110 0 0
0.0080805430 -0.0090938480 0 0
0.0077212920 -0.0105544570 0 0
0.0074024910 -0.0119799180 0 0
0.0071745070 -0.0132128210 0 0
0.0070780030 -0.0141198580 0 0
0.0071382270 -0.0146026140 0 0
0.0073620810 -0.0146032400 0 0
0.0077369520 -0.0141086870 0 0
0.0082313080 -0.0131535680 0 0
0.0087980180 -0.0118185810 0 0
0.0093803100 -0.0102226440 0 0
0.0099187350 -0.0085110800 0 0
0.0103576250 -0.0068434890 0 0
0.0106502770 -0.0053817860 0 0
0.0107628560 -0.0042777050 0 0
0.0106773270 -0.0036606990 0 0
0.0103934010 -0.0036264660 0 0
0.0099288960 -0.0042254030 0 0
0.0093180190 -0.0054526600 0 0
0.0086074160 -0.0072433200 0 0
0.0078509480 -0.0094744210 0 0
0.0071046360 -0.0119728150 0 0
0.0064225070 -0.0145273260 0 0
0.0058532810 -0.0169052250 0 0
0.0054376730 -0.0188740350 0 0
0.0052063800 -0.0202273880 0 0
0.0051788390 -0.0208107160 0 0
0.0053622010 -0.0205424410 0 0
0.0057498670 -0.0194276540 0 0
0.0063199310 -0.0175619830 0 0
0.0070346180 -0.0151233020 0 0
0.0078416170 -0.0123504420 0 0
0.0086774630 -0.0095127020 0 0
0.0094727960 -0.0068773870 0 0
0.0101595590 -0.0046807640 0 0
0.0106801060 -0.0031055250 0 0
0.0109972750 -0.0022677750 0 0
0.0111026360 -0.0022143970 0 0
0.0110191490 -0.0029266860 0 0
0.0107966300 -0.0043240630 0 0
0.0105017930 -0.0062658670 0 0
0.0102060790 -0.0085562320 0 0
0.0099743730 -0.0109585130 0 0
0.0098570030 -0.0132203780 0 0
0.0098857210 -0.0151047180 0 0
0.0100729040 -0.0164195780 0 0
0.0104131070 -0.0170413110 0 0
0.0108858110 -0.0169271970 0 0
0.0114576910 -0.0161161330 0 0
0.0120841710 -0.0147177470 0 0
0.0127122420 -0.0128925220 0 0
0.0132861330 -0.0108284910 0 0
0.0137545900 -0.0087205280 0 0
0.0140768160 -0.0067548860 0 0
0.0142254230 -0.0050977550 0 0
0.0141868280 -0.0038848530 0 0
0.0139605070 -0.0032105280 0 0
0.0135582680 -0.0031185580 0 0
0.0130038570 -0.0035985610 0 0
0.0123320610 -0.0045891590 0 0
0.0115864830 -0.0059853790 0 0
0.0108161140 -0.0076480660 0 0
0.0100712160 -0.0094154070 0 0
0.0093987830 -0.0111163310 0 0
0.0088381640 -0.0125846360 0 0
0.0084176290 -0.0136738410 0 0
0.0081515480 -0.0142722820 0 0
0.0080379200 -0.0143152560 0 0
0.0080580860 -0.0137910850 0 0
0.0081805300 -0.0127414590 0 0
0.0083671690 -0.0112580380 0 0
0.0085786860 -0.0094754050 0 0
0.0087777110 -0.0075590600 0 0
0.0089309420 -0.0056883790 0 0
0.0090118090 -0.0040368940 0 0
0.0090041230 -0.0027543170 0 0
0.0089050280 -0.0019542280 0 0
0.0087252200 -0.0017071940 0 0
0.0084866130 -0.0020361830 0 0
0.0082195370 -0.0029131260 0 0
0.0079605120 -0.0042586350 0 0
0.0077494600 -0.0059467010 0 0
0.0076252220 -0.0078146800 0 0
0.0076200350 -0.0096781890 0 0
0.0077546070 -0.0113496960 0 0
0.0080351100 -0.0126591740 0 0
0.0084525770 -0.0134747160 0 0
0.0089846320 -0.0137204670 0 0
0.0095992370 -0.0133895220 0 0
0.0102594130 -0.0125497520 0 0
0.0109269740 -0.0113394570 0 0
0.0115637400 -0.0099502710 0 0
0.0121310210 -0.0085989730 0 0
0.0125901400 -0.0074946680 0 0
0.0129060270 -0.0068094730 0 0
0.0130526010 -0.0066593360 0 0
0.0130170040 -0.0070971240 0 0
0.0128017510 -0.0081145370 0 0
0.0124253270 -0.0096474550 0 0
0.0119208710 -0.0115827020 0 0
0.0113326630 -0.0137671870 0 0
0.0107115800 -0.0160192350 0 0
0.0101105770 -0.0181410730 0 0
0.0095801560 -0.0199333370 0 0
0.0091637670 -0.0212128880 0 0
0.0088935940 -0.0218324570 0 0
0.0087874140 -0.0216985640 0 0
0.0088467610 -0.0207854590 0 0
0.0090558520 -0.0191439580 0 0
0.0093814250 -0.0169024760 0 0
0.0097753490 -0.0142572160 0 0
0.0101810660 -0.0114523330 0 0
0.0105415520 -0.0087536390 0 0
0.0108056370 -0.0064188990 0 0
0.0109321540 -0.0046680640 0 0
0.0108931990 -0.0036583000 0 0
0.0106766810 -0.0034674150 0 0
0.0102873630 -0.0040867140 0 0
0.0097460470 -0.0054233520 0 0
0.0090872610 -0.0073122030 0 0
0.0083560980 -0.0095364010 0 0
0.0076048420 -0.0118533730 0 0
0.0068895050 -0.0140211290 0 0
0.0062659020 -0.0158210790 0 0
0.0057851170 -0.0170769620 0 0
0.0054890330 -0.0176695920 0 0
0.0054064340 -0.0175457040 0 0
0.0055491880 -0.0167206380 0 0
0.0059081580 -0.0152768610 0 0
0.0064503460 -0.0133594320 0 0
0.0071202360 -0.0111666200 0 0
0.0078467070 -0.0089333700 0 0
0.0085536130 -0.0069080030 0 0
0.0091706600 -0.0053246930 0 0
0.0096423610 -0.0043749360 0 0
0.0099341120 -0.0041824020 0 0
0.0100345850 -0.0047867740 0 0
0.0099541090 -0.0061413140 0 0
0.0097202080 -0.0081244920 0 0
0.0093723480 -0.0105603240 0 0
0.0089575580 -0.0132403450 0 0
0.0085272830 -0.0159426610 0 0
0.0081340410 -0.0184463990 0 0
0.0078264520 -0.0205433490 0 0
0.0076430430 -0.0220515240 0 0
0.0076065860 -0.0228325660 0 0
0.0077212260 -0.0228082670 0 0
0.0079741770 -0.0219695580 0 0
0.0083410400 -0.0203761280 0 0
0.0087912390 -0.0181501580 0 0
0.0092911470 -0.0154678730 0 0
0.0098054930 -0.0125485120 0 0
0.0102984900 -0.0096376070 0 0
0.0107349250 -0.0069837450 0 0
0.0110811090 -0.0048124610 0 0
0.0113064300 -0.0033023210 0 0
0.0113858980 -0.0025667780 0 0
0.0113031150 -0.0026441560 0 0
0.0110531920 -0.0034971980 0 0
0.0106456230 -0.0050214210 0 0
0.0101065440 -0.0070593830 0 0
0.0094788220 -0.0094174340 0 0
0.0088185000 -0.0118822150 0 0
0.0081877180 -0.0142357110 0 0
0.0076462630 -0.0162690260 0 0
0.0072441780 -0.0177962770 0 0
0.0070163060 -0.0186702580 0 0
0.0069789340 -0.0187985350 0 0
0.0071289620 -0.0181550890 0 0
0.0074453540 -0.0167854280 0 0
0.0078914190 -0.0148077710 0 0
0.0084173180 -0.0124100040 0 0
0.0089639700 -0.0098365420 0 0
0.0094693140 -0.0073622370 0 0
0.0098761060 -0.0052581860 0 0
0.0101394740 -0.0037576600 0 0
0.0102326290 -0.0030283590 0 0
0.0101493280 -0.0031541250 0 0
0.0099023510 -0.0041269060 0 0
0.0095190760 -0.0058482610 0 0
0.0090366340 -0.0081390300 0 0
0.0084986000 -0.0107564300 0 0
0.0079529140 -0.0134192520 0 0
0.0074490720 -0.0158407430 0 0
0.0070334430 -0.0177639740 0 0
0.0067432540 -0.0189914900 0 0
0.0066002890 -0.0194035960 0 0
0.0066058970 -0.0189647170 0 0
0.0067394200 -0.0177206850 0 0
0.0069612480 -0.0157906310 0 0
0.0072196220 -0.0133555880 0 0
0.0074586290 -0.0106433720 0 0
0.0076249890 -0.0079086260 0 0
0.0076731000 -0.0054086550 0 0
0.0075688940 -0.0033775270 0 0
0.0072926370 -0.0020014070 0 0
0.0068403620 -0.0013986780 0 0
0.0062239100 -0.0016091020 0 0
0.0054699040 -0.0025943310 0 0
0.0046177990 -0.0042478350 0 0
0.0037170230 -0.0064101180 0 0
0.0028233720 -0.0088858920 0 0
0.0019946240 -0.0114614220 0 0
0.0012854840 -0.0139217210 0 0
0.0007421120 -0.0160685200 0 0
0.0003962880 -0.0177388000 0 0
0.0002599510 -0.0188212260 0 0
0.0003221880 -0.0192672830 0 0
0.0005504350 -0.0190948520 0 0
0.0008957430 -0.0183831720 0 0
0.0013004620 -0.0172603940 0 0
0.0017063010 -0.0158870300 0 0
0.0020609590 -0.0144386950 0 0
0.0023225580 -0.0130902350 0 0
0.0024623660 -0.0120020210 0 0
0.0024666230 -0.0113081390 0 0
0.0023375240 -0.0111055820 0 0
0.0020926440 -0.0114435360 0 0
0.0017621600 -0.0123132230 0 0
0.0013849210 -0.0136413890 0 0
0.0010057840 -0.0152913200 0 0
0.0006748680 -0.0170737640 0 0
0.0004464260 -0.0187680420 0 0
0.0003747570 -0.0201508940 0 0
0.0005069970 -0.0210275270 0 0
0.0008743930 -0.0212583730 0 0
0.0014836470 -0.0207768440 0 0
0.0023100320 -0.0195961440 0 0
0.0032950680 -0.0178049230 0 0
0.0043512060 -0.0155526910 0 0
0.0053733770 -0.0130282020 0 0
0.0062542280 -0.0104369110 0 0
0.0068984990 -0.0079827640 0 0
0.0072338080 -0.0058544960 0 0
0.0072183950 -0.0042132740 0 0
0.0068465100 -0.0031804060 0 0
0.0061497340 -0.0028265120 0 0
0.0051922430 -0.0031637880 0 0
0.0040610910 -0.0041433770 0 0
0.0028550890 -0.0056602940 0 0
0.0016752600 -0.0075655560 0 0
0.0006175410 -0.0096809390 0 0
-0.0002334430 -0.0118120830 0 0
-0.0008108490 -0.0137610060 0 0
-0.0010719410 -0.0153428910 0 0
-0.0010022260 -0.0164075660 0 0
-0.0006157820 -0.0168588040 0 0
0.0000478793 -0.0166655490 0 0
0.0009292030 -0.0158656590 0 0
0.0019554450 -0.0145636480 0 0
0.0030476910 -0.0129212240 0 0
0.0041263360 -0.0111406930 0 0
0.0051152610 -0.0094443000 0 0
0.0059462190 -0.0080525180 0 0
0.0065635450 -0.0071626720 0 0
0.0069279600 -0.0069283790 0 0
0.0070194100 -0.0074402490 0 0
0.0068399510 -0.0087100500 0 0
0.0064158570 -0.0106636310 0 0
0.0057962890 -0.0131478110 0 0
0.0050477290 -0.0159503520 0 0
0.0042465700 -0.0188260630 0 0
0.0034719890 -0.0215225440 0 0
0.0027981190 -0.0238033500 0 0
0.0022845180 -0.0254683900 0 0
0.0019672190 -0.0263705170 0 0
0.0018537430 -0.0264269340 0 0
0.0019236740 -0.0256252870 0 0
0.0021347960 -0.0240250030 0 0
0.0024331630 -0.0217537300 0 0
0.0027637250 -0.0189980700 0 0
0.0030780300 -0.0159884340 0 0
0.0033373190 -0.0129785480 0 0
0.0035115660 -0.0102207330 0 0
0.0035772680 -0.0079399630 0 0
0.0035171060 -0.0063123630 0 0
0.0033220070 -0.0054528820 0 0
0.0029940120 -0.0054116840 0 0
0.0025486140 -0.0061743700 0 0
0.0020155130 -0.0076623290 0 0
0.0014369090 -0.0097345720 0 0
0.0008633510 -0.0121949850 0 0
0.0003479820 -0.0148069370 0 0
-0.0000598306 -0.0173141900 0 0
-0.0003208110 -0.0194661030 0 0
-0.0004112560 -0.0210448780 0 0
-0.0003262780 -0.0218915050 0 0
-0.0000797344 -0.0219267100 0 0
0.0002985600 -0.0211637580 0 0
0.0007668420 -0.0197097690 0 0
0.0012759970 -0.0177533080 0 0
0.0017748700 -0.0155395260 0 0
0.0022157720 -0.0133377890 0 0
0.0025590660 -0.0114086100 0 0
0.0027763880 -0.0099761690 0 0
0.0028525100 -0.0092100590 0 0
0.0027857000 -0.0092153960 0 0
0.0025867400 -0.0100267930 0 0
0.0022773120 -0.0116034570 0 0
0.0018879730 -0.0138282230 0 0
0.0014555960 -0.0165152950 0 0
0.0010209400 -0.0194276000 0 0
0.0006274190 -0.0223006700 0 0
0.0003203910 -0.0248692240 0 0
0.0001445610 -0.0268931530 0 0
0.0001379490 -0.0281799400 0 0
0.0003236390 -0.0286013920 0 0
0.0007022410 -0.0281037340 0 0
0.0012478810 -0.0267119310 0 0
0.0019092940 -0.0245300130 0 0
0.0026162230 -0.0217364710 0 0
0.0032899830 -0.0185710850 0 0
0.0038558870 -0.0153115140 0 0
0.0042546330 -0.0122428020 0 0
0.0044499180 -0.0096267470 0 0
0.0044311600 -0.0076778680 0 0
0.0042123350 -0.0065470290 0 0
0.0038283610 -0.0063087220 0 0
0.0033293400 -0.0069507350 0 0
0.0027728200 -0.0083710240 0 0
0.0022156990 -0.0103865120 0 0
0.0017084960 -0.0127531450 0 0
0.0012933100 -0.0151931280 0 0
0.0010038960 -0.0174262780 0 0
0.0008653760 -0.0192041470 0 0
0.0008927730 -0.0203430690 0 0
0.0010890380 -0.0207478850 0 0
0.0014432810 -0.0204194250 0 0
0.0019301700 -0.0194458370 0 0
0.0025115400 -0.0179831850 0 0
0.0031401310 -0.0162315750 0 0
0.0037642360 -0.0144111920 0 0
0.0043321170 -0.0127406730 0 0
0.0047960110 -0.0114192650 0 0
0.0051160670 -0.0106121530 0 0
0.0052645230 -0.0104366080 0 0
0.0052298610 -0.0109494540 0 0
0.0050199870 -0.0121402180 0 0
0.0046631880 -0.0139331830 0 0
0.0042058040 -0.0161971930 0 0
0.0037060880 -0.0187590410 0 0
0.0032251920 -0.0214168490 0 0
0.0028177860 -0.0239531330 0 0
0.0025250460 -0.0261496990 0 0
0.0023712330 -0.0278054260 0 0
0.0023632650 -0.0287552020 0 0
0.0024922040 -0.0288871270 0 0
0.0027362370 -0.0281557770 0 0
0.0030644550 -0.0265904690 0 0
0.0034401630 -0.0242972690 0 0
0.0038233490 -0.0214528440 0 0
0.0041734880 -0.0182893820 0 0
0.0044534060 -0.0150728810 0 0
0.0046328750 -0.0120783240 0 0
0.0046902830 -0.0095634040 0 0
0.0046127240 -0.0077418470 0 0
0.0043961920 -0.0067601920 0 0
0.0040466120 -0.0066831270 0 0
0.0035810460 -0.0074883860 0 0
0.0030281740 -0.0090692260 0 0
0.0024275740 -0.0112445240 0 0
0.0018273090 -0.0137776180 0 0
0.0012794130 -0.0164011220 0 0
0.0008336090 -0.0188424640 0 0
0.0005301700 -0.0208477390 0 0
0.0003930000 -0.0222047930 0 0
0.0004248860 -0.0227649350 0 0
0.0006072640 -0.0224595150 0 0
0.0009049430 -0.0213083480 0 0
0.0012733460 -0.0194202310 0 0
0.0016647600 -0.0169855670 0 0
0.0020318820 -0.0142591270 0 0
0.0023296330 -0.0115333410 0 0
0.0025172540 -0.0091066890 0 0
0.0025615490 -0.0072514030 0 0
0.0024403420 -0.0061834460 0 0
0.0021446860 -0.0060387210 0 0
0.0016793000 -0.0068584700 0 0
0.0010617310 -0.0085844990 0 0
0.0003206160 -0.0110651150 0 0
-0.0005071450 -0.0140724970 0 0
-0.0013801540 -0.0173286870 0 0
-0.0022557520 -0.0205343100 0 0
-0.0030913160 -0.0233960080 0 0
-0.0038444550 -0.0256524220 0 0
-0.0044746380 -0.0270989940 0 0
-0.0049473820 -0.0276092190 0 0
-0.0052394570 -0.0271477700 0 0
-0.0053426910 -0.0257713400 0 0
-0.0052652610 -0.0236168720 0 0
-0.0050307860 -0.0208811990 0 0
-0.0046755090 -0.0177978470 0 0
-0.0042434870 -0.0146161300 0 0
-0.0037805820 -0.0115848770 0 0
-0.0033293330 -0.0089384010 0 0
-0.0029263420 -0.0068802950 0 0
-0.0026011500 -0.0055645890 0 0
-0.0023742960 -0.0050786110 0 0
-0.0022541190 -0.0054320920 0 0
-0.0022345400 -0.0065549570 0 0
-0.0022958120 -0.0083048090 0 0
-0.0024077370 -0.0104831460 0 0
-0.0025338490 -0.0128575270 0 0
-0.0026364690 -0.0151867340 0 0
-0.0026830380 -0.0172459690 0 0
-0.0026523460 -0.0188489280 0 0
-0.0025382080 -0.0198644000 0 0
-0.0023491930 -0.0202265180 0 0
-0.0021048640 -0.0199392620 0 0
-0.0018304240 -0.0190760030 0 0
-0.0015517580 -0.0177732220 0 0
-0.0012919720 -0.0162166600 0 0
-0.0010695040 -0.0146197360 0 0
-0.0008978630 -0.0131964200 0 0
-0.0007869180 -0.0121331660 0 0
-0.0007445460 -0.0115666980 0 0
-0.0007766860 -0.0115725020 0 0
-0.0008852990 -0.0121630910 0 0
-0.0010657720 -0.0132917650 0 0
-0.0013053120 -0.0148594240 0 0
-0.0015825310 -0.0167247000 0 0
-0.0018680320 -0.0187166690 0 0
-0.0021263800 -0.0206472320 0 0
-0.0023202730 -0.0223226470 0 0
-0.0024169600 -0.0235578400 0 0
-0.0023949190 -0.0241953410 0 0
-0.0022477160 -0.0241256710 0 0
-0.0019840260 -0.0233048760 0 0
-0.0016256920 -0.0217665510 0 0
-0.0012057790 -0.0196256760 0 0
-0.0007662940 -0.0170707680 0 0
-0.0003541540 -0.0143427720 0 0
-0.0000154193 -0.0117039270 0 0
0.0002104940 -0.0094046010 0 0
0.0002952370 -0.0076558780 0 0
0.0002245710 -0.0066103930 0 0
0.0000003945 -0.0063493120 0 0
-0.0003586450 -0.0068736280 0 0
-0.0008187290 -0.0081008420 0 0
-0.0013345280 -0.0098702720 0 0
-0.0018540390 -0.0119597930 0 0
-0.0023238860 -0.0141130040 0 0
-0.0026948030 -0.0160707160 0 0
-0.0029268900 -0.0175996670 0 0
-0.0029937510 -0.0185148530 0 0
-0.0028846830 -0.0186951200 0 0
-0.0026049090 -0.0180923580 0 0
-0.0021745600 -0.0167345690 0 0
-0.0016269570 -0.0147236490 0 0
-0.0010058290 -0.0122281440 0 0
-0.0003612680 -0.0094690130 0 0
0.0002546530 -0.0066970140 0 0
0.0007918530 -0.0041650520 0 0
0.0012063750 -0.0021022790 0 0
0.0014651200 -0.0006946950 0 0
0.0015496040 -0.0000719721 0 0
0.0014563030 -0.0002977130 0 0
0.0011941470 -0.0013619610 0 0
0.0007826110 -0.0031778520 0 0
0.0002520910 -0.0055860550 0 0
-0.0003552990 -0.0083692020 0 0
-0.0009873190 -0.0112747120 0 0
-0.0015864050 -0.0140418010 0 0
-0.0020962120 -0.0164288750 0 0
-0.0024680560 -0.0182382070 0 0
-0.0026665220 -0.0193345860 0 0
-0.0026740360 -0.0196548340 0 0
-0.0024938740 -0.0192061730 0 0
-0.0021509720 -0.0180546620 0 0
-0.0016896620 -0.0163094860 0 0
-0.0011676650 -0.0141094200 0 0
-0.0006471820 -0.0116138900 0 0
-0.0001853800 -0.0089972760 0 0
0.0001731530 -0.0064433770 0 0
0.0004002450 -0.0041370260 0 0
0.0004839510 -0.0022510450 0 0
0.0004258650 -0.0009284600 0 0
0.0002380170 -0.0002633910 0 0
-0.0000595441 -0.0002869200 0 0
-0.0004403850 -0.0009628820 0 0
-0.0008728280 -0.0021946490 0 0
-0.0013213630 -0.0038405680 0 0
-0.0017491500 -0.0057324030 0 0
-0.0021212790 -0.0076904410 0 0
-0.0024075940 -0.0095340850 0 0
-0.0025849120 -0.0110922500 0 0
-0.0026396000 -0.0122167070 0 0
-0.0025707450 -0.0127974530 0 0
-0.0023922040 -0.0127777610 0 0
-0.0021313050 -0.0121658060 0 0
-0.0018241070 -0.0110388290 0 0
-0.0015095610 -0.0095372200 0 0
-0.0012248330 -0.0078484380 0 0
-0.0010017320 -0.0061830870 0 0
-0.0008632730 -0.0047476420 0 0
-0.0008208310 -0.0037189770 0 0
-0.0008735970 -0.0032244770 0 0
-0.0010111170 -0.0033296150 0 0
-0.0012175490 -0.0040330510 0 0
-0.0014748610 -0.0052684290 0 0
-0.0017631350 -0.0069120310 0 0
-0.0020589120 -0.0087958590 0 0
-0.0023345040 -0.0107260310 0 0
-0.0025608810 -0.0125051000 0 0
-0.0027142480 -0.0139545180 0 0
-0.0027827930 -0.0149335950 0 0
-0.0027690890 -0.0153533600 0 0
-0.0026870460 -0.0151841450 0 0
-0.0025563910 -0.0144560620 0 0
-0.0023978160 -0.0132534790 0 0
-0.0022298880 -0.0117059320 0 0
-0.0020675940 -0.0099768010 0 0
-0.0019218960 -0.0082493250 0 0
-0.0017994960 -0.0067095940 0 0
-0.0017024210 -0.0055273020 0 0
-0.0016277040 -0.0048365280 0 0
-0.0015675600 -0.0047209000 0 0
-0.0015100630 -0.0052074530 0 0
-0.0014401910 -0.0062690270 0 0
-0.0013412580 -0.0078301060 0 0
-0.0011970570 -0.0097719990 0 0
-0.0009947710 -0.0119387160 0 0
-0.0007279510 -0.0141472190 0 0
-0.0003985160 -0.0162034350 0 0
-0.0000171499 -0.0179230960 0 0
0.0003979700 -0.0191554180 0 0
0.0008238410 -0.0198054360 0 0
0.0012359660 -0.0198485300 0 0
0.0016113380 -0.0193328350 0 0
0.0019302130 -0.0183707260 0 0
0.0021765780 -0.0171230970 0 0
0.0023376510 -0.0157783670 0 0
0.0024030930 -0.0145275590 0 0
0.0023648230 -0.0135390130 0 0
0.0022178720 -0.0129375520 0 0
0.0019619760 -0.0127918330 0 0
0.0016032780 -0.0131117760 0 0
0.0011556390 -0.0138551530 0 0
0.0006413740 -0.0149391360 0 0
0.0000911901 -0.0162520860 0 0
-0.0004571300 -0.0176634240 0 0
-0.0009614650 -0.0190314860 0 0
-0.0013790330 -0.0202100970 0 0
-0.0016703820 -0.0210561550 0 0
-0.0018036780 -0.0214411740 0 0
-0.0017591970 -0.0212664130 0 0
-0.0015325790 -0.0204778690 0 0
-0.0011354260 -0.0190783070 0 0
-0.0005936160 -0.0171346840 0 0
0.0000559010 -0.0147771940 0 0
0.0007695180 -0.0121865250 0 0
0.0015014020 -0.0095713820 0 0
0.0022061660 -0.0071428070 0 0
0.0028394310 -0.0050914020 0 0
0.0033574450 -0.0035705190 0 0
0.0037171850 -0.0026853460 0 0
0.0038782650 -0.0024865940 0 0
0.0038071300 -0.0029684170 0 0
0.0034828290 -0.0040711280 0 0
0.0029030970 -0.0056879180 0 0
0.0020887590 -0.0076730550 0 0
0.0010843540 -0.0098501790 0 0
-0.0000452763 -0.0120220720 0 0
-0.0012216830 -0.0139841510 0 0
-0.0023625600 -0.0155424140 0 0
-0.0033929090 -0.0165341290 0 0
-0.0042539580 -0.0168477290 0 0
-0.0049076120 -0.0164385470 0 0
-0.0053371980 -0.0153385230 0 0
-0.0055460110 -0.0136586560 0 0
-0.0055546040 -0.0115818590 0 0
-0.0053974000 -0.0093430280 0 0
-0.0051183460 -0.0071968920 0 0
-0.0047650220 -0.0053811170 0 0
-0.0043818780 -0.0040847910 0 0
-0.0040048440 -0.0034290920 0 0
-0.0036589950 -0.0034618560 0 0
-0.0033587240 -0.0041635860 0 0
-0.0031084730 -0.0054600910 0 0
-0.0029030030 -0.0072371170 0 0
-0.0027280420 -0.0093535790 0 0
-0.0025625980 -0.0116508400 0 0
-0.0023828930 -0.0139571840 0 0
-0.0021665980 -0.0160904200 0 0
-0.0018960730 -0.0178644170 0 0
-0.0015605750 -0.0191041210 0 0
-0.0011584020 -0.0196685750 0 0
-0.0006991580 -0.0194765880 0 0
-0.0002049360 -0.0185276910 0 0
0.0002908430 -0.0169109920 0 0
0.0007472230 -0.0147967820 0 0
0.0011215620 -0.0124121060 0 0
0.0013758890 -0.0100087090 0 0
0.0014817380 -0.0078332980 0 0
0.0014224280 -0.0061049960 0 0
0.0011936210 -0.0049980630 0 0
0.0008035950 -0.0046262560 0 0
0.0002735770 -0.0050294970 0 0
-0.0003624780 -0.0061679250 0 0
-0.0010594490 -0.0079271660 0 0
-0.0017647020 -0.0101337880 0 0
-0.0024238530 -0.0125761700 0 0
-0.0029867050 -0.0150257300 0 0
-0.0034108320 -0.0172561020 0 0
-0.0036625130 -0.0190604430 0 0
-0.0037168010 -0.0202676440 0 0
-0.0035583510 -0.0207573860 0 0
-0.0031836250 -0.0204729740 0 0
-0.0026041800 -0.0194313080 0 0
-0.0018494530 -0.0177292140 0 0
-0.0009671470 -0.0155423930 0 0
-0.0000205112 -0.0131113080 0 0
0.0009172040 -0.0107119970 0 0
0.0017704690 -0.0086165840 0 0
0.0024701980 -0.0070528350 0 0
0.0029620870 -0.0061726440 0 0
0.0032133860 -0.0060364960 0 0
0.0032166250 -0.0066157160 0 0
0.0029890150 -0.0078080020 0 0
0.0025681390 -0.0094579730 0 0
0.0020061050 -0.0113759520 0 0
0.0013636430 -0.0133529060 0 0
0.0007044280 -0.0151733520 0 0
0.0000894926 -0.0166293340 0 0
-0.0004283730 -0.0175376220 0 0
-0.0008097560 -0.0177594520 0 0
-0.0010321550 -0.0172189350 0 0
-0.0010911690 -0.0159153930 0 0
-0.0009994880 -0.0139271220 0 0
-0.0007841760 -0.0114061700 0 0
-0.0004829530 -0.0085643230 0 0
-0.0001400890 -0.0056514650 0 0
0.0001979850 -0.0029288640 0 0
0.0004875580 -0.0006409050 0 0
0.0006928910 0.0010103630 0 0
0.0007909530 0.0018840030 0 0
0.0007743200 0.0019109460 0 0
0.0006517510 0.0010975180 0 0
0.0004473320 -0.0004769530 0 0
0.0001990540 -0.0026674020 0 0
-0.0000435615 -0.0052746860 0 0
-0.0002239240 -0.0080617750 0 0
-0.0002854800 -0.0107744300 0 0
-0.0001806630 -0.0131652630 0 0
0.0001203010 -0.0150186560 0 0
0.0006234740 -0.0161727420 0 0
0.0013102160 -0.0165351480 0 0
0.0021407180 -0.0160913060 0 0
0.0030598050 -0.0149057170 0 0
0.0040034890 -0.0131165910 0 0
0.0049056410 -0.0109237510 0 0
0.0057039480 -0.0085697260 0 0
0.0063443690 -0.0063155300 0 0
0.0067840920 -0.0044143860 0 0
0.0069933920 -0.0030857010 0 0
0.0069566470 -0.0024900030 0 0
0.0066730670 -0.0027080670 0 0
0.0061576360 -0.0037300240 0 0
0.0054414040 -0.0054564670 0 0
0.0045693700 -0.0077092940 0 0
0.0035959420 -0.0102507340 0 0
0.0025797770 -0.0128093840 0 0
0.0015793590 -0.0151098730 0 0
0.0006492820 -0.0169018610 0 0
-0.0001632850 -0.0179851410 0 0
-0.0008221770 -0.0182289100 0 0
-0.0013057780 -0.0175840170 0 0
-0.0016100860 -0.0160870020 0 0
-0.0017502260 -0.0138551640 0 0
-0.0017586580 -0.0110730300 0 0
-0.0016795460 -0.0079717560 0 0
-0.0015614150 -0.0048046550 0 0
-0.0014508720 -0.0018236040 0 0
-0.0013881260 0.0007407650 0 0
-0.0014036370 0.0026960580 0 0
-0.0015159390 0.0039035640 0 0
-0.0017314290 0.0042906400 0 0
-0.0020455790 0.0038577800 0 0
-0.0024436960 0.0026792120 0 0
-0.0029009750 0.0008962050 0 0
-0.0033841190 -0.0012969040 0 0
-0.0038557370 -0.0036716920 0 0
-0.0042791170 -0.0059868690 0 0
-0.0046206760 -0.0080112010 0 0
-0.0048504910 -0.0095481450 0 0
-0.0049429400 -0.0104600590 0 0
-0.0048784830 -0.0106873220 0 0
-0.0046469150 -0.0102561850 0 0
-0.0042518550 -0.0092716540 0 0
-0.0037145540 -0.0078979130 0 0
-0.0030742330 -0.0063323750 0 0
-0.0023840620 -0.0047791220 0 0
-0.0017041730 -0.0034270440 0 0
-0.0010940580 -0.0024361970 0 0
-0.0006065200 -0.0019306170 0 0
-0.0002842680 -0.0019918650 0 0
-0.0001580960 -0.0026502360 0 0
-0.0002443180 -0.0038774320 0 0
-0.0005409340 -0.0055871370 0 0
-0.0010248960 -0.0076443060 0 0
-0.0016526460 -0.0098780610 0 0
-0.0023639210 -0.0120945760 0 0
-0.0030880600 -0.0140910210 0 0
-0.0037524410 -0.0156734290 0 0
-0.0042923360 -0.0166781210 0 0
-0.0046602110 -0.0169915850 0 0
-0.0048316330 -0.0165635650 0 0
-0.0048060450 -0.0154116520 0 0
-0.0046033710 -0.0136182600 0 0
-0.0042587170 -0.0113221120 0 0
-0.0038164670 -0.0087064900 0 0
-0.0033243970 -0.0059850890 0 0
-0.0028289040 -0.0033850170 0 0
-0.0023722740 -0.0011269760 0 0
-0.0019919250 0.0005950200 0 0
-0.0017204140 0.0016311310 0 0
-0.0015837900 0.0018893300 0 0
-0.0015967210 0.0013457300 0 0
-0.0017562620 0.0000506324 0 0
-0.0020382920 -0.0018721350 0 0
-0.0023991500 -0.0042347670 0 0
-0.0027821920 -0.0068046660 0 0
-0.0031272290 -0.0093309060 0 0
-0.0033803150 -0.0115735380 0 0
-0.0035013070 -0.0133315340 0 0
-0.0034678180 -0.0144653190 0 0
-0.0032762860 -0.0149102330 0 0
-0.0029415180 -0.0146788710 0 0
-0.0024949720 -0.0138523200 0 0
-0.0019809950 -0.0125631130 0 0
-0.0014507080 -0.0109750040 0 0
-0.0009546370 -0.0092652020 0 0
-0.0005362560 -0.0076123000 0 0
-0.0002281420 -0.0061886840 0 0
-0.0000509659 -0.0051528220 0 0
-0.0000145970 -0.0046364730 0 0
-0.0001201450 -0.0047251720 0 0
-0.0003613900 -0.0054367360 0 0
-0.0007246650 -0.0067067980 0 0
-0.0011879560 -0.0083882800 0 0
-0.0017209630 -0.0102671110 0 0
-0.0022871030 -0.0120933960 0 0
-0.0028468350 -0.0136229380 0 0
-0.0033605900 -0.0146579180 0 0
-0.0037905440 -0.0150736180 0 0
-0.0041025670 -0.0148244200 0 0
-0.0042700890 -0.0139333270 0 0
-0.0042794800 -0.0124761000 0 0
-0.0041346260 -0.0105691220 0 0
-0.0038584870 -0.0083626570 0 0
-0.0034907930 -0.0060354630 0 0
-0.0030823350 -0.0037857760 0 0
-0.0026873800 -0.0018162940 0 0
-0.0023562370 -0.0003137820 0 0
-0.0021293870 0.0005738320 0 0
-0.0020337380 0.0007579620 0 0
-0.0020806580 0.0002219010 0 0
-0.0022648440 -0.0009773450 0 0
-0.0025639440 -0.0027170880 0 0
-0.0029400510 -0.0048243010 0 0
-0.0033435190 -0.0070955410 0 0
-0.0037181460 -0.0093193660 0 0
-0.0040070390 -0.0112988730 0 0
-0.0041588980 -0.0128705760 0 0
-0.0041336660 -0.0139157110 0 0
-0.0039062390 -0.0143629500 0 0
-0.0034688000 -0.0141857030 0 0
-0.0028333230 -0.0133983870 0 0
-0.0020337560 -0.0120536660 0 0
-0.0011254030 -0.0102409840 0 0
-0.0001796410 -0.0080861940 0 0
0.0007258050 -0.0057499240 0 0
0.0015185830 -0.0034206780 0 0
0.0021418220 -0.0013000570 0 0
0.0025599700 0.0004190620 0 0
0.0027600410 0.0015768860 0 0
0.0027494290 0.0020680290 0 0
0.0025517030 0.0018563850 0 0
0.0022016530 0.0009815440 0 0
0.0017409570 -0.0004454500 0 0
0.0012155720 -0.0022572810 0 0
0.0006747430 -0.0042524520 0 0
0.0001703480 -0.0062180760 0 0
-0.0002453630 -0.0079500640 0 0
-0.0005250840 -0.0092714720 0 0
-0.0006340070 -0.0100490050 0 0
-0.0005564710 -0.0102050960 0 0
-0.0002993170 -0.0097239710 0 0
0.0001082830 -0.0086523720 0 0
0.0006182530 -0.0070955150 0 0
0.0011700790 -0.0052080020 0 0
0.0016996870 -0.0031797420 0 0
0.0021490640 -0.0012175510 0 0
0.0024738690 0.0004764260 0 0
0.0026469400 0.0017266340 0 0
0.0026578970 0.0024019930 0 0
0.0025106610 0.0024267880 0 0
0.0022206230 0.0017846400 0 0
0.0018124210 0.0005176600 0 0
0.0013184410 -0.0012771840 0 0
0.0007773500 -0.0034540020 0 0
0.0002319070 -0.0058264100 0 0
-0.0002741870 -0.0081789640 0 0
-0.0006999190 -0.0102835500 0 0
-0.0010098850 -0.0119215340 0 0
-0.0011759870 -0.0129089260 0 0
-0.0011791390 -0.0131200380 0 0
-0.0010123630 -0.0125053580 0 0
-0.0006845910 -0.0111000570 0 0
-0.0002228100 -0.0090217760 0 0
0.0003296430 -0.0064589500 0 0
0.0009190650 -0.0036516200 0 0
0.0014896660 -0.0008672380 0 0
0.0019908460 0.0016247620 0 0
0.0023816070 0.0035773470 0 0
0.0026323520 0.0047893470 0 0
0.0027255570 0.0051274030 0 0
0.0026570830 0.0045431490 0 0
0.0024387540 0.0030816400 0 0
0.0021003700 0.0008782490 0 0
0.0016881380 -0.0018558960 0 0
0.0012584610 -0.0048561590 0 0
0.0008687040 -0.0078300920 0 0
0.0005681540 -0.0104853730 0 0
0.0003921100 -0.0125594340 0 0
0.0003596890 -0.0138477450 0 0
0.0004735820 -0.0142263780 0 0
0.0007205130 -0.0136646280 0 0
0.0010728980 -0.0122257590 0 0
0.0014921370 -0.0100578780 0 0
0.0019329690 -0.0073776280 0 0
0.0023483590 -0.0044473290 0 0
0.0026946790 -0.0015472280 0 0
0.0029366870 0.0010524590 0 0
0.0030516400 0.0031161050 0 0
0.0030320280 0.0044630810 0 0
0.0028862080 0.0049832140 0 0
0.0026366610 0.0046448920 0 0
0.0023165410 0.0034941760 0 0
0.0019655270 0.0016460320 0 0
0.0016259360 -0.0007292250 0 0
0.0013401300 -0.0034214050 0 0
0.0011490470 -0.0061965090 0 0
0.0010900330 -0.0088135670 0 0
0.0011927390 -0.0110431810 0 0
0.0014742170 -0.0126870870 0 0
0.0019348310 -0.0135960110 0 0
0.0025553610 -0.0136836880 0 0
0.0032959310 -0.0129364480 0 0
0.0040985600 -0.0114174660 0 0
0.0048943880 -0.0092647110 0 0
0.0056141970 -0.0066823090 0 0
0.0061993450 -0.0039242700 0 0
0.0066098060 -0.0012689760 0 0
0.0068266760 0.0010137590 0 0
0.0068488860 0.0026963300 0 0
0.0066873280 0.0036199000 0 0
0.0063608930 0.0037091870 0 0
0.0058964920 0.0029753530 0 0
0.0053312610 0.0015103260 0 0
0.0047132570 -0.0005239150 0 0
0.0040982020 -0.0029099030 0 0
0.0035428660 -0.0053942540 0 0
0.0030977460 -0.0077137710 0 0
0.0028010210 -0.0096261220 0 0
0.0026742370 -0.0109386530 0 0
0.0027199550 -0.0115293200 0 0
0.0029216440 -0.0113585810 0 0
0.0032458220 -0.0104734580 0 0
0.0036461000 -0.0090025880 0 0
0.0040683150 -0.0071403560 0 0
0.0044557480 -0.0051221850 0 0
0.0047540710 -0.0031958990 0 0
0.0049161420 -0.0015927580 0 0
0.0049065680 -0.0005003810 0 0
0.0047057850 -0.0000408130 0 0
0.0043132280 -0.0002575780 0 0
0.0037485670 -0.0011137360 0 0
0.0030502480 -0.0025008750 0 0
0.0022716640 -0.0042572060 0 0
0.0014753540 -0.0061906130 0 0
0.0007255800 -0.0081011170 0 0
0.0000806661 -0.0097991190 0 0
-0.0004130050 -0.0111190340 0 0
-0.0007246290 -0.0119288210 0 0
-0.0008405660 -0.0121365540 0 0
-0.0007643050 -0.0116963460 0 0
-0.0005152990 -0.0106139280 0 0
-0.0001268310 -0.0089492610 0 0
0.0003574560 -0.0068151320 0 0
0.0008885280 -0.0043734260 0 0
0.0014174990 -0.0018288830 0 0
0.0019005420 0.0005835320 0 0
0.0023023700 0.0026204760 0 0
0.0025977780 0.0040587660 0 0
0.0027712110 0.0047254040 0 0
0.0028153030 0.0045238460 0 0
0.0027300140 0.0034506450 0 0
0.0025234230 0.0015981090 0 0
0.0022137930 -0.0008565050 0 0
0.0018312510 -0.0036718350 0 0
0.0014174150 -0.0065695190 0 0
0.0010220090 -0.0092641360 0 0
0.0006965040 -0.0114928280 0 0
0.0004864590 -0.0130409630 0 0
0.0004249580 -0.0137613690 0 0
0.0005280080 -0.0135870620 0 0
0.0007916900 -0.0125368680 0 0
0.0011919220 -0.0107125840 0 0
0.0016880010 -0.0082881070 0 0
0.0022294350 -0.0054921760 0 0
0.0027642030 -0.0025869910 0 0
0.0032469550 0.0001549220 0 0
0.0036458800 0.0024741140 0 0
0.0039464070 0.0041468920 0 0
0.0041503110 0.0050055790 0 0
0.0042711940 0.0049543010 0 0
0.0043295780 0.0039793090 0 0
0.0043499700 0.0021530500 0 0
0.0043595140 -0.0003695700 0 0
0.0043869790 -0.0033634400 0 0
0.0044621540 -0.0065527470 0 0
0.0046160750 -0.0096363950 0 0
0.0048809150 -0.0123182780 0 0
0.0052874080 -0.0143391980 0 0
0.0058592820 -0.0155051020 0 0
0.0066060850 -0.0157071510 0 0
0.0075164570 -0.0149316660 0 0
0.0085541350 -0.0132602150 0 0
0.0096584940 -0.0108615220 0 0
0.0107500660 -0.0079758560 0 0
0.0117395320 -0.0048910610 0 0
0.0125375710 -0.0019114580 0 0
0.0130637370 0.0006754890 0 0
0.0132537890 0.0026293240 0 0
0.0130655810 0.0037801190 0 0
0.0124840750 0.0040434230 0 0
0.0115256860 0.0034259350 0 0
0.0102407000 0.0020221860 0 0
0.0087112810 0.0000021625 0 0
0.0070431150 -0.0024098090 0 0
0.0053516820 -0.0049617430 0 0
0.0037484710 -0.0074010460 0 0
0.0023326030 -0.0094979620 0 0
0.0011878570 -0.0110643430 0 0
0.0003805160 -0.0119679790 0 0
-0.0000450019 -0.0121422540 0 0
-0.0000717775 -0.0115910990 0 0
0.0002849710 -0.0103896250 0 0
0.0009761510 -0.0086790530 0 0
0.0019218990 -0.0066535270 0 0
0.0030203980 -0.0045389830 0 0
0.0041604900 -0.0025676800 0 0
0.0052345540 -0.0009528540 0 0
0.0061491740 0.0001326550 0 0
0.0068328290 0.0005708050 0 0
0.0072403960 0.0003052220 0 0
0.0073545830 -0.0006567890 0 0
0.0071850440 -0.0022451950 0 0
0.0067657040 -0.0043319980 0 0
0.0061503180 -0.0067407930 0 0
0.0054064200 -0.0092606840 0 0
0.0046080510 -0.0116637900 0 0
0.0038275400 -0.0137258020 0 0
0.0031272990 -0.0152485710 0 0
0.0025533510 -0.0160821470 0 0
0.0021318060 -0.0161430160 0 0
0.0018686350 -0.0154264920 0 0
0.0017525930 -0.0140118470 0 0
0.0017598980 -0.0120578830 0 0
0.0018585640 -0.0097861140 0 0
0.0020116890 -0.0074518120 0 0
0.0021808070 -0.0053090670 0 0
0.0023302270 -0.0035785440 0 0
0.0024318420 -0.0024238080 0 0
0.0024691030 -0.0019382270 0 0
0.0024389300 -0.0021417880 0 0
0.0023511650 -0.0029852600 0 0
0.0022258550 -0.0043591110 0 0
0.0020888290 -0.0061061140 0 0
0.0019666000 -0.0080372940 0 0
0.0018824940 -0.0099492280 0 0
0.0018556630 -0.0116394210 0 0
0.0019027960 -0.0129189810 0 0
0.0020403660 -0.0136260860 0 0
0.0022845780 -0.0136440370 0 0
0.0026476570 -0.0129220960 0 0
0.0031320040 -0.0114910210 0 0
0.0037256810 -0.0094646690 0 0
0.0044013260 -0.0070254110 0 0
0.0051185850 -0.0043984080 0 0
0.0058297770 -0.0018224710 0 0
0.0064874790 0.0004755450 0 0
0.0070506890 0.0022988490 0 0
0.0074873580 0.0034924170 0 0
0.0077745380 0.0039524790 0 0
0.0078985730 0.0036352310 0 0
0.0078561920 0.0025620610 0 0
0.0076557200 0.0008187930 0 0
0.0073175220 -0.0014511270 0 0
0.0068732400 -0.0040581040 0 0
0.0063638830 -0.0067803580 0 0
0.0058372230 -0.0093793300 0 0
0.0053445430 -0.0116179540 0 0
0.0049357520 -0.0132831810 0 0
0.0046525660 -0.0142109470 0 0
0.0045212720 -0.0143085950 0 0
0.0045470450 -0.0135690340 0 0
0.0047111850 -0.0120730600 0 0
0.0049725280 -0.0099796690 0 0
0.0052739800 -0.0075064380 0 0
0.0055526490 -0.0049029170 0 0
0.0057498590 -0.0024217110 0 0
0.0058184890 -0.0002930810 0 0
0.0057276790 0.0012927830 0 0
0.0054657060 0.0021955880 0 0
0.0050412030 0.0023304280 0 0
0.0044824100 0.0016721120 0 0
0.0038341600 0.0002579670 0 0
0.0031529740 -0.0018131330 0 0
0.0025012680 -0.0043867450 0 0
0.0019414380 -0.0072633550 0 0
0.0015299510 -0.0102117000 0 0
0.0013113070 -0.0129847450 0 0
0.0013124340 -0.0153405090 0 0
0.0015387420 -0.0170675530 0 0
0.0019729910 -0.0180097090 0 0
0.0025778130 -0.0180839280 0 0
0.0033017710 -0.0172888030 0 0
0.0040870340 -0.0157037370 0 0
0.0048760570 -0.0134792010 0 0
0.0056159230 -0.0108198620 0 0
0.0062606060 -0.0079642610 0 0
0.0067721520 -0.0051639340 0 0
0.0071216050 -0.0026623790 0 0
0.0072901110 -0.0006736100 0 0
0.0072702520 0.0006389830 0 0
0.0070676890 0.0011815040 0 0
0.0067028170 0.0009425350 0 0
0.0062115740 -0.0000042925 0 0
0.0056442790 -0.0015102790 0 0
0.0050617260 -0.0033714110 0 0
0.0045284300 -0.0053523500 0 0
0.0041039970 -0.0072109850 0 0
0.0038349910 -0.0087234460 0 0
0.0037500740 -0.0097091340 0 0
0.0038591620 -0.0100520480 0 0
0.0041545060 -0.0097146780 0 0
0.0046114230 -0.0087423820 0 0
0.0051887740 -0.0072567610 0 0
0.0058308480 -0.0054387140 0 0
0.0064715030 -0.0035049140 0 0
0.0070400640 -0.0016818310 0 0
0.0074683800 -0.0001813020 0 0
0.0076985800 0.0008184610 0 0
0.0076904950 0.0011851950 0 0
0.0074271720 0.0008406160 0 0
0.0069171970 -0.0002331060 0 0
0.0061937510 -0.0019886080 0 0
0.0053111130 -0.0043131530 0 0
0.0043391570 -0.0070351790 0 0
0.0033565950 -0.0099364630 0 0
0.0024441710 -0.0127680550 0 0
0.0016782230 -0.0152710660 0 0
0.0011239540 -0.0172032080 0 0
0.0008284810 -0.0183665860 0 0
0.0008147000 -0.0186297050 0 0
0.0010772910 -0.0179405130 0 0
0.0015822440 -0.0163316560 0 0
0.0022708770 -0.0139195550 0 0
0.0030676850 -0.0108972810 0 0
0.0038901200 -0.0075205280 0 0
0.0046587490 -0.0040864060 0 0
0.0053067240 -0.0009050110 0 0
0.0057868150 0.0017354930 0 0
0.0060743030 0.0036062550 0 0
0.0061657660 0.0045691000 0 0
0.0060756070 0.0045929370 0 0
0.0058323600 0.0037513300 0 0
0.0054752670 0.0022038650 0 0
0.0050505320 0.0001680010 0 0
0.0046077550 -0.0021115340 0 0
0.0041979880 -0.0043907700 0 0
0.0038725950 -0.0064496680 0 0
0.0036801360 -0.0081101400 0 0
0.0036601510 -0.0092488140 0 0
0.0038357440 -0.0098035460 0 0
0.0042080060 -0.0097733310 0 0
0.0047546130 -0.0092119440 0 0
0.0054331010 -0.0082162060 0 0
0.0061871060 -0.0069120750 0 0
0.0069528350 -0.0054438130 0 0
0.0076639720 -0.0039693430 0 0
0.0082553430 -0.0026587980 0 0
0.0086676640 -0.0016881230 0 0
0.0088551360 -0.0012209390 0 0
0.0087938680 -0.0013802050 0 0
0.0084866000 -0.0022197280 0 0
0.0079616350 -0.0037066400 0 0
0.0072680170 -0.0057195550 0 0
0.0064696070 -0.0080609370 0 0
0.0056387210 -0.0104806120 0 0
0.0048489520 -0.0127078430 0 0
0.0041674250 -0.0144878450 0 0
0.0036481880 -0.0156157230 0 0
0.0033285220 -0.0159603670 0 0
0.0032274880 -0.0154740920 0 0
0.0033445550 -0.0141887980 0 0
0.0036580750 -0.0122036060 0 0
0.0041253680 -0.0096704480 0 0
0.0046857680 -0.0067817530 0 0
0.0052668740 -0.0037594050 0 0
0.0057937580 -0.0008408440 0 0
0.0062000220 0.0017403450 0 0
0.0064380820 0.0037775780 0 0
0.0064857270 0.0051133530 0 0
0.0063476580 0.0056556900 0 0
0.0060524570 0.0053867030 0 0
0.0056463710 0.0043632650 0 0
0.0051858000 0.0027103870 0 0
0.0047301490 0.0006076440 0 0
0.0043358430 -0.0017301810 0 0
0.0040514470 -0.0040752020 0 0
0.0039135470 -0.0062076210 0 0
0.0039435950 -0.0079344030 0 0
0.0041461320 -0.0091060150 0 0
0.0045085950 -0.0096318470 0 0
0.0050027850 -0.0094932520 0 0
0.0055878320 -0.0087514090 0 0
0.0062139390 -0.0075466960 0 0
0.0068265320 -0.0060870640 0 0
0.0073713530 -0.0046241250 0 0
0.0078005480 -0.0034181340 0 0
0.0080778930 -0.0026967650 0 0
0.0081811810 -0.0026160830 0 0
0.0081022200 -0.0032336740 0 0
0.0078465920 -0.0045010980 0 0
0.0074339500 -0.0062770020 0 0
0.0068975990 -0.0083563310 0 0
0.0062817330 -0.0105065790 0 0
0.0056364960 -0.0125007960 0 0
0.0050131690 -0.0141405370 0 0
0.0044613370 -0.0152682290 0 0
0.0040266370 -0.0157734110 0 0
0.0037466710 -0.0155970660 0 0
0.0036452070 -0.0147344840 0 0
0.0037269760 -0.0132353790 0 0
0.0039751230 -0.0112008440 0 0
0.0043525410 -0.0087768420 0 0
0.0048077670 -0.0061441360 0 0
0.0052840380 -0.0035058080 0 0
0.0057274460 -0.0010733740 0 0
0.0060906970 0.0009490730 0 0
0.0063331400 0.0023829680 0 0
0.0064208090 0.0030934850 0 0
0.0063290420 0.0030040090 0 0
0.0060470730 0.0021041540 0 0
0.0055823920 0.0004513310 0 0
0.0049631680 -0.0018335920 0 0
0.0042377680 -0.0045771390 0 0
0.0034707300 -0.0075702440 0 0
0.0027347710 -0.0105888260 0 0
0.0021001430 -0.0134144020 0 0
0.0016244350 -0.0158522070 0 0
0.0013455760 -0.0177453180 0 0
0.0012793830 -0.0189840850 0 0
0.0014215600 -0.0195116010 0 0
0.0017525580 -0.0193269600 0 0
0.0022423990 -0.0184865400 0 0
0.0028528280 -0.0171014570 0 0
0.0035369500 -0.0153293920 0 0
0.0042394710 -0.0133600030 0 0
0.0049000260 -0.0113945620 0 0
0.0054591620 -0.0096230940 0 0
0.0058647110 -0.0082040180 0 0
0.0060767270 -0.0072503060 0 0
0.0060710440 -0.0068228020 0 0
0.0058423030 -0.0069278330 0 0
0.0054058000 -0.0075164930 0 0
0.0047969380 -0.0084873420 0 0
0.0040681690 -0.0096958340 0 0
0.0032840640 -0.0109703450 0 0
0.0025150680 -0.0121321530 0 0
0.0018307640 -0.0130158270 0 0
0.0012936060 -0.0134856580 0 0
0.0009536360 -0.0134462290 0 0
0.0008440780 -0.0128488960 0 0
0.0009773930 -0.0116959880 0 0
0.0013420160 -0.0100437100 0 0
0.0019011200 -0.0080036200 0 0
0.0025949260 -0.0057396330 0 0
0.0033470210 -0.0034564780 0 0
0.0040740840 -0.0013792330 0 0
0.0046971040 0.0002718620 0 0
0.0051515120 0.0013068420 0 0
0.0053945120 0.0015887900 0 0
0.0054092990 0.0010514330 0 0
0.0052060030 -0.0002909320 0 0
0.0048187750 -0.0023435310 0 0
0.0042990570 -0.0049419740 0 0
0.0037068790 -0.0078710150 0 0
0.0031031200 -0.0108867500 0 0
0.0025444300 -0.0137394220 0 0
0.0020801210 -0.0161959730 0 0
0.0017493780 -0.0180620670 0 0
0.0015784980 -0.0192011050 0 0
0.0015796070 -0.0195451890 0 0
0.0017516650 -0.0190956890 0 0
0.0020821770 -0.0179162690 0 0
0.0025476870 -0.0161220860 0 0
0.0031134110 -0.0138665920 0 0
0.0037343110 -0.0113270080 0 0
0.0043591060 -0.0086900530 0 0
0.0049359920 -0.0061393180 0 0
0.0054174960 -0.0038454880 0 0
0.0057634760 -0.0019597240 0 0
0.0059434530 -0.0006079290 0 0
0.0059398320 0.0001183230 0 0
0.0057520980 0.0001755160 0 0
0.0054001560 -0.0004181870 0 0
0.0049243290 -0.0015763780 0 0
0.0043803360 -0.0031490450 0 0
0.0038298800 -0.0049387110 0 0
0.0033298190 -0.0067244010 0 0
0.0029231880 -0.0082877640 0 0
0.0026338740 -0.0094373010 0 0
0.0024660910 -0.0100287780 0 0
0.0024084600 -0.0099808920 0 0
0.0024398990 -0.0092852520 0 0
0.0025335280 -0.0080093380 0 0
0.0026576050 -0.0062919480 0 0
0.0027761180 -0.0043313880 0 0
0.0028517400 -0.0023653410 0 0
0.0028511360 -0.0006415420 0 0
0.0027505700 0.0006164240 0 0
0.0025394500 0.0012393570 0 0
0.0022207170 0.0011318500 0 0
0.0018093370 0.0002796000 0 0
0.0013310400 -0.0012531850 0 0
0.0008217480 -0.0033342350 0 0
0.0003265000 -0.0057806860 0 0
-0.0001030410 -0.0083813730 0 0
-0.0004126450 -0.0109189430 0 0
-0.0005511840 -0.0131874920 0 0
-0.0004773510 -0.0150051310 0 0
-0.0001657580 -0.0162236040 0 0
0.0003894480 -0.0167373390 0 0
0.0011739010 -0.0164926170 0 0
0.0021537180 -0.0154956900 0 0
0.0032765130 -0.0138172430 0 0
0.0044741650 -0.0115900120 0 0
0.0056688820 -0.0089980960 0 0
0.0067810970 -0.0062594350 0 0
0.0077367150 -0.0036044060 0 0
0.0084732740 -0.0012532080 0 0
0.0089460700 0.0006057270 0 0
0.0091337250 0.0018337240 0 0
0.0090405850 0.0023540440 0 0
0.0086941130 0.0021576740 0 0
0.0081385100 0.0013034770 0 0
0.0074275480 -0.0000875962 0 0
0.0066188910 -0.0018458340 0 0
0.0057705890 -0.0037734540 0 0
0.0049386970 -0.0056687620 0 0
0.0041745620 -0.0073487240 0 0
0.0035212620 -0.0086670940 0 0
0.0030096800 -0.0095274100 0 0
0.0026555260 -0.0098897200 0 0
0.0024588390 -0.0097697370 0 0
0.0024061830 -0.0092318380 0 0
0.0024742730 -0.0083806600 0 0
0.0026334750 -0.0073552450 0 0
0.0028505420 -0.0063240280 0 0
0.0030908110 -0.0054739180 0 0
0.0033200190 -0.0049890760 0 0
0.0035053020 -0.0050222850 0 0
0.0036157920 -0.0056664370 0 0
0.0036243450 -0.0069338940 0 0
0.0035111000 -0.0087491320 0 0
0.0032678280 -0.0109563790 0 0
0.0029015950 -0.0133403630 0 0
0.0024365060 -0.0156548210 0 0
0.0019120920 -0.0176521370 0 0
0.0013772190 -0.0191104820 0 0
0.0008803390 -0.0198566180 0 0
0.0004595430 -0.0197813620 0 0
0.0001367120 -0.0188456140 0 0
-0.0000825581 -0.0170785170 0 0
-0.0002057080 -0.0145712200 0 0
-0.0002500700 -0.0114695860 0 0
-0.0002407870 -0.0079678740 0 0
-0.0002084970 -0.0043013450 0 0
-0.0001857990 -0.0007321950 0 0
-0.0002030510 0.0024739550 0 0
-0.0002845500 0.0050771000 0 0
-0.0004452830 0.0068902140 0 0
-0.0006877510 0.0077990090 0 0
-0.0009994960 0.0077714440 0 0
-0.0013535330 0.0068577160 0 0
-0.0017128990 0.0051824200 0 0
-0.0020377530 0.0029295520 0 0
-0.0022920550 0.0003216360 0 0
-0.0024475210 -0.0024036310 0 0
-0.0024843410 -0.0050156470 0 0
-0.0023902630 -0.0073102530 0 0
-0.0021603580 -0.0091249440 0 0
-0.0017987590 -0.0103487780 0 0
-0.0013218720 -0.0109279360 0 0
-0.0007608920 -0.0108695890 0 0
-0.0001611910 -0.0102439330 0 0
0.0004220820 -0.0091800770 0 0
0.0009307730 -0.0078520230 0 0
0.0013107270 -0.0064554090 0 0
0.0015177520 -0.0051799710 0 0
0.0015225270 -0.0041849630 0 0
0.0013143540 -0.0035833700 0 0
0.0009026930 -0.0034351470 0 0
0.0003158510 -0.0037461650 0 0
-0.0004022630 -0.0044714010 0 0
-0.0011961880 -0.0055227520 0 0
-0.0020035540 -0.0067805350 0 0
-0.0027601880 -0.0081063760 0 0
-0.0034055710 -0.0093557190 0 0
-0.0038884900 -0.0103888600 0 0
-0.0041719930 -0.0110804720 0 0
-0.0042363410 -0.0113291300 0 0
-0.0040802690 -0.0110683430 0 0
-0.0037216910 -0.0102787440 0 0
-0.0031973110 -0.0089978880 0 0
-0.0025591560 -0.0073218810 0 0
-0.0018676320 -0.0053964010 0 0
-0.0011831270 -0.0034009000 0 0
-0.0005594050 -0.0015303630 0 0
-0.0000407946 0.0000245691 0 0
0.0003383320 0.0010981880 0 0
0.0005550070 0.0015666960 0 0
0.0006002040 0.0013572610 0 0
0.0004798610 0.0004500810 0 0
0.0002135960 -0.0011212260 0 0
-0.0001671060 -0.0032677680 0 0
-0.0006203450 -0.0058445980 0 0
-0.0010955310 -0.0086560880 0 0
-0.0015360640 -0.0114704980 0 0
-0.0018838380 -0.0140431030 0 0
-0.0020864800 -0.0161440600 0 0
-0.0021060680 -0.0175861630 0 0
-0.0019260280 -0.0182486290 0 0
-0.0015536990 -0.0180933910 0 0
-0.0010181430 -0.0171701780 0 0
-0.0003647810 -0.0156092300 0 0
0.0003503250 -0.0136041450 0 0
0.0010648780 -0.0113884130 0 0
0.0017142320 -0.0092090550 0 0
0.0022363920 -0.0073015320 0 0
0.0025786450 -0.0058688770 0 0
0.0027047670 -0.0050643710 0 0
0.0026006360 -0.0049763480 0 0
0.0022763120 -0.0056165040 0 0
0.0017643620 -0.0069147080 0 0
0.0011158260 -0.0087233170 0 0
0.0003953340 -0.0108332630 0 0
-0.0003241080 -0.0130009860 0 0
-0.0009666730 -0.0149808640 0 0
-0.0014599410 -0.0165555900 0 0
-0.0017425990 -0.0175578480 0 0
-0.0017733710 -0.0178809020 0 0
-0.0015385090 -0.0174816520 0 0
-0.0010548030 -0.0163817020 0 0
-0.0003672320 -0.0146683770 0 0
0.0004578660 -0.0124923680 0 0
0.0013426700 -0.0100570960 0 0
0.0022087380 -0.0075987980 0 0
0.0029863100 -0.0053610010 0 0
0.0036199300 -0.0035680910 0 0
0.0040697860 -0.0024010470 0 0
0.0043102210 -0.0019776370 0 0
0.0043283040 -0.0023397600 0 0
0.0041245500 -0.0034503400 0 0
0.0037154850 -0.0052002210 0 0
0.0031358040 -0.0074226610 0 0
0.0024377230 -0.0099119380 0 0
0.0016865920 -0.0124442400 0 0
0.0009532720 -0.0147998640 0 0
0.0003047770 -0.0167831580 0 0
-0.0002039780 -0.0182353720 0 0
-0.0005349130 -0.0190404520 0 0
-0.0006688220 -0.0191297390 0 0
-0.0006068470 -0.0184902950 0 0
-0.0003715670 -0.0171745450 0 0
-0.0000060090 -0.0153037110 0 0
0.0004310580 -0.0130586330 0 0
0.0008736100 -0.0106578430 0 0
0.0012585530 -0.0083283390 0 0
0.0015345560 -0.0062755210 0 0
0.0016676400 -0.0046585350 0 0
0.0016432390 -0.0035771440 0 0
0.0014654270 -0.0030722800 0 0
0.0011545200 -0.0031356050 0 0
0.0007439120 -0.0037201890 0 0
0.0002761930 -0.0047467510 0 0
-0.0002014690 -0.0061053980 0 0
-0.0006422450 -0.0076579010 0 0
-0.0010042900 -0.0092454030 0 0
-0.0012546630 -0.0107009280 0 0
-0.0013721030 -0.0118632620 0 0
-0.0013480910 -0.0125912710 0 0
-0.0011855860 -0.0127785120 0 0
-0.0008957960 -0.0123663050 0 0
-0.0004953720 -0.0113538470 0 0
-0.0000066361 -0.0098045060 0 0
0.0005394420 -0.0078459500 0 0
0.0011009160 -0.0056619300 0 0
0.0016266120 -0.0034763330 0 0
0.0020624000 -0.0015313000 0 0
0.0023597080 -0.0000610208 0 0
0.0024835850 0.0007364120 0 0
0.0024186040 0.0007258440 0 0
0.0021720160 -0.0001427030 0 0
0.0017740830 -0.0018202650 0 0
0.0012750220 -0.0041581170 0 0
0.0007383730 -0.0069229800 0 0
0.0002323830 -0.0098270160 0 0
-0.0001783860 -0.0125660770 0 0
-0.0004402380 -0.0148577060 0 0
-0.0005158240 -0.0164729070 0 0
-0.0003871680 -0.0172591430 0 0
-0.0000564272 -0.0171535720 0 0
0.0004543590 -0.0161859660 0 0
0.0011043390 -0.0144712740 0 0
0.0018371310 -0.0121932920 0 0
0.0025870570 -0.0095822140 0 0
0.0032874110 -0.0068888110 0 0
0.0038791690 -0.0043572410 0 0
0.0043182790 -0.0021990150 0 0
0.0045794690 -0.0005729390 0 0
0.0046560540 0.0004232380 0 0
0.0045573520 0.0007485680 0 0
0.0043053460 0.0004085860 0 0
0.0039307020 -0.0005527080 0 0
0.0034682330 -0.0020554640 0 0
0.0029532760 -0.0039842370 0 0
0.0024200290 -0.0061908180 0 0
0.0019010050 -0.0085016960 0 0
0.0014264780 -0.0107288780 0 0
0.0010238870 -0.0126839500 0 0
0.0007173440 -0.0141965690 0 0
0.0005268250 -0.0151349790 0 0
0.0004663840 -0.0154229620 0 0
0.0005413030 -0.0150494570 0 0
0.0007451270 -0.0140697640 0 0
0.0010583160 -0.0125988150 0 0
0.0014497180 -0.0107984720 0 0
0.0018808000 -0.0088616380 0 0
0.0023113750 -0.0069955540 0 0
0.0027050350 -0.0054054580 0 0
0.0030330220 -0.0042775370 0 0
0.0032763420 -0.0037594510 0 0
0.0034263400 -0.0039394610 0 0
0.0034837960 -0.0048281810 0 0
0.0034570750 -0.0063481960 0 0
0.0033605920 -0.0083367110 0 0
0.0032144730 -0.0105632840 0 0
0.0030449900 -0.0127594200 0 0
0.0028843010 -0.0146540250 0 0
0.0027679820 -0.0160087300 0 0
0.0027299460 -0.0166471380 0 0
0.0027957260 -0.0164738740 0 0
0.0029763820 -0.0154832090 0 0
0.0032654150 -0.0137584070 0 0
0.0036395550 -0.0114612130 0 0
0.0040621410 -0.0088116240 0 0
0.0044871130 -0.0060610180 0 0
0.0048626920 -0.0034626310 0 0
0.0051354480 -0.0012435190 0 0
0.0052562670 0.0004175200 0 0
0.0051882040 0.0014031340 0 0
0.0049135760 0.0016619270 0 0
0.0044375430 0.0012065050 0 0
0.0037873530 0.0001074350 0 0
0.0030077060 -0.0015147110 0 0
0.0021531720 -0.0034984600 0 0
0.0012797210 -0.0056537220 0 0
0.0004379110 -0.0077792860 0 0
-0.0003310610 -0.0096837390 0 0
-0.0009969790 -0.0112049910 0 0
-0.0015403850 -0.0122246280 0 0
-0.0019507000 -0.0126767230 0 0
-0.0022244110 -0.0125526360 0 0
-0.0023653570 -0.0119024050 0 0
-0.0023864020 -0.0108316040 0 0
-0.0023100500 -0.0094922330 0 0
-0.0021672410 -0.0080677890 0 0
-0.0019952500 -0.0067539450 0 0
-0.0018349430 -0.0057362970 0 0
-0.0017265590 -0.0051675450 0 0
-0.0017035780 -0.0051482150 0 0
-0.0017858290 -0.0057145600 0 0
-0.0019742670 -0.0068351250 0 0
-0.0022495680 -0.0084158050 0 0
-0.0025749520 -0.0103116700 0 0
-0.0029022540 -0.0123429980 0 0
-0.0031799430 -0.0143129990 0 0
-0.0033616830 -0.0160249990 0 0
-0.0034135850 -0.0172982310 0 0
-0.0033186610 -0.0179827470 0 0
-0.0030778980 -0.0179728720 0 0
-0.0027081710 -0.0172176410 0 0
-0.0022380570 -0.0157275740 0 0
-0.0017035940 -0.0135776290 0 0
-0.0011452930 -0.0109044820 0 0
-0.0006059150 -0.0078959450 0 0
-0.0001279330 -0.0047737530 0 0
0.0002496910 -0.0017731270 0 0
0.0004950370 0.0008789060 0 0
0.0005864790 0.0029852900 0 0
0.0005151520 0.0043980240 0 0
0.0002862270 0.0050315060 0 0
-0.0000814210 0.0048692710 0 0
-0.0005572780 0.0039648380 0 0
-0.0011029170 0.0024359930 0 0
-0.0016767680 0.0004515140 0 0
-0.0022384640 -0.0017875720 0 0
-0.0027515110 -0.0040685270 0 0
-0.0031842320 -0.0061875800 0 0
-0.0035099520 -0.0079698950 0 0
-0.0037077670 -0.0092863040 0 0
-0.0037644180 -0.0100634270 0 0
-0.0036762970 -0.0102858130 0 0
-0.0034502590 -0.0099916940 0 0
-0.0031032940 -0.0092647520 0 0
-0.0026622570 -0.0082237530 0 0
-0.0021643140 -0.0070121280 0 0
-0.0016568570 -0.0057886550 0 0
-0.0011949540 -0.0047175310 0 0
-0.0008358210 -0.0039551590 0 0
-0.0006308420 -0.0036333360 0 0
-0.0006158610 -0.0038408900 0 0
-0.0008022720 -0.0046069200 0 0
-0.0011729550 -0.0058903010 0 0
-0.0016850390 -0.0075806660 0 0
-0.0022775850 -0.0095123260 0 0
-0.0028805990 -0.0114871210 0 0
-0.0034229440 -0.0132994240 0 0
-0.0038385720 -0.0147576050 0 0
-0.0040719210 -0.0157003290 0 0
-0.0040834550 -0.0160093490 0 0
-0.0038550140 -0.0156193560 0 0
-0.0033934410 -0.0145235110 0 0
-0.0027314390 -0.0127745290 0 0
-0.0019253080 -0.0104824950 0 0
-0.0010489310 -0.0078089280 0 0
-0.0001840470 -0.0049555220 0 0
0.0005912770 -0.0021474470 0 0
0.0012130600 0.0003865710 0 0
0.0016381790 0.0024337560 0 0
0.0018463270 0.0038142790 0 0
0.0018380030 0.0043965520 0 0
0.0016311110 0.0041114850 0 0
0.0012583280 0.0029634750 0 0
0.0007650530 0.0010348110 0 0
0.0002060980 -0.0015185780 0 0
-0.0003597370 -0.0044798520 0 0
-0.0008763030 -0.0075899580 0 0
-0.0012962640 -0.0105700420 0 0
-0.0015852860 -0.0131477440 0 0
-0.0017236120 -0.0150866440 0 0
-0.0017053590 -0.0162143020 0 0
-0.0015364480 -0.0164431640 0 0
-0.0012324340 -0.0157805800 0 0
-0.0008171110 -0.0143256540 0 0
-0.0003219180 -0.0122524740 0 0
0.0002140450 -0.0097838130 0 0
0.0007442590 -0.0071631430 0 0
0.0012175500 -0.0046311270 0 0
0.0015850760 -0.0024069620 0 0
0.0018101580 -0.0006713930 0 0
0.0018769330 0.0004499590 0 0
0.0017940670 0.0009001050 0 0
0.0015928110 0.0006966690 0 0
0.0013214050 -0.0000719582 0 0
0.0010375600 -0.0012601610 0 0
0.0007995670 -0.0026859800 0 0
0.0006571990 -0.0041541080 0 0
0.0006450040 -0.0054761330 0 0
0.0007800250 -0.0064880280 0 0
0.0010633250 -0.0070670400 0 0
0.0014827090 -0.0071466880 0 0
0.0020143860 -0.0067258630 0 0
0.0026235290 -0.0058692240 0 0
0.0032651800 -0.0046983120 0 0
0.0038866150 -0.0033743910 0 0
0.0044314900 -0.0020759200 0 0
0.0048458900 -0.0009754670 0 0
0.0050857070 -0.0002206630 0 0
0.0051232550 0.0000787683 0 0
0.0049506890 -0.0001414960 0 0
0.0045794730 -0.0008970930 0 0
0.0040372330 -0.0021551330 0 0
0.0033637090 -0.0038366200 0 0
0.0026068760 -0.0058195700 0 0
0.0018195730 -0.0079435340 0 0
0.0010565520 -0.0100185200 0 0
0.0003713860 -0.0118402980 0 0
-0.0001874010 -0.0132112130 0 0
-0.0005808960 -0.0139633070 0 0
-0.0007843030 -0.0139796440 0 0
-0.0007906240 -0.0132106980 0 0
-0.0006126440 -0.0116838330 0 0
-0.0002821230 -0.0095042550 0 0
0.0001539330 -0.0068458770 0 0
0.0006387730 -0.0039320260 0 0
0.0011120060 -0.0010094950 0 0
0.0015158660 0.0016780160 0 0
0.0018011000 0.0039122550 0 0
0.0019314890 0.0055176850 0 0
0.0018863090 0.0063752460 0 0
0.0016608580 0.0064326660 0 0
0.0012653530 0.0057092630 0 0
0.0007226270 0.0042939310 0 0
0.0000655961 0.0023363590 0 0
-0.0006647850 0.0000318642 0 0
-0.0014212410 -0.0023987620 0 0
-0.0021524900 -0.0047312380 0 0
-0.0028071930 -0.0067586850 0 0
-0.0033399640 -0.0083107160 0 0
-0.0037184170 -0.0092703430 0 0
-0.0039285540 -0.0095862710 0 0
-0.0039757570 -0.0092769450 0 0
-0.0038814120 -0.0084240400 0 0
-0.0036776280 -0.0071564120 0 0
-0.0034022470 -0.0056289620 0 0
-0.0030947470 -0.0040019900 0 0
-0.0027926990 -0.0024252580 0 0
-0.0025279880 -0.0010284020 0 0
-0.0023225730 0.0000829277 0 0
-0.0021850630 0.0008271920 0 0
-0.0021104760 0.0011463860 0 0
-0.0020842340 0.0010083810 0 0
-0.0020883490 0.0004137990 0 0
-0.0021061370 -0.0005955830 0 0
-0.0021233360 -0.0019332570 0 0
-0.0021262150 -0.0034742190 0 0
-0.0020989050 -0.0050702030 0 0
-0.0020218190 -0.0065677310 0 0
-0.0018720000 -0.0078241110 0 0
-0.0016256340 -0.0087214390 0 0
-0.0012627820 -0.0091790500 0 0
-0.0007735860 -0.0091623070 0 0
-0.0001641070 -0.0086856340 0 0
0.0005403380 -0.0078094160 0 0
0.0012958960 -0.0066319040 0 0
0.0020455070 -0.0052786560 0 0
0.0027278140 -0.0038922780 0 0
0.0032870210 -0.0026228570 0 0
0.0036808610 -0.0016166770 0 0
0.0038852090 -0.0010014480 0 0
0.0038954790 -0.0008695720 0 0
0.0037254540 -0.0012626390 0 0
0.0034043560 -0.0021605240 0 0
0.0029733350 -0.0034778760 0 0
0.0024822470 -0.0050691540 0 0
0.0019862480 -0.0067422400 0 0
0.0015413140 -0.0082797870 0 0
0.0011984340 -0.0094652500 0 0
0.0009973370 -0.0101095400 0 0
0.0009611470 -0.0100752010 0 0
0.0010934610 -0.0092953580 0 0
0.0013782550 -0.0077843300 0 0
0.0017821310 -0.0056377710 0 0
0.0022590880 -0.0030220070 0 0
0.0027580470 -0.0001542950 0 0
0.0032313970 0.0027215200 0 0
0.0036415740 0.0053587050 0 0
0.0039642080 0.0075287260 0 0
0.0041884500 0.0090410220 0 0
0.0043155240 0.0097618380 0 0
0.0043559010 0.0096291000 0 0
0.0043255630 0.0086589390 0 0
0.0042423220 0.0069421430 0 0
0.0041232430 0.0046329410 0 0
0.0039836210 0.0019335610 0 0
0.0038369300 -0.0009238380 0 0
0.0036945960 -0.0036970400 0 0
0.0035649020 -0.0061543930 0 0
0.0034513330 -0.0080952920 0 0
0.0033516070 -0.0093695210 0 0
0.0032587090 -0.0098933420 0 0
0.0031637910 -0.0096595330 0 0
0.0030592480 -0.0087390630 0 0
0.0029406590 -0.0072729910 0 0
0.0028073860 -0.0054546530 0 0
0.0026621660 -0.0035045740 0 0
0.0025098410 -0.0016431420 0 0
0.0023556390 -0.0000666722 0 0
0.0022037910 0.0010699510 0 0
0.0020572100 0.0016637840 0 0
0.0019180880 0.0016681680 0 0
0.0017885630 0.0010917380 0 0
0.0016708580 -0.0000064252 0 0
0.0015672290 -0.0015234500 0 0
0.0014804970 -0.0033194650 0 0
0.0014149560 -0.0052256390 0 0
0.0013769110 -0.0070576240 0 0
0.0013750120 -0.0086357150 0 0
0.0014208160 -0.0098058660 0 0
0.0015282380 -0.0104541910 0 0
0.0017097790 -0.0105137600 0 0
0.0019697720 -0.0099678820 0 0
0.0022978530 -0.0088532620 0 0
0.0026660060 -0.0072621990 0 0
0.0030307060 -0.0053402420 0 0
0.0033396620 -0.0032766300 0 0
0.0035407760 -0.0012870340 0 0
0.0035898980 0.0004105460 0 0
0.0034557410 0.0016244240 0 0
0.0031232230 0.0022169950 0 0
0.0025964710 0.0021250460 0 0
0.0019000680 0.0013685190 0 0
0.0010764670 0.0000472011 0 0
0.0001801330 -0.0016728410 0 0
-0.0007285730 -0.0035797630 0 0
-0.0015878290 -0.0054405310 0 0
-0.0023376880 -0.0070281090 0 0
-0.0029234790 -0.0081484800 0 0
-0.0032998390 -0.0086625910 0 0
-0.0034357060 -0.0084990380 0 0
-0.0033197360 -0.0076560960 0 0
-0.0029640710 -0.0061946560 0 0
-0.0024043560 -0.0042258710 0 0
-0.0016956770 -0.0018977450 0 0
-0.0009056490 0.0006166620 0 0
-0.0001060570 0.0031289180 0 0
0.0006356120 0.0054441190 0 0
0.0012629530 0.0073711540 0 0
0.0017339130 0.0087356960 0 0
0.0020205890 0.0093956570 0 0
0.0021080320 0.0092574030 0 0
0.0019943280 0.0082901520 0 0
0.0016918680 0.0065355470 0 0
0.0012277290 0.0041095320 0 0
0.0006414460 0.0011949330 0 0
-0.0000196327 -0.0019752130 0 0
-0.0007057910 -0.0051420020 0 0
-0.0013695810 -0.0080483620 0 0
-0.0019689560 -0.0104639390 0 0
-0.0024695390 -0.0122036890 0 0
-0.0028472000 -0.0131410710 0 0
-0.0030910640 -0.0132172160 0 0
-0.0032053580 -0.0124453280 0 0
-0.0032085290 -0.0109100200 0 0
-0.0031298940 -0.0087626630 0 0
-0.0030053720 -0.0062123080 0 0
-0.0028732460 -0.0035094630 0 0
-0.0027703240 -0.0009210590 0 0
-0.0027289390 0.0013006970 0 0
-0.0027745920 0.0029491150 0 0
-0.0029230990 0.0038869070 0 0
-0.0031772500 0.0040595810 0 0
-0.0035249250 0.0034981340 0 0
-0.0039402640 0.0023125750 0 0
-0.0043877240 0.0006776370 0 0
-0.0048275840 -0.0011880380 0 0
-0.0052209290 -0.0030471440 0 0
-0.0055328030 -0.0046709320 0 0
-0.0057340110 -0.0058650120 0 0
-0.0058027590 -0.0064892250 0 0
-0.0057264240 -0.0064686640 0 0
-0.0055030900 -0.0057967290 0 0
-0.0051429930 -0.0045332120 0 0
-0.0046700050 -0.0027984150 0 0
-0.0041219250 -0.0007618600 0 0
-0.0035479440 0.0013745250 0 0
-0.0030030800 0.0033959950 0 0
-0.0025408570 0.0050944680 0 0
-0.0022059580 0.0062874000 0 0
-0.0020284430 0.0068368870 0 0
-0.0020207530 0.0066674560 0 0
-0.0021777180 0.0057773750 0 0
-0.0024789060 0.0042391560 0 0
-0.0028923240 0.0021900460 0 0
-0.0033781140 -0.0001831070 0 0
-0.0038905460 -0.0026611100 0 0
-0.0043779990 -0.0050114630 0 0
-0.0047832210 -0.0070102570 0 0
-0.0050465370 -0.0084654210 0 0
-0.0051125850 -0.0092369360 0 0
-0.0049397710 -0.0092511120 0 0
-0.0045105550 -0.0085090220 0 0
-0.0038386460 -0.0070886200 0 0
-0.0029691560 -0.0051385830 0 0
-0.0019717840 -0.0028630740 0 0
-0.0009303300 -0.0004984970 0 0
0.0000683731 0.0017145260 0 0
0.0009445820 0.0035583420 0 0
0.0016339030 0.0048597750 0 0
0.0020925160 0.0055042280 0 0
0.0022986620 0.0054426660 0 0
0.0022517240 0.0046925030 0 0
0.0019712550 0.0033335370 0 0
0.0014960120 0.0014995640 0 0
0.0008806920 -0.0006336650 0 0
0.0001894340 -0.0028627150 0 0
-0.0005117330 -0.0049719570 0 0
-0.0011608810 -0.0067504930 0 0
-0.0017039970 -0.0080106570 0 0
-0.0020977500 -0.0086077560 0 0
-0.0023127470 -0.0084604810 0 0
-0.0023380690 -0.0075690430 0 0
-0.0021854630 -0.0060239230 0 0
-0.0018895120 -0.0039979440 0 0
-0.0015020500 -0.0017214880 0 0
-0.0010831840 0.0005502170 0 0
-0.0006926330 0.0025669950 0 0
-0.0003830190 0.0041064820 0 0
-0.0001946740 0.0049921260 0 0
-0.0001513280 0.0051095020 0 0
-0.0002572120 0.0044199670 0 0
-0.0004970430 0.0029673420 0 0
-0.0008396960 0.0008743490 0 0
-0.0012444670 -0.0016708370 0 0
-0.0016675400 -0.0044356700 0 0
-0.0020667840 -0.0071686630 0 0
-0.0024046390 -0.0096244320 0 0
-0.0026496270 -0.0115849360 0 0
-0.0027770470 -0.0128768400 0 0
-0.0027693490 -0.0133854440 0 0
-0.0026167620 -0.0130643890 0 0
-0.0023189430 -0.0119406010 0 0
-0.0018878220 -0.0101144180 0 0
-0.0013501970 -0.0077532950 0 0
-0.0007478900 -0.0050764660 0 0
-0.0001342370 -0.0023303320 0 0
0.0004328370 0.0002414710 0 0
0.0008995690 0.0024266730 0 0
0.0012241210 0.0040648640 0 0
0.0013807480 0.0050562000 0 0
0.0013598010 0.0053605740 0 0
0.0011651830 0.0049927580 0 0
0.0008115670 0.0040170160 0 0
0.0003231170 0.0025412600 0 0
-0.0002660900 0.0007094770 0 0
-0.0009116630 -0.0013085920 0 0
-0.0015607030 -0.0033308180 0 0
-0.0021563890 -0.0051789010 0 0
-0.0026440960 -0.0066960740 0 0
-0.0029775170 -0.0077628610 0 0
-0.0031239000 -0.0083077060 0 0
-0.0030682520 -0.0083116900 0 0
-0.0028159150 -0.0078072800 0 0
-0.0023921470 -0.0068706950 0 0
-0.0018380850 -0.0056096650 0 0
-0.0012048260 -0.0041500990 0 0
-0.0005483720 -0.0026235780 0 0
0.0000736241 -0.0011560740 0 0
0.0006048950 0.0001408330 0 0
0.0009951280 0.0011752550 0 0
0.0012059220 0.0018781240 0 0
0.0012164010 0.0022058780 0 0
0.0010262480 0.0021425170 0 0
0.0006549200 0.0017013160 0 0
0.0001382120 0.0009279420 0 0
-0.0004754440 -0.0000958155 0 0
-0.0011283780 -0.0012523130 0 0
-0.0017585600 -0.0023962020 0 0
-0.0023069430 -0.0033706200 0 0
-0.0027252330 -0.0040284380 0 0
-0.0029813380 -0.0042540130 0 0
-0.0030621730 -0.0039810510 0 0
-0.0029750730 -0.0032035120 0 0
-0.0027476750 -0.0019781420 0 0
-0.0024246260 -0.0004190130 0 0
-0.0020607980 0.0013147300 0 0
-0.0017130220 0.0030364630 0 0
-0.0014326950 0.0045530680 0 0
-0.0012603340 0.0056872280 0 0
-0.0012219670 0.0062983430 0 0
-0.0013270550 0.0062986710 0 0
-0.0015683200 0.0056628770 0 0
-0.0019236620 0.0044313770 0 0
-0.0023591430 0.0027072070 0 0
-0.0028324180 0.0006453950 0 0
-0.0032974740 -0.0015641820 0 0
-0.0037109920 -0.0037174840 0 0
-0.0040385950 -0.0056172900 0 0
-0.0042587560 -0.0070920260 0 0
-0.0043638380 -0.0080110040 0 0
-0.0043595250 -0.0082949870 0 0
-0.0042637500 -0.0079211840 0 0
-0.0041042320 -0.0069225190 0 0
-0.0039134330 -0.0053825870 0 0
-0.0037223230 -0.0034289190 0 0
-0.0035558520 -0.0012269060 0 0
-0.0034313680 0.0010257550 0 0
-0.0033590680 0.0031083770 0 0
-0.0033430580 0.0047965420 0 0
-0.0033820740 0.0058925250 0 0
-0.0034697150 0.0062593380 0 0
-0.0035943570 0.0058463620 0 0
-0.0037389680 0.0046980880 0 0
-0.0038815510 0.0029459610 0 0
-0.0039972110 0.0007894600 0 0
-0.0040614900 -0.0015275320 0 0
-0.0040533730 -0.0037425980 0 0
-0.0039570070 -0.0056024310 0 0
-0.0037623370 -0.0068903450 0 0
-0.0034652550 -0.0074497630 0 0
-0.0030678460 -0.0071999040 0 0
-0.0025792480 -0.0061416200 0 0
-0.0020171370 -0.0043538480 0 0
-0.0014088800 -0.0019834610 0 0
-0.0007907290 0.0007687370 0 0
-0.0002042900 0.0036650060 0 0
0.0003085110 0.0064508230 0 0
0.0007099670 0.0088775390 0 0
0.0009698310 0.0107261110 0 0
0.0010682220 0.0118297730 0 0
0.0009991640 0.0120924660 0 0
0.0007735050 0.0114996490 0 0
0.0004186100 0.0101196140 0 0
-0.0000258537 0.0080955830 0 0
-0.0005140350 0.0056301930 0 0
-0.0009994990 0.0029642290 0 0
-0.0014395110 0.0003517190 0 0
-0.0017981460 -0.0019660010 0 0
-0.0020483750 -0.0037836810 0 0
-0.0021737140 -0.0049498820 0 0
-0.0021703530 -0.0053790760 0 0
-0.0020490780 -0.0050604350 0 0
-0.0018346380 -0.0040624900 0 0
-0.0015614540 -0.0025287580 0 0
-0.0012674920 -0.0006611560 0 0
-0.0009886820 0.0013063390 0 0
-0.0007546120 0.0031377380 0 0
-0.0005856310 0.0046233330 0 0
-0.0004919650 0.0056036830 0 0
-0.0004752800 0.0059878100 0 0
-0.0005316840 0.0057619540 0 0
-0.0006538850 0.0049856010 0 0
-0.0008309370 0.0037772480 0 0
-0.0010466120 0.0022966050 0 0
-0.0012789800 0.0007272260 0 0
-0.0015025460 -0.0007411830 0 0
-0.0016915290 -0.0019314390 0 0
-0.0018220950 -0.0026959260 0 0
-0.0018731830 -0.0029289460 0 0
-0.0018271010 -0.0025735200 0 0
-0.0016708240 -0.0016230320 0 0
-0.0013980670 -0.0001187440 0 0
-0.0010119110 0.0018546530 0 0
-0.0005274780 0.0041735750 0 0
0.0000266561 0.0066802070 0 0
0.0006099830 0.0091896880 0 0
0.0011750440 0.0115022740 0 0
0.0016744520 0.0134201480 0 0
0.0020678790 0.0147665450 0 0
0.0023279710 0.0154048630 0 0
0.0024446800 0.0152553070 0 0
0.0024269120 0.0143059740 0 0
0.0023006870 0.0126153160 0 0
0.0021048580 0.0103055590 0 0
0.0018863040 0.0075501790 0 0
0.0016950900 0.0045591140 0 0
0.0015792060 0.0015630050 0 0
0.0015792300 -0.0012047360 0 0
0.0017238130 -0.0035293550 0 0
0.0020266040 -0.0052376680 0 0
0.0024846720 -0.0062172670 0 0
0.0030779640 -0.0064278200 0 0
0.0037694420 -0.0059037040 0 0
0.0045062820 -0.0047491250 0 0
0.0052238810 -0.0031266900 0 0
0.0058545420 -0.0012399340 0 0
0.0063393650 0.0006887230 0 0
0.0066383130 0.0024414740 0 0
0.0067345500 0.0038267790 0 0
0.0066332720 0.0046968630 0 0
0.0063575850 0.0049590620 0 0
0.0059437300 0.0045808010 0 0
0.0054369100 0.0035909380 0 0
0.0048879850 0.0020796610 0 0
0.0043505570 0.0001955490 0 0
0.0038778280 -0.0018630870 0 0
0.0035189070 -0.0038645940 0 0
0.0033145590 -0.0055685970 0 0
0.0032929610 -0.0067558540 0 0
0.0034666090 -0.0072562790 0 0
0.0038313940 -0.0069690440 0 0
0.0043678760 -0.0058736680 0 0
0.0050438800 -0.0040336750 0 0
0.0058169410 -0.0015929680 0 0
0.0066361410 0.0012365310 0 0
0.0074446730 0.0041966430 0 0
0.0081839680 0.0070120930 0 0
0.0087984370 0.0094215930 0 0
0.0092398990 0.0112044830 0 0
0.0094720910 0.0122009240 0 0
0.0094755070 0.0123273290 0 0
0.0092516950 0.0115861400 0 0
0.0088257900 0.0100653720 0 0
0.0082462180 0.0079247060 0 0
0.0075808800 0.0053704900 0 0
0.0069099410 0.0026277350 0 0
0.0063160350 -0.0000819463 0 0
0.0058730780 -0.0025536750 0 0
0.0056359780 -0.0046081960 0 0
0.0056342380 -0.0061009640 0 0
0.0058707260 -0.0069314370 0 0
0.0063239370 -0.0070498580 0 0
0.0069515090 -0.0064603240 0 0
0.0076942890 -0.0052211770 0 0
0.0084813170 -0.0034442180 0 0
0.0092362060 -0.0012917100 0 0
0.0098847600 0.0010328700 0 0
0.0103628570 0.0033031850 0 0
0.0106231340 0.0052946170 0 0
0.0106390140 0.0068084530 0 0
0.0104055190 0.0076919500 0 0
0.0099382850 0.0078542020 0 0
0.0092725430 0.0072763400 0 0
0.0084619020 0.0060130260 0 0
0.0075746910 0.0041853230 0 0
0.0066860250 0.0019686810 0 0
0.0058672800 -0.0004212330 0 0
0.0051775320 -0.0027461950 0 0
0.0046596020 -0.0047689740 0 0
0.0043392560 -0.0062811100 0 0
0.0042249350 -0.0071291860 0 0
0.0043070520 -0.0072337650 0 0
0.0045576680 -0.0065977100 0 0
0.0049322460 -0.0053035770 0 0
0.0053747150 -0.0035027810 0 0
0.0058249220 -0.0013999990 0 0
0.0062259310 0.0007665140 0 0
0.0065290560 0.0027498360 0 0
0.0066963360 0.0043220930 0 0
0.0067020360 0.0052987260 0 0
0.0065345460 0.0055560070 0 0
0.0061980250 0.0050435680 0 0
0.0057122880 0.0037924380 0 0
0.0051108200 0.0019154540 0 0
0.0044386820 -0.0004020800 0 0
0.0037512480 -0.0029208520 0 0
0.0031116910 -0.0053737780 0 0
0.0025846390 -0.0074970030 0 0
0.0022268620 -0.0090596830 0 0
0.0020786170 -0.0098872330 0 0
0.0021582190 -0.0098767610 0 0
0.0024600040 -0.0090057710 0 0
0.0029554250 -0.0073351950 0 0
0.0035976740 -0.0050070260 0 0
0.0043286670 -0.0022351890 0 0
0.0050854140 0.0007119100 0 0
0.0058045290 0.0035369490 0 0
0.0064266360 0.0059456510 0 0
0.0069021680 0.0076816890 0 0
0.0071975100 0.0085578290 0 0
0.0072994460 0.0084758240 0 0
0.0072164690 0.0074320250 0 0
0.0069763490 0.0055119280 0 0
0.0066205360 0.0028793440 0 0
0.0061977110 -0.0002368950 0 0
0.0057587440 -0.0035590980 0 0
0.0053535480 -0.0067809850 0 0
0.0050288620 -0.0095941210 0 0
0.0048260120 -0.0117209150 0 0
0.0047786080 -0.0129487310 0 0
0.0049100660 -0.0131563100 0 0
0.0052302490 -0.0123263560 0 0
0.0057314770 -0.0105433540 0 0
0.0063859410 -0.0079800460 0 0
0.0071464180 -0.0048770190 0 0
0.0079504080 -0.0015185040 0 0
0.0087265900 0.0017935440 0 0
0.0094022670 0.0047656680 0 0
0.0099105960 0.0071386240 0 0
0.0101968790 0.0087112300 0 0
0.0102245810 0.0093601010 0 0
0.0099819230 0.0090526860 0 0
0.0094872230 0.0078509340 0 0
0.0087890050 0.0059046580 0 0
0.0079593690 0.0034365190 0 0
0.0070836160 0.0007208180 0 0
0.0062497380 -0.0019431610 0 0
0.0055390710 -0.0042619260 0 0
0.0050184080 -0.0059793180 0 0
0.0047337220 -0.0069044310 0 0
0.0047052240 -0.0069320330 0 0
0.0049243300 -0.0060520750 0 0
0.0053544900 -0.0043463770 0 0
0.0059371240 -0.0019751660 0 0
0.0066016280 0.0008404050 0 0
0.0072763660 0.0038366200 0 0
0.0078973060 0.0067282310 0 0
0.0084130100 0.0092338700 0 0
0.0087870990 0.0111039300 0 0
0.0089994380 0.0121466490 0 0
0.0090463330 0.0122484980 0 0
0.0089399550 0.0113862070 0 0
0.0087067680 0.0096287120 0 0
0.0083843780 0.0071286430 0 0
0.0080172310 0.0041054470 0 0
0.0076526370 0.0008239050 0 0
0.0073375690 -0.0024293850 0 0
0.0071150270 -0.0053714100 0 0
0.0070188470 -0.0077497770 0 0
0.0070679680 -0.0093684290 0 0
0.0072626510 -0.0101074920 0 0
0.0075841040 -0.0099341120 0 0
0.0079974920 -0.0089035070 0 0
0.0084573920 -0.0071507210 0 0
0.0089139140 -0.0048747480 0 0
0.0093179140 -0.0023174770 0 0
0.0096250960 0.0002610770 0 0
0.0097992460 0.0026105420 0 0
0.0098144310 0.0045172940 0 0
0.0096563420 0.0058245550 0 0
0.0093235340 0.0064421330 0 0
0.0088289720 0.0063482760 0 0
0.0082011180 0.0055870260 0 0
0.0074833690 0.0042607580 0 0
0.0067309280 0.0025164020 0 0
0.0060046690 0.0005278020 0 0
0.0053632150 -0.0015205730 0 0
0.0048560880 -0.0034463860 0 0
0.0045196670 -0.0050807100 0 0
0.0043751100 -0.0062800470 0 0
0.0044270570 -0.0069387720 0 0
0.0046627000 -0.0070006420 0 0
0.0050513890 -0.0064682980 0 0
0.0055457400 -0.0054086500 0 0
0.0060858300 -0.0039510580 0 0
0.0066068300 -0.0022767160 0 0
0.0070481890 -0.0005996840 0 0
0.0073610600 0.0008581380 0 0
0.0075118890 0.0018937800 0 0
0.0074829950 0.0023477000 0 0
0.0072724880 0.0021235960 0 0
0.0068947150 0.0012010090 0 0
0.0063802130 -0.0003620320 0 0
0.0057732970 -0.0024367580 0 0
0.0051262210 -0.0048390850 0 0
0.0044913000 -0.0073493540 0 0
0.0039151290 -0.0097347120 0 0
0.0034377070 -0.0117728450 0 0
0.0030943620 -0.0132739600 0 0
0.0029164550 -0.0140982860 0 0
0.0029290330 -0.0141690430 0 0
0.0031459000 -0.0134810150 0 0
0.0035637030 -0.0121028270 0 0
0.0041573680 -0.0101712050 0 0
0.0048794430 -0.0078779130 0 0
0.0056645340 -0.0054507900 0 0
0.0064378190 -0.0031303010 0 0
0.0071255150 -0.0011446220 0 0
0.0076652040 0.0003117960 0 0
0.0080137900 0.0010927760 0 0
0.0081515290 0.0011089560 0 0
0.0080818670 0.0003341170 0 0
0.0078275930 -0.0011888700 0 0
0.0074246540 -0.0033453770 0 0
0.0069160340 -0.0059544080 0 0
0.0063476460 -0.0087833990 0 0
0.0057659790 -0.0115697510 0 0
0.0052157710 -0.0140462770 0 0
0.0047367200 -0.0159692030 0 0
0.0043599060 -0.0171462450 0 0
0.0041047610 -0.0174599510 0 0
0.0039767980 -0.0168817850 0 0
0.0039667930 -0.0154747270 0 0
0.0040522110 -0.0133839920 0 0
0.0042003850 -0.0108175850 0 0
0.0043719600 -0.0080207110 0 0
0.0045236300 -0.0052488120 0 0
0.0046103360 -0.0027425780 0 0
0.0045883180 -0.0007067100 0 0
0.0044204950 0.0007063280 0 0
0.0040837610 0.0014067150 0 0
0.0035751990 0.0013719980 0 0
0.0029140200 0.0006471910 0 0
0.0021388880 -0.0006589810 0 0
0.0013024200 -0.0023824530 0 0
0.0004641960 -0.0043188630 0 0
-0.0003168840 -0.0062462140 0 0
-0.0009897940 -0.0079523970 0 0
-0.0015168770 -0.0092615410 0 0
-0.0018765020 -0.0100535760 0 0
-0.0020626130 -0.0102740820 0 0
-0.0020827560 -0.0099334840 0 0
-0.0019566890 -0.0090972870 0 0
-0.0017160210 -0.0078724470 0 0
-0.0014029510 -0.0063949230 0 0
-0.0010657480 -0.0048193900 0 0
-0.0007514090 -0.0033089650 0 0
-0.0004987120 -0.0020235600 0 0
-0.0003337960 -0.0011074510 0 0
-0.0002682970 -0.0006763350 0 0
-0.0003000900 -0.0008032270 0 0
-0.0004165570 -0.0015039510 0 0
-0.0005987840 -0.0027260750 0 0
-0.0008244950 -0.0043478710 0 0
-0.0010689090 -0.0061922400 0 0
-0.0013048470 -0.0080526270 0 0
-0.0015042960 -0.0097213810 0 0
-0.0016419130 -0.0110131340 0 0
-0.0016983100 -0.0117815230 0 0
-0.0016607390 -0.0119303290 0 0
-0.0015214220 -0.0114204390 0 0
-0.0012762980 -0.0102731420 0 0
-0.0009264620 -0.0085689510 0 0
-0.0004817250 -0.0064416990 0 0
0.0000362452 -0.0040692000 0 0
0.0005933330 -0.0016609750 0 0
0.0011454980 0.0005580240 0 0
0.0016440000 0.0023681570 0 0
0.0020423050 0.0035784670 0 0
0.0023029660 0.0040481350 0 0
0.0024030400 0.0037006320 0 0
0.0023372750 0.0025293770 0 0
0.0021186140 0.0005988070 0 0
0.0017754690 -0.0019562880 0 0
0.0013460670 -0.0049358380 0 0
0.0008717130 -0.0080886970 0 0
0.0003911240 -0.0111374940 0 0
-0.0000629852 -0.0138102550 0 0
-0.0004644970 -0.0158713950 0 0
-0.0007922100 -0.0171461520 0 0
-0.0010279260 -0.0175363780 0 0
-0.0011558020 -0.0170276010 0 0
-0.0011630830 -0.0156874520 0 0
-0.0010422710 -0.0136561690 0 0
-0.0007943690 -0.0111310530 0 0
-0.0004317340 -0.0083478550 0 0
0.0000209689 -0.0055617990 0 0
0.0005285010 -0.0030284420 0 0
0.0010497400 -0.0009823020 0 0
0.0015446150 0.0003864780 0 0
0.0019813730 0.0009523800 0 0
0.0023421410 0.0006674810 0 0
0.0026256240 -0.0004321610 0 0
0.0028459480 -0.0022263890 0 0
0.0030271130 -0.0045202420 0 0
0.0031956400 -0.0070635420 0 0
0.0033762260 -0.0095771010 0 0
0.0035914760 -0.0117822780 0 0
0.0038619330 -0.0134323040 0 0
0.0042035050 -0.0143414250 0 0
0.0046233220 -0.0144051810 0 0
0.0051162350 -0.0136077600 0 0
0.0056631130 -0.0120186400 0 0
0.0062317130 -0.0097829240 0 0
0.0067807160 -0.0071064770 0 0
0.0072662580 -0.0042350800 0 0
0.0076487160 -0.0014283980 0 0
0.0078975970 0.0010684120 0 0
0.0079942020 0.0030515180 0 0
0.0079330800 0.0043795550 0 0
0.0077225180 0.0049860120 0 0
0.0073832980 0.0048817830 0 0
0.0069455670 0.0041492310 0 0
0.0064449130 0.0029298450 0 0
0.0059190430 0.0014068280 0 0
0.0054055520 -0.0002157860 0 0
0.0049402790 -0.0017348720 0 0
0.0045557580 -0.0029680630 0 0
0.0042797950 -0.0037689430 0 0
0.0041343580 -0.0040356720 0 0
0.0041347200 -0.0037141830 0 0
0.0042881880 -0.0027991580 0 0
0.0045921370 -0.0013338190 0 0
0.0050316290 0.0005924080 0 0
0.0055764390 0.0028484140 0 0
0.0061773990 0.0052686160 0 0
0.0067635020 0.0076651420 0 0
0.0072422520 0.0098457620 0 0
0.0075056910 0.0116331340 0 0
0.0074433330 0.0128785340 0 0
0.0069599030 0.0134676750 0 0
0.0059919750 0.0133229070 0 0
0.0045175560 0.0124083630 0 0
0.0025570290 0.0107399480 0 0
0.0001679700 0.0083945660 0 0
-0.0025638850 0.0055103880 0 0
-0.0055373730 0.0022747530 0 0
-0.0086511850 -0.0010976120 0 0
-0.0118176610 -0.0043912760 0 0
-0.0149710350 -0.0074171970 0 0
-0.0180691520 -0.0100355140 0 0
-0.0210907930 -0.0121698480 0 0
-0.0240316760 -0.0138117270 0 0
-0.0269013100 -0.0150167250 0 0
-0.0297212510 -0.0158943990 0 0
-0.0325237290 -0.0165933430 -1 0
-0.0353491430 -0.0172826550 -1 0
-0.0382416120 -0.0181314410 -1 0
-0.0412426090 -0.0192884610 -1 0
-0.0443836600 -0.0208654490 -1 0
-0.0476795850 -0.0229268420 -1 0
-0.0511237300 -0.0254852230 -1 0
-0.0546864150 -0.0285005830 -1 0
-0.0583172560 -0.0318831370 -1 -1
-0.0619507680 -0.0355001390 -1 -1
-0.0655135390 -0.0391863510 -1 -1
-0.0689307220 -0.0427575920 -1 -1
-0.0721302430 -0.0460274160 -1 -1
-0.0750456020 -0.0488266360 -1 -1
-0.0776202210 -0.0510229260 -1 -1
-0.0798146460 -0.0525369860 -1 -1
-0.0816141030 -0.0533539160 -1 -1
-0.0830325820 -0.0535288770 -1 -1
-0.0841111630 -0.0531842470 -1 -1
-0.0849105660 -0.0524965460 -1 -1
-0.0855000410 -0.0516758660 -1 -1
-0.0859464280 -0.0509436550 -1 -1
-0.0863068250 -0.0505128280 -1 -1
-0.0866258110 -0.0505695500 -1 -1
-0.0869357650 -0.0512551500 -1 -1
-0.0872579560 -0.0526497640 -1 -1
-0.0876028950 -0.0547611270 -1 -1
-0.0879700760 -0.0575215360 -1 -1
-0.0883477840 -0.0607940500 -1 -1
-0.0887134000 -0.0643860410 -1 -1
-0.0890350310 -0.0680674510 -1 -1
-0.0892758550 -0.0715925000 -1 -1
-0.0894013000 -0.0747234460 -1 -1
-0.0893868660 -0.0772530020 -1 -1
-0.0892234930 -0.0790220240 -1 -1
-0.0889187360 -0.0799318610 -1 -1
-0.0884945690 -0.0799526070 -1 -1
-0.0879841910 -0.0791272600 -1 -1
-0.0874291720 -0.0775708710 -1 -1
-0.0868765360 -0.0754645990 -1 -1
-0.0863750740 -0.0730441740 -1 -1
-0.0859705400 -0.0705807210 -1 -1
-0.0857000670 -0.0683537240 -1 -1
-0.0855876400 -0.0666199150 -1 -1
-0.0856422730 -0.0655832950 -1 -1
-0.0858579820 -0.0653708170 -1 -1
-0.0862138200 -0.0660174280 -1 -1
-0.0866742870 -0.0674629910 -1 -1
-0.0871917290 -0.0695619200 -1 -1
-0.0877109240 -0.0721041950 -1 -1
-0.0881746830 -0.0748431480 -1 -1
-0.0885296220 -0.0775233650 -1 -1
-0.0887314090 -0.0799044960 -1 -1
-0.0887483890 -0.0817810500 -1 -1
-0.0885632230 -0.0829990520 -1 -1
-0.0881734110 -0.0834681860 -1 -1
-0.0875912620 -0.0831667480 -1 -1
-0.0868429510 -0.0821390560 -1 -1
-0.0859661160 -0.0804885000 -1 -1
-0.0850063230 -0.0783696900 -1 -1
-0.0840135870 -0.0759795340 -1 -1
-0.0830398150 -0.0735441580 -1 -1
-0.0821370560 -0.0712991980 -1 -1
-0.0813558950 -0.0694643070 -1 -1
-0.0807428180 -0.0682166920 -1 -1
-0.0803355820 -0.0676698420 -1 -1
-0.0801574400 -0.0678608690 -1 -1
-0.0802124590 -0.0687461210 -1 -1
-0.0804831610 -0.0702041420 -1 -1
-0.0809304420 -0.0720470110 -1 -1
-0.0814962810 -0.0740419950 -1 -1
-0.0821100780 -0.0759422300 -1 -1
-0.0826982110 -0.0775192160 -1 -1
-0.0831946840 -0.0785884260 -1 -1
-0.0835500000 -0.0790246810 -1 -1
-0.0837363050 -0.0787694240 -1 -1
-0.0837489050 -0.0778327590 -1 -1
-0.0836053960 -0.0762915380 -1 -1
-0.0833433020 -0.0742828720 -1 -1
-0.0830156270 -0.0719908420 -1 -1
-0.0826833730 -0.0696262080 -1 -1
-0.0824059780 -0.0674038260 -1 -1
-0.0822325800 -0.0655234670 -1 -1
-0.0821964550 -0.0641555250 -1 -1
-0.0823129540 -0.0634294710 -1 -1
-0.0825799790 -0.0634232690 -1 -1
-0.0829795820 -0.0641540190 -1 -1
-0.0834794060 -0.0655713890 -1 -1
-0.0840342250 -0.0675567690 -1 -1
-0.0845896500 -0.0699315310 -1 -1
-0.0850888130 -0.0724749940 -1 -1
-0.0854797840 -0.0749486570 -1 -1
-0.0857210450 -0.0771213120 -1 -1
-0.0857842770 -0.0787905820 -1 -1
-0.0856551030 -0.0798001980 -1 -1
-0.0853329880 -0.0800548500 -1 -1
-0.0848313660 -0.0795315570 -1 -1
-0.0841778730 -0.0782834960 -1 -1
-0.0834135010 -0.0764341950 -1 -1
-0.0825895340 -0.0741637750 -1 -1
-0.0817622380 -0.0716911920 -1 -1
-0.0809864730 -0.0692557000 -1 -1
-0.0803096360 -0.0670969650 -1 -1
-0.0797666560 -0.0654315640 -1 -1
-0.0793763040 -0.0644275090 -1 -1
-0.0791392260 -0.0641828560 -1 -1
-0.0790382860 -0.0647140430 -1 -1
-0.0790412570 -0.0659558150 -1 -1
-0.0791052110 -0.0677710050 -1 -1
-0.0791816480 -0.0699668740 -1 -1
-0.0792211810 -0.0723154450 -1 -1
-0.0791770590 -0.0745768060 -1 -1
-0.0790085080 -0.0765237090 -1 -1
-0.0786853090 -0.0779646250 -1 -1
-0.0781933270 -0.0787632060 -1 -1
-0.0775387170 -0.0788521440 -1 -1
-0.0767485740 -0.0782384280 -1 -1
-0.0758674020 -0.0769989950 -1 -1
-0.0749506530 -0.0752693280 -1 -1
-0.0740574340 -0.0732282300 -1 -1
-0.0732442270 -0.0710808890 -1 -1
-0.0725600940 -0.0690411370 -1 -1
-0.0720429970 -0.0673122700 -1 -1
-0.0717173010 -0.0660656580 -1 -1
-0.0715929490 -0.0654194750 -1 -1
-0.0716662830 -0.0654230410 -1 -1
-0.0719215900 -0.0660510760 -1 -1
-0.0723324430 -0.0672087430 -1 -1
-0.0728625890 -0.0687458840 -1 -1
-0.0734670030 -0.0704768890 -1 -1
-0.0740943190 -0.0722011970 -1 -1
-0.0746912530 -0.0737212820 -1 -1
-0.0752079250 -0.0748584360 -1 -1
-0.0756022540 -0.0754670260 -1 -1
-0.0758429440 -0.0754460300 -1 -1
-0.0759119200 -0.0747469590 -1 -1
-0.0758064690 -0.0733794260 -1 -1
-0.0755399110 -0.0714154320 -1 -1
-0.0751397360 -0.0689902820 -1 -1
-0.0746438030 -0.0662958840 -1 -1
-0.0740962440 -0.0635641960 -1 -1
-0.0735439530 -0.0610430000 -1 -1
-0.0730334960 -0.0589688740 -1 -1
-0.0726079990 -0.0575422540 -1 -1
-0.0723036860 -0.0569084760 -1 -1
-0.0721462490 -0.0571461180 -1 -1
-0.0721477260 -0.0582607430 -1 -1
-0.0723048260 -0.0601823900 -1 -1
-0.0725995990 -0.0627679320 -1 -1
-0.0730022520 -0.0658096300 -1 -1
-0.0734744530 -0.0690500310 -1 -1
-0.0739714550 -0.0722038730 -1 -1
-0.0744433330 -0.0749865280 -1 -1
-0.0748374210 -0.0771450470 -1 -1
-0.0751033980 -0.0784864820 -1 -1
-0.0752002870 -0.0788991940 -1 -1
-0.0751031610 -0.0783642260 -1 -1
-0.0748071900 -0.0769560880 -1 -1
-0.0743281490 -0.0748339970 -1 -1
-0.0737005560 -0.0722247180 -1 -1
-0.0729745130 -0.0693989150 -1 -1
-0.0722106150 -0.0666441370 -1 -1
-0.0714725080 -0.0642373010 -1 -1
-0.0708184890 -0.0624187700 -1 -1
-0.0702943700 -0.0613701900 -1 -1
-0.0699294120 -0.0611974090 -1 -1
-0.0697355800 -0.0619185190 -1 -1
-0.0697083270 -0.0634581040 -1 -1
-0.0698267580 -0.0656510640 -1 -1
-0.0700535340 -0.0682588750 -1 -1
-0.0703369800 -0.0709980510 -1 -1
-0.0706166840 -0.0735772680 -1 -1
-0.0708317160 -0.0757363430 -1 -1
-0.0709293970 -0.0772778860 -1 -1
-0.0708720100 -0.0780849340 -1 -1
-0.0706396250 -0.0781242680 -1 -1
-0.0702299950 -0.0774395490 -1 -1
-0.0696578300 -0.0761389820 -1 -1
-0.0689538760 -0.0743807860 -1 -1
-0.0681622950 -0.0723573130 -1 -1
-0.0673360560 -0.0702774650 -1 -1
-0.0665324180 -0.0683486840 -1 -1
-0.0658104830 -0.0667611570 -1 -1
-0.0652299330 -0.0656757640 -1 -1
-0.0648482480 -0.0652156890 -1 -1
-0.0647154350 -0.0654600760 -1 -1
-0.0648677590 -0.0664369240 -1 -1
-0.0653224780 -0.0681147820 -1 -1
-0.0660745190 -0.0703973060 -1 -1
-0.0670955910 -0.0731253680 -1 -1
-0.0683363640 -0.0760880690 -1 -1
-0.0697314440 -0.0790415700 -1 -1
-0.0712050880 -0.0817341750 -1 -1
-0.0726756770 -0.0839356780 -1 -1
-0.0740601290 -0.0854669700 -1 -1
-0.0752812990 -0.0862236080 -1 -1
-0.0762781400 -0.0861874590 -1 -1
-0.0770144380 -0.0854243600 -1 -1
-0.0774829070 -0.0840705300 -1 -1
-0.0777044820 -0.0823138760 -1 -1
-0.0777234200 -0.0803760880 -1 -1
-0.0775987780 -0.0784964260 -1 -1
-0.0773938450 -0.0769135360 -1 -1
-0.0771661500 -0.0758434450 -1 -1
-0.0769600330 -0.0754564730 -1 -1
-0.0768021310 -0.0758575180 -1 -1
-0.0766995290 -0.0770732900 -1 -1
-0.0766407000 -0.0790477700 -1 -1
-0.0765994320 -0.0816452660 -1 -1
-0.0765411600 -0.0846609090 -1 -1
-0.0764297590 -0.0878392890 -1 -1
-0.0762324290 -0.0909004120 -1 -1
-0.0759223110 -0.0935696400 -1 -1
-0.0754803730 -0.0956078410 -1 -1
-0.0748976530 -0.0968388600 -1 -1
-0.0741774240 -0.0971702850 -1 -1
-0.0733364560 -0.0966027200 -1 -1
-0.0724052410 -0.0952259870 -1 -1
-0.0714273850 -0.0932054090 -1 -1
-0.0704576580 -0.0907630810 -1 -1
-0.0695580180 -0.0881564740 -1 -1
-0.0687916390 -0.0856540900 -1 -1
-0.0682154690 -0.0835089890 -1 -1
-0.0678720560 -0.0819330650 -1 -1
-0.0677824010 -0.0810765790 -1 -1
-0.0679427010 -0.0810181360 -1 -1
-0.0683262470 -0.0817662980 -1 -1
-0.0688886970 -0.0832674340 -1 -1
-0.0695738860 -0.0854139340 -1 -1
-0.0703190410 -0.0880514100 -1 -1
-0.0710601690 -0.0909865670 -1 -1
-0.0717381940 -0.0939975700 -1 -1
-0.0723046730 -0.0968479850 -1 -1
-0.0727251380 -0.0993049950 -1 -1
-0.0729791610 -0.1011613850 -1 -1
-0.0730583420 -0.1022582840 -1 -1
-0.0729649170 -0.1025045730 -1 -1
-0.0727128470 -0.1018893270 -1 -1
-0.0723306960 -0.1004846480 -1 -1
-0.0718632500 -0.0984380790 -1 -1
-0.0713690130 -0.0959556120 -1 -1
-0.0709131140 -0.0932772930 -1 -1
-0.0705575390 -0.0906492480 -1 -1
-0.0703515340 -0.0882973460 -1 -1
-0.0703245950 -0.0864063190 -1 -1
-0.0704830540 -0.0851051890 -1 -1
-0.0708101250 -0.0844586410 -1 -1
-0.0712689910 -0.0844647830 -1 -1
-0.0718086680 -0.0850599550 -1 -1
-0.0723718860 -0.0861295820 -1 -1
-0.0729030080 -0.0875223260 -1 -1
-0.0733539140 -0.0890650080 -1 -1
-0.0736872330 -0.0905773390 -1 -1
-0.0738776490 -0.0918870940 -1 -1
-0.0739120210 -0.0928465220 -1 -1
-0.0737886670 -0.0933488730 -1 -1
-0.0735165510 -0.0933419510 -1 -1
-0.0731154310 -0.0928357040 -1 -1
-0.0726165960 -0.0919018010 -1 -1
-0.0720622500 -0.0906646210 -1 -1
-0.0715023250 -0.0892862960 -1 -1
-0.0709892580 -0.0879497830 -1 -1
-0.0705717200 -0.0868408740 -1 -1
-0.0702880340 -0.0861289320 -1 -1
-0.0701605690 -0.0859494060 -1 -1
-0.0701929390 -0.0863913020 -1 -1
-0.0703710020 -0.0874882700 -1 -1
-0.0706670780 -0.0892101520 -1 -1
-0.0710458300 -0.0914560490 -1 -1
-0.0714697080 -0.0940549510 -1 -1
-0.0719025330 -0.0967791090 -1 -1
-0.0723116190 -0.0993692170 -1 -1
-0.0726696070 -0.1015657980 -1 -1
-0.0729559500 -0.1031400100 -1 -1
-0.0731570780 -0.1039186270 -1 -1
-0.0732646900 -0.1038015820 -1 -1
-0.0732730450 -0.1027726470 -1 -1
-0.0731774680 -0.1009021730 -1 -1
-0.0729759270 -0.0983401460 -1 -1
-0.0726731940 -0.0953006160 -1 -1
-0.0722852030 -0.0920405040 -1 -1
-0.0718413600 -0.0888350750 -1 -1
-0.0713835680 -0.0859517930 -1 -1
-0.0709618020 -0.0836242550 -1 -1
-0.0706272930 -0.0820280280 -1 -1
-0.0704254070 -0.0812620470 -1 -1
-0.0703896670 -0.0813402460 -1 -1
-0.0705368560 -0.0821947540 -1 -1
-0.0708629360 -0.0836879260 -1 -1
-0.0713409160 -0.0856297520 -1 -1
-0.0719220470 -0.0877983270 -1 -1
-0.0725407060 -0.0899614620 -1 -1
-0.0731227130 -0.0918972950 -1 -1
-0.0735958860 -0.0934123730 -1 -1
-0.0739001360 -0.0943569360 -1 -1
-0.0739946690 -0.0946375890 -1 -1
-0.0738622450 -0.0942268140 -1 -1
-0.0735114030 -0.0931681200 -1 -1
-0.0729761540 -0.0915751320 -1 -1
-0.0723114540 -0.0896228610 -1 -1
-0.0715840230 -0.0875309950 -1 -1
-0.0708611790 -0.0855413270 -1 -1
-0.0702021680 -0.0838920360 -1 -1
-0.0696543510 -0.0827909090 -1 -1
-0.0692524410 -0.0823904010 -1 -1
-0.0690173330 -0.0827690020 -1 -1
-0.0689535860 -0.0839230890 -1 -1
-0.0690475180 -0.0857709120 -1 -1
-0.0692680780 -0.0881662730 -1 -1
-0.0695707830 -0.0909161850 -1 -1
-0.0699034600 -0.0937981470 -1 -1
-0.0702129330 -0.0965773630 -1 -1
-0.0704524220 -0.0990265660 -1 -1
-0.0705881820 -0.1009489690 -1 -1
-0.0706030080 -0.1022009060 -1 -1
-0.0704960230 -0.1027085840 -1 -1
-0.0702803190 -0.1024749090 -1 -1
-0.0699799420 -0.1015757830 -1 -1
-0.0696263360 -0.1001477370 -1 -1
-0.0692539280 -0.0983699190 -1 -1
-0.0688955180 -0.0964434870 -1 -1
-0.0685788810 -0.0945707550 -1 -1
-0.0683255160 -0.0929360620 -1 -1
-0.0681513830 -0.0916901030 -1 -1
-0.0680681510 -0.0909389620 -1 -1
-0.0680831990 -0.0907381850 -1 -1
-0.0681980800 -0.0910905320 -1 -1
-0.0684065490 -0.0919450750 -1 -1
-0.0686934240 -0.0931980430 -1 -1
-0.0690348430 -0.0946995660 -1 -1
-0.0693993260 -0.0962691430 -1 -1
-0.0697488620 -0.0977169020 -1 -1
-0.0700410000 -0.0988648550 -1 -1
-0.0702334470 -0.0995649740 -1 -1
-0.0702904210 -0.0997143550 -1 -1
-0.0701884300 -0.0992673070 -1 -1
-0.0699199960 -0.0982417480 -1 -1
-0.0694948840 -0.0967174810 -1 -1
-0.0689390290 -0.0948262780 -1 -1
-0.0682916440 -0.0927352630 -1 -1
-0.0676006660 -0.0906264890 -1 -1
-0.0669165040 -0.0886772780 -1 -1
-0.0662852400 -0.0870451500 -1 -1
-0.0657431360 -0.0858580970 -1 -1
-0.0653133000 -0.0852084780 -1 -1
-0.0650042090 -0.0851481700 -1 -1
-0.0648097920 -0.0856835540 -1 -1
-0.0647108800 -0.0867710760 -1 -1
-0.0646780130 -0.0883165250 -1 -1
-0.0646757330 -0.0901809130 -1 -1
-0.0646680040 -0.0921915810 -1 -1
-0.0646235350 -0.0941544680 -1 -1
-0.0645196070 -0.0958669400 -1 -1
-0.0643437440 -0.0971342830 -1 -1
-0.0640933940 -0.0977904630 -1 -1
-0.0637743170 -0.0977202860 -1 -1
-0.0633984090 -0.0968794920 -1 -1
-0.0629817170 -0.0953086820 -1 -1
-0.0625431550 -0.0931362120 -1 -1
-0.0621038760 -0.0905668540 -1 -1
-0.0616867780 -0.0878566130 -1 -1
-0.0613157030 -0.0852792520 -1 -1
-0.0610140020 -0.0830934140 -1 -1
-0.0608022960 -0.0815164980 -1 -1
-0.0606959710 -0.0807058290 -1 -1
-0.0607036740 -0.0807456660 -1 -1
-0.0608275370 -0.0816397130 -1 -1
-0.0610639460 -0.0833098640 -1 -1
-0.0614029930 -0.0856023140 -1 -1
-0.0618264280 -0.0883016280 -1 -1
-0.0623060540 -0.0911519670 -1 -1
-0.0628045640 -0.0938833450 -1 -1
-0.0632793290 -0.0962402160 -1 -1
-0.0636883340 -0.0980094210 -1 -1
-0.0639965780 -0.0990433540 -1 -1
-0.0641811510 -0.0992738540 -1 -1
-0.0642343190 -0.0987147790 -1 -1
-0.0641650860 -0.0974543970 -1 -1
-0.0639990720 -0.0956401160 -1 -1
-0.0637756340 -0.0934590250 -1 -1
-0.0635418870 -0.0911182270 -1 -1
-0.0633450230 -0.0888275030 -1 -1
-0.0632253590 -0.0867847770 -1 -1
-0.0632120220 -0.0851633230 -1 -1
-0.0633214170 -0.0840992480 -1 -1
-0.0635569770 -0.0836791230 -1 -1
-0.0639088650 -0.0839297730 -1 -1
-0.0643538260 -0.0848135770 -1 -1
-0.0648559020 -0.0862320950 -1 -1
-0.0653680090 -0.0880372950 -1 -1
-0.0658343360 -0.0900466130 -1 -1
-0.0661946300 -0.0920597410 -1 -1
-0.0663914390 -0.0938771570 -1 -1
-0.0663796330 -0.0953194970 -1 -1
-0.0661352050 -0.0962455900 -1 -1
-0.0656599320 -0.0965663980 -1 -1
-0.0649805170 -0.0962525800 -1 -1
-0.0641438440 -0.0953360780 -1 -1
-0.0632115830 -0.0939077520 -1 -1
-0.0622561170 -0.0921116170 -1 -1
-0.0613564280 -0.0901342960 -1 -1
-0.0605914840 -0.0881881290 -1 -1
-0.0600313850 -0.0864880170 -1 -1
-0.0597290310 -0.0852256090 -1 -1
-0.0597144680 -0.0845470040 -1 -1
-0.0599919830 -0.0845379710 -1 -1
-0.0605394330 -0.0852160140 -1 -1
-0.0613101690 -0.0865275120 -1 -1
-0.0622379880 -0.0883504830 -1 -1
-0.0632442240 -0.0905050530 -1 -1
-0.0642453100 -0.0927721150 -1 -1
-0.0651602270 -0.0949175080 -1 -1
-0.0659181930 -0.0967172380 -1 -1
-0.0664658000 -0.0979801180 -1 -1
-0.0667717870 -0.0985661430 -1 -1
-0.0668284950 -0.0983994250 -1 -1
-0.0666503640 -0.0974741020 -1 -1
-0.0662706710 -0.0958528430 -1 -1
-0.0657375330 -0.0936600510 -1 -1
-0.0651092230 -0.0910724490 -1 -1
-0.0644486140 -0.0883075000 -1 -1
-0.0638173500 -0.0856072270 -1 -1
-0.0632704390 -0.0832155080 -1 -1
-0.0628510500 -0.0813518280 -1 -1
-0.0625858880 -0.0801886170 -1 -1
-0.0624826790 -0.0798369200 -1 -1
-0.0625307150 -0.0803390460 -1 -1
-0.0627037820 -0.0816645500 -1 -1
-0.0629638060 -0.0837091470 -1 -1
-0.0632641500 -0.0862994960 -1 -1
-0.0635531330 -0.0892059650 -1 -1
-0.0637788280 -0.0921623850 -1 -1
-0.0638945870 -0.0948903880 -1 -1
-0.0638636950 -0.0971264750 -1 -1
-0.0636626620 -0.0986498600 -1 -1
-0.0632839680 -0.0993076810 -1 -1
-0.0627382150 -0.0990333430 -1 -1
-0.0620539510 -0.0978546140 -1 -1
-0.0612738080 -0.0958898450 -1 -1
-0.0604483030 -0.0933336600 -1 -1
-0.0596300820 -0.0904361680 -1 -1
-0.0588697800 -0.0874783990 -1 -1
-0.0582125300 -0.0847435490 -1 -1
-0.0576944040 -0.0824855760 -1 -1
-0.0573391210 -0.0809013700 -1 -1
-0.0571557250 -0.0801128040 -1 -1
-0.0571378790 -0.0801604830 -1 -1
-0.0572648720 -0.0810062860 -1 -1
-0.0575038660 -0.0825403150 -1 -1
-0.0578133090 -0.0845908320 -1 -1
-0.0581477210 -0.0869395780 -1 -1
-0.0584629370 -0.0893441810 -1 -1
-0.0587205030 -0.0915650200 -1 -1
-0.0588910540 -0.0933916310 -1 -1
-0.0589569420 -0.0946650450 -1 -1
-0.0589136000 -0.0952935010 -1 -1
-0.0587688180 -0.0952591920 -1 -1
-0.0585398690 -0.0946154100 -1 -1
-0.0582495000 -0.0934759800 -1 -1
-0.0579228460 -0.0919996430 -1 -1
-0.0575866490 -0.0903722540 -1 -1
-0.0572694690 -0.0887899710 -1 -1
-0.0570003360 -0.0874447780 -1 -1
-0.0568056450 -0.0865105340 -1 -1
-0.0567061500 -0.0861272680 -1 -1
-0.0567149810 -0.0863838320 -1 -1
-0.0568358440 -0.0873013670 -1 -1
-0.0570606270 -0.0888216480 -1 -1
-0.0573675320 -0.0908053490 -1 -1
-0.0577220310 -0.0930439390 -1 -1
-0.0580813250 -0.0952851570 -1 -1
-0.0584007760 -0.0972674070 -1 -1
-0.0586405300 -0.0987555280 -1 -1
-0.0587709400 -0.0995710860 -1 -1
-0.0587754220 -0.0996129040 -1 -1
-0.0586498890 -0.0988655050 -1 -1
-0.0583998880 -0.0973950680 -1 -1
-0.0580382620 -0.0953351370 -1 -1
-0.0575849850 -0.0928661020 -1 -1
-0.0570681410 -0.0901924400 -1 -1
-0.0565242190 -0.0875215360 -1 -1
-0.0559965110 -0.0850483310 -1 -1
-0.0555310770 -0.0829477160 -1 -1
-0.0551705880 -0.0813709570 -1 -1
-0.0549476390 -0.0804391210 -1 -1
-0.0548794010 -0.0802301990 -1 -1
-0.0549645920 -0.0807639890 -1 -1
-0.0551832160 -0.0819916390 -1 -1
-0.0554995040 -0.0837936960 -1 -1
-0.0558671610 -0.0859875990 -1 -1
-0.0562346410 -0.0883447370 -1 -1
-0.0565495530 -0.0906155630 -1 -1
-0.0567636460 -0.0925584670 -1 -1
-0.0568390460 -0.0939666620 -1 -1
-0.0567538250 -0.0946887290 -1 -1
-0.0565048290 -0.0946414640 -1 -1
-0.0561073070 -0.0938150020 -1 -1
-0.0555918680 -0.0922706780 -1 -1
-0.0549997290 -0.0901330270 -1 -1
-0.0543774500 -0.0875775600 -1 -1
-0.0537719900 -0.0848162650 -1 -1
-0.0532261950 -0.0820830370 -1 -1
-0.0527745960 -0.0796183580 -1 -1
-0.0524400990 -0.0776493510 -1 -1
-0.0522326010 -0.0763645550 -1 -1
-0.0521497140 -0.0758889430 -1 -1
-0.0521787220 -0.0762662160 -1 -1
-0.0522989520 -0.0774519730 -1 -1
-0.0524842880 -0.0793177970 -1 -1
-0.0527059170 -0.0816658970 -1 -1
-0.0529355030 -0.0842538600 -1 -1
-0.0531483620 -0.0868247160 -1 -1
-0.0533258310 -0.0891345090 -1 -1
-0.0534563360 -0.0909735940 -1 -1
-0.0535349750 -0.0921826730 -1 -1
-0.0535617180 -0.0926647730 -1 -1
-0.0535392870 -0.0923934250 -1 -1
-0.0534724160 -0.0914170100 -1 -1
-0.0533690270 -0.0898579980 -1 -1
-0.0532423190 -0.0879043650 -1 -1
-0.0531123980 -0.0857914620 -1 -1
-0.0530066100 -0.0837754260 -1 -1
-0.0529580000 -0.0821020340 -1 -1
-0.0530017120 -0.0809761980 -1 -1
-0.0531698480 -0.0805366290 -1 -1
-0.0534857020 -0.0808393740 -1 -1
-0.0539581620 -0.0818528910 -1 -1
-0.0545772030 -0.0834644380 -1 -1
-0.0553119560 -0.0854948890 -1 -1
-0.0561127910 -0.0877187470 -1 -1
-0.0569173980 -0.0898872380 -1 -1
-0.0576589730 -0.0917528730 -1 -1
-0.0582740930 -0.0930935360 -1 -1
-0.0587091160 -0.0937339020 -1 -1
-0.0589252480 -0.0935626800 -1 -1
-0.0589027210 -0.0925446380 -1 -1
-0.0586437270 -0.0907260320 -1 -1
-0.0581731620 -0.0882322060 -1 -1
-0.0575366250 -0.0852570300 -1 -1
-0.0567958660 -0.0820446500 -1 -1
-0.0560221890 -0.0788652920 -1 -1
-0.0552886870 -0.0759877510 -1 -1
-0.0546625000 -0.0736517050 -1 -1
-0.0541979500 -0.0720438000 -1 -1
-0.0539309760 -0.0712813000 -1 -1
-0.0538754730 -0.0714048390 -1 -1
-0.0540224230 -0.0723790520 -1 -1
-0.0543419330 -0.0740989940 -1 -1
-0.0547874560 -0.0764009720 -1 -1
-0.0553015730 -0.0790772060 -1 -1
-0.0558227970 -0.0818941550 -1 -1
-0.0562925280 -0.0846141960 -1 -1
-0.0566612440 -0.0870186430 -1 -1
-0.0568931100 -0.0889278940 -1 -1
-0.0569682790 -0.0902147470 -1 -1
-0.0568824650 -0.0908102340 -1 -1
-0.0566446360 -0.0907041850 -1 -1
-0.0562748630 -0.0899431360 -1 -1
-0.0558035860 -0.0886266480 -1 -1
-0.0552712940 -0.0869015470 -1 -1
-0.0547268330 -0.0849532660 -1 -1
-0.0542236620 -0.0829928670 -1 -1
-0.0538144120 -0.0812383440 -1 -1
-0.0535444480 -0.0798919240 -1 -1
-0.0534458450 -0.0791178110 -1 -1
-0.0535336360 -0.0790244390 -1 -1
-0.0538049850 -0.0796538930 -1 -1
-0.0542403020 -0.0809796050 -1 -1
-0.0548051420 -0.0829115200 -1 -1
-0.0554527990 -0.0853068990 -1 -1
-0.0561279250 -0.0879842640 -1 -1
-0.0567711870 -0.0907376910 -1 -1
-0.0573247680 -0.0933500740 -1 -1
-0.0577383040 -0.0956064060 -1 -1
-0.0579745710 -0.0973088530 -1 -1
-0.0580138800 -0.0982941450 -1 -1
-0.0578562320 -0.0984515360 -1 -1
-0.0575208320 -0.0977377600 -1 -1
-0.0570429340 -0.0961854000 -1 -1
-0.0564683470 -0.0939028460 -1 -1
-0.0558473100 -0.0910659810 -1 -1
-0.0552298210 -0.0879025000 -1 -1
-0.0546625020 -0.0846700860 -1 -1
-0.0541860790 -0.0816303130 -1 -1
-0.0538331040 -0.0790209220 -1 -1
-0.0536253510 -0.0770298100 -1 -1
-0.0535704500 -0.0757739280 -1 -1
-0.0536589020 -0.0752862230 -1 -1
-0.0538636090 -0.0755140910 -1 -1
-0.0541431120 -0.0763316410 -1 -1
-0.0544479750 -0.0775641170 -1 -1
-0.0547284840 -0.0790176390 -1 -1
-0.0549414870 -0.0805053650 -1 -1
-0.0550548170 -0.0818646270 -1 -1
-0.0550493280 -0.0829650980 -1 -1
-0.0549196220 -0.0837113030 -1 -1
-0.0546738290 -0.0840435840 -1 -1
-0.0543322130 -0.0839407240 -1 -1
-0.0539250560 -0.0834242520 -1 -1
-0.0534906620 -0.0825606600 -1 -1
-0.0530733280 -0.0814576430 -1 -1
-0.0527203040 -0.0802542800 -1 -1
-0.0524768880 -0.0791075570 -1 -1
-0.0523796200 -0.0781762340 -1 -1
-0.0524491690 -0.0776021440 -1 -1
-0.0526854890 -0.0774910870 -1 -1
-0.0530667550 -0.0778974320 -1 -1
-0.0535518610 -0.0788157720 -1 -1
-0.0540859170 -0.0801809100 -1 -1
-0.0546081590 -0.0818756400 -1 -1
-0.0550609530 -0.0837447700 -1 -1
-0.0553974250 -0.0856129250 -1 -1
-0.0555854080 -0.0873029070 -1 -1
-0.0556075660 -0.0886520580 -1 -1
-0.0554599610 -0.0895256290 -1 -1
-0.0551509820 -0.0898275620 -1 -1
-0.0547001350 -0.0895097200 -1 -1
-0.0541357910 -0.0885793970 -1 -1
-0.0534923730 -0.0871032290 -1 -1
-0.0528076660 -0.0852058360 -1 -1
-0.0521200510 -0.0830624610 -1 -1
-0.0514656700 -0.0808848390 -1 -1
-0.0508761490 -0.0788999830 -1 -1
-0.0503772230 -0.0773238490 -1 -1
-0.0499878130 -0.0763342640 -1 -1
-0.0497189090 -0.0760477420 -1 -1
-0.0495721120 -0.0765029720 -1 -1
-0.0495388670 -0.0776528290 -1 -1
-0.0496013440 -0.0793675560 -1 -1
-0.0497345590 -0.0814506600 -1 -1
-0.0499090820 -0.0836644990 -1 -1
-0.0500944290 -0.0857594980 -1 -1
-0.0502629420 -0.0875024100 -1 -1
-0.0503933540 -0.0887007550 -1 -1
-0.0504731670 -0.0892208460 -1 -1
-0.0504994530 -0.0889980600 -1 -1
-0.0504783490 -0.0880398840 -1 -1
-0.0504238680 -0.0864226820 -1 -1
-0.0503565810 -0.0842825050 -1 -1
-0.0503022390 -0.0818002480 -1 -1
-0.0502896730 -0.0791829660 -1 -1
-0.0503473980 -0.0766448000 -1 -1
-0.0504994560 -0.0743904790 -1 -1
-0.0507616630 -0.0726019000 -1 -1
-0.0511387290 -0.0714253390 -1 -1
-0.0516222420 -0.0709569550 -1 -1
-0.0521895470 -0.0712290920 -1 -1
-0.0528040740 -0.0722031130 -1 -1
-0.0534179220 -0.0737716610 -1 -1
-0.0539767910 -0.0757699820 -1 -1
-0.0544260280 -0.0779943430 -1 -1
-0.0547165710 -0.0802230540 -1 -1
-0.0548106000 -0.0822353000 -1 -1
-0.0546867150 -0.0838275000 -1 -1
-0.0543435550 -0.0848305540 -1 -1
-0.0538004690 -0.0851289980 -1 -1
-0.0530945310 -0.0846780310 -1 -1
-0.0522745120 -0.0835126140 -1 -1
-0.0513937060 -0.0817451760 -1 -1
-0.0505039700 -0.0795520040 -1 -1
-0.0496521900 -0.0771510540 -1 -1
-0.0488786470 -0.0747755060 -1 -1
-0.0482164460 -0.0726482700 -1 -1
-0.0476917260 -0.0709613480 -1 -1
-0.0473239460 -0.0698605300 -1 -1
-0.0471245810 -0.0694344640 -1 -1
-0.0470936400 -0.0697085040 -1 -1
-0.0472162210 -0.0706434690 -1 -1
-0.0474616630 -0.0721384810 -1 -1
-0.0477853620 -0.0740385780 -1 -1
-0.0481322120 -0.0761487730 -1 -1
-0.0484418410 -0.0782536770 -1 -1
-0.0486560010 -0.0801393020 -1 -1
-0.0487271710 -0.0816145610 -1 -1
-0.0486264150 -0.0825305240 -1 -1
-0.0483484450 -0.0827940620 -1 -1
-0.0479123790 -0.0823736030 -1 -1
-0.0473579690 -0.0812983360 -1 -1
-0.0467383470 -0.0796538190 -1 -1
-0.0461109790 -0.0775765790 -1 -1
-0.0455291580 -0.0752486610 -1 -1
-0.0450366820 -0.0728893380 -1 -1
-0.0446666120 -0.0707389690 -1 -1
-0.0444423560 -0.0690334200 -1 -1
-0.0443789180 -0.0679737130 -1 -1
-0.0444840000 -0.0676985790 -1 -1
-0.0447590120 -0.0682658040 -1 -1
-0.0451987760 -0.0696450930 -1 -1
-0.0457889620 -0.0717224570 -1 -1
-0.0465023980 -0.0743139340 -1 -1
-0.0472970360 -0.0771851990 -1 -1
-0.0481179320 -0.0800743630 -1 -1
-0.0489035210 -0.0827163080 -1 -1
-0.0495944970 -0.0848669340 -1 -1
-0.0501426280 -0.0863254830 -1 -1
-0.0505169650 -0.0869536470 -1 -1
-0.0507060880 -0.0866907970 -1 -1
-0.0507165850 -0.0855642000 -1 -1
-0.0505692200 -0.0836914340 -1 -1
-0.0502946510 -0.0812718850 -1 -1
-0.0499296250 -0.0785665530 -1 -1
-0.0495133810 -0.0758678390 -1 -1
-0.0490837890 -0.0734628390 -1 -1
-0.0486738130 -0.0715961820 -1 -1
-0.0483098290 -0.0704396590 -1 -1
-0.0480122700 -0.0700734870 -1 -1
-0.0477966270 -0.0704803170 -1 -1
-0.0476720840 -0.0715513700 -1 -1
-0.0476372880 -0.0731036410 -1 -1
-0.0476763870 -0.0749048980 -1 -1
-0.0477592850 -0.0767017400 -1 -1
-0.0478467330 -0.0782471480 -1 -1
-0.0478974940 -0.0793243130 -1 -1
-0.0478751150 -0.0797648450 -1 -1
-0.0477539240 -0.0794634740 -1 -1
-0.0475240640 -0.0783908600 -1 -1
-0.0471941070 -0.0766001300 -1 -1
-0.0467896690 -0.0742215740 -1 -1
-0.0463480750 -0.0714458710 -1 -1
-0.0459108810 -0.0685013130 -1 -1
-0.0455165290 -0.0656306980 -1 -1
-0.0451948950 -0.0630711730 -1 -1
-0.0449646340 -0.0610369460 -1 -1
-0.0448332830 -0.0597025890 -1 -1
-0.0447990530 -0.0591864630 -1 -1
-0.0448530540 -0.0595373820 -1 -1
-0.0449813090 -0.0607274080 -1 -1
-0.0451660720 -0.0626513900 -1 -1
-0.0453863300 -0.0651340000 -1 -1
-0.0456179760 -0.0679456000 -1 -1
-0.0458341970 -0.0708263630 -1 -1
-0.0460063090 -0.0735150020 -1 -1
-0.0461053530 -0.0757764210 -1 -1
-0.0461049830 -0.0774237600 -1 -1
-0.0459854170 -0.0783340660 -1 -1
-0.0457368380 -0.0784586660 -1 -1
-0.0453608920 -0.0778274900 -1 -1
-0.0448713260 -0.0765447420 -1 -1
-0.0442953350 -0.0747745800 -1 -1
-0.0436746250 -0.0727187400 -1 -1
-0.0430638810 -0.0705907530 -1 -1
-0.0425260910 -0.0685927740 -1 -1
-0.0421257410 -0.0669002860 -1 -1
-0.0419202730 -0.0656549790 -1 -1
-0.0419499470 -0.0649607620 -1 -1
-0.0422280600 -0.0648785100 -1 -1
-0.0427345770 -0.0654191440 -1 -1
-0.0434150880 -0.0665369770 -1 -1
-0.0441853480 -0.0681263400 -1 -1
-0.0449407820 -0.0700255520 -1 -1
-0.0455694650 -0.0720307340 -1 -1
-0.0459665710 -0.0739177330 -1 -1
-0.0460480630 -0.0754675600 -1 -1
-0.0457611730 -0.0764909420 -1 -1
-0.0450901570 -0.0768488380 -1 -1
-0.0440575800 -0.0764670620 -1 -1
-0.0427218870 -0.0753440130 -1 -1
-0.0411711800 -0.0735510710 -1 -1
-0.0395134940 -0.0712260030 -1 -1
-0.0378650540 -0.0685600030 -1 -1
-0.0363380760 -0.0657792050 -1 -1
-0.0350291810 -0.0631230650 -1 -1
-0.0340098750 -0.0608228420 -1 -1
-0.0333214580 -0.0590813870 -1 -1
-0.0329759650 -0.0580539010 -1 -1
-0.0329615510 -0.0578310280 -1 -1
-0.0332481950 -0.0584274250 -1 -1
-0.0337905130 -0.0597784250 -1 -1
-0.0345281960 -0.0617459220 -1 -1
-0.0353875300 -0.0641329080 -1 -1
-0.0362866740 -0.0667041570 -1 -1
-0.0371441290 -0.0692098050 -1 -1
-0.0378878880 -0.0714094500 -1 -1
-0.0384630080 -0.0730948390 -1 -1
