0.0055602480 -0.0578111610 0 -1
0.0061353160 -0.0576649120 0 -1
0.0067980140 -0.0574724530 0 -1
0.0074506660 -0.0572245420 0 -1
0.0079927740 -0.0569109950 0 -1
0.0083285330 -0.0565215690 0 -1
0.0083808970 -0.0560484190 0 -1
0.0081082960 -0.0554893700 0 -1
0.0075158250 -0.0548486380 0 -1
0.0066564700 -0.0541329000 0 -1
0.0056222160 -0.0533453910 0 -1
0.0045274670 -0.0524833940 0 -1
0.0034896380 -0.0515413900 0 -1
0.0026114210 -0.0505171220 0 -1
0.0019677350 -0.0494173010 0 -1
0.0016005340 -0.0482622810 0 -1
0.0015215850 -0.0470890670 0 -1
0.0017172830 -0.0459499130 0 -1
0.0021498680 -0.0449046040 0 -1
0.0027568720 -0.0440087850 0 -1
0.0034552300 -0.0433034560 0 -1
0.0041524990 -0.0428094970 0 -1
0.0047618990 -0.0425277690 0 -1
0.0052175160 -0.0424428650 0 -1
0.0054868030 -0.0425277010 0 -1
0.0055754710 -0.0427477790 0 -1
0.0055210590 -0.0430662410 0 -1
0.0053786590 -0.0434503830 0 -1
0.0052080760 -0.0438776980 0 -1
0.0050696950 -0.0443386640 0 -1
0.0050283850 -0.0448350800 0 -1
0.0051575090 -0.0453750030 0 -1
0.0055362250 -0.0459670050 0 -1
0.0062421250 -0.0466160740 0 -1
0.0073466220 -0.0473210380 0 -1
0.0089158960 -0.0480724770 0 -1
0.0110110210 -0.0488521420 0 -1
0.0136779490 -0.0496357160 0 -1
0.0169271200 -0.0503982720 0 -1
0.0207146230 -0.0511192300 0 -1
0.0249364520 -0.0517838980 0 -1
0.0294363580 -0.0523807770 0 -1
0.0340216660 -0.0528964090 1 -1
0.0384833180 -0.0533120050 1 -1
0.0426167930 -0.0536059490 1 -1
0.0462387070 -0.0537616030 1 -1
0.0491980880 -0.0537745180 1 -1
0.0513878400 -0.0536531110 1 -1
0.0527592410 -0.0534119390 1 -1
0.0533340110 -0.0530624780 1 -1
0.0532071930 -0.0526088760 1 -1
0.0525382330 -0.0520525560 1 -1
0.0515306820 -0.0514016290 1 -1
0.0504044530 -0.0506761770 1 -1
0.0493698430 -0.0499045810 1 -1
0.0486117230 -0.0491149470 1 -1
0.0482828890 -0.0483288400 1 -1
0.0484983590 -0.0475597940 1 -1
0.0493245900 -0.0468142960 1 -1
0.0507642580 -0.0460926150 1 -1
0.0527435500 -0.0453890420 1 -1
0.0551130820 -0.0446930610 1 -1
0.0576690550 -0.0439932710 1 -1
0.0601870690 -0.0432846770 1 -1
0.0624521200 -0.0425767100 1 -1
0.0642761570 -0.0418972100 1 -1
0.0655089390 -0.0412900410 1 -1
0.0660501960 -0.0408076980 1 -1
0.0658611840 -0.0405007580 1 -1
0.0649690730 -0.0404058300 1 -1
0.0634635210 -0.0405356970 1 -1
0.0614885060 -0.0408758000 1 -1
0.0592304770 -0.0413871580 1 -1
0.0569030210 -0.0420126560 1 -1
0.0547290060 -0.0426855490 1 -1
0.0529218340 -0.0433411510 1 -1
0.0516667440 -0.0439295270 1 -1
0.0511012510 -0.0444237890 1 -1
0.0512955800 -0.0448207150 1 -1
0.0522383610 -0.0451343440 1 -1
0.0538326650 -0.0453848320 1 -1
0.0559048860 -0.0455867720 1 -1
0.0582276060 -0.0457424730 1 -1
0.0605533170 -0.0458418660 1 -1
0.0626502460 -0.0458660200 1 -1
0.0643310860 -0.0457929210 1 -1
0.0654686900 -0.0456066760 1 -1
0.0659978990 -0.0453072560 1 -1
0.0659086480 -0.0449140100 1 -1
0.0652370270 -0.0444606380 1 -1
0.0640576130 -0.0439866800 1 -1
0.0624778340 -0.0435316000 1 -1
0.0606341760 -0.0431319280 1 -1
0.0586878740 -0.0428175710 1 -1
0.0568161340 -0.0426057820 1 -1
0.0551971380 -0.0424959260 1 -1
0.0539912630 -0.0424686820 1 -1
0.0533213750 -0.0424901610 1 -1
0.0532538360 -0.0425189190 1 -1
0.0537847750 -0.0425133660 1 -1
0.0548386710 -0.0424384760 1 -1
0.0562808340 -0.0422713880 1 -1
0.0579368300 -0.0420046670 1 -1
0.0596106960 -0.0416465430 1 -1
0.0610997310 -0.0412191700 1 -1
0.0622095720 -0.0407558150 1 -1
0.0627741590 -0.0402967440 1 -1
0.0626799970 -0.0398836520 1 -1
0.0618872860 -0.0395535330 1 -1
0.0604392810 -0.0393338840 1 -1
0.0584554410 -0.0392409040 1 -1
0.0561103620 -0.0392804700 1 -1
0.0536077090 -0.0394498440 1 -1
0.0511595480 -0.0397380450 1 -1
0.0489723080 -0.0401245720 1 -1
0.0472322190 -0.0405784140 1 -1
0.0460861530 -0.0410597130 1 -1
0.0456215430 -0.0415237360 1 -1
0.0458521890 -0.0419244090 1 -1
0.0467147830 -0.0422163210 1 -1
0.0480758220 -0.0423569310 1 -1
0.0497459600 -0.0423100540 1 -1
0.0515017580 -0.0420499150 1 -1
0.0531149190 -0.0415650270 1 -1
0.0543838060 -0.0408612160 1 -1
0.0551602020 -0.0399630050 1 -1
0.0553667220 -0.0389133950 1 -1
0.0550025450 -0.0377722450 1 -1
0.0541374130 -0.0366122890 1 -1
0.0528961820 -0.0355114810 1 -1
0.0514375150 -0.0345419450 1 -1
0.0499318620 -0.0337589100 1 -1
0.0485446120 -0.0331944490 1 -1
0.0474260030 -0.0328569970 1 -1
0.0467019120 -0.0327332110 1 -1
0.0464599790 -0.0327901560 1 -1
0.0467355710 -0.0329794100 1 -1
0.0475071180 -0.0332444400 1 -1
0.0487026730 -0.0335298510 1 -1
0.0502114570 -0.0337892470 1 -1
0.0518954270 -0.0339888910 1 -1
0.0536005700 -0.0341071790 1 -1
0.0551690700 -0.0341323720 1 -1
0.0564530430 -0.0340610820 1 -1
0.0573294400 -0.0338986730 1 -1
0.0577135800 -0.0336608000 1 -1
0.0575667420 -0.0333733350 1 -1
0.0568939710 -0.0330688250 1 -1
0.0557352260 -0.0327811820 1 -1
0.0541594780 -0.0325415540 1 -1
0.0522664020 -0.0323760040 1 -1
0.0501892200 -0.0323035370 1 -1
0.0480888560 -0.0323333950 1 -1
0.0461356220 -0.0324624960 1 -1
0.0444839730 -0.0326750500 1 -1
0.0432516330 -0.0329456910 1 -1
0.0425106850 -0.0332455340 1 -1
0.0422879320 -0.0335486230 1 -1
0.0425673090 -0.0338362220 1 -1
0.0432919920 -0.0340985130 1 -1
0.0443679670 -0.0343346870 1 -1
0.0456697510 -0.0345518390 1 -1
0.0470491800 -0.0347621500 1 -1
0.0483494500 -0.0349777590 1 -1
0.0494236450 -0.0352042480 1 -1
0.0501515640 -0.0354361940 1 -1
0.0504476490 -0.0356580790 1 -1
0.0502600050 -0.0358502820 1 -1
0.0495697650 -0.0359972220 1 -1
0.0483993450 -0.0360943310 1 -1
0.0468257510 -0.0361504110 1 -1
0.0449849400 -0.0361829120 1 -1
0.0430583040 -0.0362077030 1 -1
0.0412456830 -0.0362291490 1 -1
0.0397359630 -0.0362358620 1 -1
0.0386835280 -0.0362034460 1 -1
0.0381928530 -0.0361021850 1 -1
0.0383104440 -0.0359059230 1 -1
0.0390242640 -0.0355983450 1 -1
0.0402706470 -0.0351754630 1 -1
0.0419456090 -0.0346462500 1 -1
0.0439159750 -0.0340334400 1 -1
0.0460284780 -0.0333739150 1 -1
0.0481195550 -0.0327155930 1 -1
0.0500291560 -0.0321090420 1 -1
0.0516171400 -0.0315968640 1 -1
0.0527778070 -0.0312068330 1 -1
0.0534498080 -0.0309514090 1 -1
0.0536204400 -0.0308311770 1 -1
0.0533237850 -0.0308387880 1 -1
0.0526327320 -0.0309623150 1 -1
0.0516467940 -0.0311878480 1 -1
0.0504796210 -0.0315004380 1 -1
0.0492491970 -0.0318823370 1 -1
0.0480697340 -0.0323094280 1 -1
0.0470430760 -0.0327491400 1 -1
0.0462496190 -0.0331627230 1 -1
0.0457401460 -0.0335109210 1 -1
0.0455308000 -0.0337595040 1 -1
0.0456043050 -0.0338827610 1 -1
0.0459178780 -0.0338657210 1 -1
0.0464128820 -0.0337064880 1 -1
0.0470203190 -0.0334185660 1 -1
0.0476620970 -0.0330313710 1 -1
0.0482532180 -0.0325870630 1 -1
0.0487084630 -0.0321340170 1 -1
0.0489519800 -0.0317196880 1 -1
0.0489258700 -0.0313852540 1 -1
0.0485953390 -0.0311614360 1 -1
0.0479518130 -0.0310642040 1 -1
0.0470181970 -0.0310921770 1 -1
0.0458559260 -0.0312283220 1 -1
0.0445663740 -0.0314445640 1 -1
0.0432811090 -0.0317060710 1 -1
0.0421431770 -0.0319749490 1 -1
0.0412862460 -0.0322151220 1 -1
0.0408181990 -0.0323980910 1 -1
0.0408097650 -0.0325066210 1 -1
0.0412844940 -0.0325341290 1 -1
0.0422122450 -0.0324808090 1 -1
0.0435120050 -0.0323492730 1 -1
0.0450624960 -0.0321424940 1 -1
0.0467153400 -0.0318658650 1 -1
0.0483106130 -0.0315322920 1 -1
0.0496952030 -0.0311661720 1 -1
0.0507401650 -0.0308027590 1 -1
0.0513535260 -0.0304834440 1 -1
0.0514877250 -0.0302500500 1 -1
0.0511413950 -0.0301399910 1 -1
0.0503554870 -0.0301818900 1 -1
0.0492061400 -0.0303913140 1 -1
0.0477988140 -0.0307675060 1 -1
0.0462666470 -0.0312923290 1 -1
0.0447700720 -0.0319317100 1 -1
0.0434889760 -0.0326389190 1 -1
0.0426021720 -0.0333591200 1 -1
0.0422609930 -0.0340350250 1 -1
0.0425679280 -0.0346132780 1 -1
0.0435625510 -0.0350511890 1 -1
0.0452111800 -0.0353227970 1 -1
0.0474022700 -0.0354214180 1 -1
0.0499549040 -0.0353562210 1 -1
0.0526418930 -0.0351448120 1 -1
0.0552194510 -0.0348069020 1 -1
0.0574554410 -0.0343623040 1 -1
0.0591540910 -0.0338328260 1 -1
0.0601762130 -0.0332452280 1 -1
0.0604526160 -0.0326324120 1 -1
0.0599895210 -0.0320319350 1 -1
0.0588662730 -0.0314823100 1 -1
0.0572257430 -0.0310180130 1 -1
0.0552581240 -0.0306647840 1 -1
0.0531806660 -0.0304364100 1 -1
0.0512162630 -0.0303330300 1 -1
0.0495719070 -0.0303411590 1 -1
0.0484191000 -0.0304356060 1 -1
0.0478803110 -0.0305824120 1 -1
0.0480214510 -0.0307422560 1 -1
0.0488448680 -0.0308748670 1 -1
0.0502815460 -0.0309440910 1 -1
0.0521908050 -0.0309213970 1 -1
0.0543757400 -0.0307860420 1 -1
0.0566110070 -0.0305229100 1 -1
0.0586719650 -0.0301214860 1 -1
0.0603584580 -0.0295789800 1 0
0.0615128800 -0.0289071070 1 0
0.0620330330 -0.0281384440 1 0
0.0618789850 -0.0273276260 1 0
0.0610744240 -0.0265447180 1 0
0.0597049060 -0.0258614150 1 0
0.0579123740 -0.0253350690 1 0
0.0558802720 -0.0249982970 1 0
0.0538066920 -0.0248589830 1 0
0.0518733080 -0.0249074180 1 0
0.0502231570 -0.0251226730 1 0
0.0489542720 -0.0254741820 1 0
0.0481256770 -0.0259210150 1 0
0.0477665290 -0.0264129810 1 0
0.0478808740 -0.0268954520 1 0
0.0484455980 -0.0273171180 1 0
0.0494045290 -0.0276376410 1 0
0.0506645490 -0.0278320710 1 0
0.0520974680 -0.0278910770 1 0
0.0535488730 -0.0278183110 1 0
0.0548547120 -0.0276269930 1 0
0.0558631030 -0.0273369100 1 0
0.0564542490 -0.0269718040 1 0
0.0565528130 -0.0265574340 1 0
0.0561335800 -0.0261206390 1 0
0.0552241610 -0.0256883770 1 0
0.0539047920 -0.0252854710 1 0
0.0523011860 -0.0249315870 1 0
0.0505682240 -0.0246392410 1 0
0.0488687380 -0.0244139570 1 0
0.0473556840 -0.0242562200 1 0
0.0461622030 -0.0241640570 1 0
0.0453955520 -0.0241347870 1 0
0.0451280010 -0.0241645630 1 0
0.0453839690 -0.0242455190 1 0
0.0461304030 -0.0243629630 1 0
0.0472782630 -0.0244958770 1 0
0.0486966450 -0.0246207450 1 0
0.0502330850 -0.0247161500 1 0
0.0517309630 -0.0247666080 1 0
0.0530407750 -0.0247652430 1 0
0.0540303150 -0.0247150360 1 0
0.0545979530 -0.0246290560 1 0
0.0546850870 -0.0245299930 1 0
0.0542823170 -0.0244475030 1 0
0.0534291540 -0.0244118140 1 0
0.0522086020 -0.0244453350 1 0
0.0507372390 -0.0245566010 1 0
0.0491539590 -0.0247390160 1 0
0.0476108410 -0.0249733950 1 0
0.0462641330 -0.0252322400 1 0
0.0452603500 -0.0254844330 1 0
0.0447185950 -0.0256999540 1 0
0.0447165520 -0.0258543990 1 0
0.0452845930 -0.0259321350 1 0
0.0464060850 -0.0259266700 1 0
0.0480204260 -0.0258382650 1 0
0.0500271790 -0.0256701340 1 0
0.0522911070 -0.0254246890 1 0
0.0546486760 -0.0251014390 1 0
0.0569180590 -0.0246976410 1 0
0.0589151200 -0.0242112790 1 0
0.0604736710 -0.0236448930 1 0
0.0614642860 -0.0230088160 1 0
0.0618093640 -0.0223229880 1 0
0.0614966270 -0.0216166370 1 0
0.0605905590 -0.0209249760 1 0
0.0592356250 -0.0202823660 1 0
0.0576443550 -0.0197138490 1 0
0.0560687250 -0.0192300730 1 0
0.0547602980 -0.0188297910 1 0
0.0539291110 -0.0185082560 1 0
0.0537123460 -0.0182650270 1 0
0.0541601060 -0.0181064640 1 0
0.0552377110 -0.0180434930 1 0
0.0568374630 -0.0180875670 1 0
0.0587933370 -0.0182457960 1 0
0.0608976360 -0.0185147380 1 0
0.0629218830 -0.0188747100 1 0
0.0646421510 -0.0192888660 1 0
0.0658656080 -0.0197090330 1 0
0.0664530090 -0.0200855950 1 0
0.0663322210 -0.0203766260 1 0
0.0655008800 -0.0205528730 1 0
0.0640200410 -0.0205983310 1 0
0.0620036680 -0.0205086970 1 0
0.0596093360 -0.0202898090 1 0
0.0570302420 -0.0199561460 1 0
0.0544825100 -0.0195283570 1 0
0.0521850330 -0.0190292560 1 0
0.0503371090 -0.0184790320 1 0
0.0490998400 -0.0178916420 1 0
0.0485825920 -0.0172737570 1 0
0.0488334940 -0.0166256320 1 0
0.0498336500 -0.0159425910 1 0
0.0514969020 -0.0152166010 1 0
0.0536779870 -0.0144376940 1 0
0.0561885530 -0.0135953450 1 0
0.0588163480 -0.0126814240 1 0
0.0613444980 -0.0116961560 1 0
0.0635718760 -0.0106550810 1 0
0.0653340600 -0.0095917940 1 0
0.0665196170 -0.0085519910 1 0
0.0670777350 -0.0075788210 1 0
0.0670194790 -0.0066952710 1 0
0.0664162440 -0.0058918600 1 0
0.0653937170 -0.0051256460 1 0
0.0641168010 -0.0043322500 1 0
0.0627660430 -0.0034482030 1 0
0.0615126740 -0.0024353730 1 0
0.0604997150 -0.0012947240 1 0
0.0598325700 -0.0000600750 1 0
0.0595784170 0.0012253500 1 0
0.0597694070 0.0025371950 1 0
0.0604040310 0.0038904790 1 0
0.0614459830 0.0053426930 1 0
0.0628224640 0.0069749580 1 0
0.0644223420 0.0088576320 1 0
0.0660968200 0.0110165760 1 0
0.0676683200 0.0134159980 1 0
0.0689488770 0.0159655460 1 0
0.0697632160 0.0185495600 1 0
0.0699731530 0.0210688890 1 0
0.0695023510 0.0234803660 1 0
0.0683550910 0.0258164560 1 0
0.0666182570 0.0281736530 1 0
0.0644435490 0.0306745770 1 1
0.0620203200 0.0334238750 1 1
0.0595516440 0.0364793480 1 1
0.0572369560 0.0398479680 1 1
0.0552579470 0.0435019830 1 1
0.0537649710 0.0474018400 1 1
0.0528639130 0.0515134400 1 1
0.0526051580 0.0558152470 1 1
0.0529767810 0.0602989280 1 1
0.0539041070 0.0649697280 1 1
0.0552578460 0.0698496250 1 1
0.0568716700 0.0749805350 1 1
0.0585662540 0.0804212950 1 1
0.0601723810 0.0862346700 1 1
0.0615452460 0.0924678470 1 1
0.0625678850 0.0991358320 1 1
0.0631498780 0.1062165740 1 1
0.0632304080 0.1136594760 1 1
0.0627893310 0.1214012190 1 1
0.0618613720 0.1293806860 1 1
0.0605435260 0.1375482810 1 1
0.0589877210 0.1458690980 1 1
0.0573790050 0.1543218870 1 1
0.0559074390 0.1628971460 1 1
0.0547429610 0.1715974360 1 1
0.0540174750 0.1804394490 1 1
0.0538142600 0.1894533650 1 1
0.0541647830 0.1986755630 1 1
0.0550522200 0.2081358840 1 1
0.0564172260 0.2178451540 1 1
0.0581611290 0.2277883330 1 1
0.0601470030 0.2379243860 1 1
0.0622043210 0.2481908970 1 1
0.0641429870 0.2585113210 1 1
0.0657759480 0.2688028570 1 1
0.0669425480 0.2789824150 1 1
0.0675256870 0.2889689010 1 1
0.0674619570 0.2986822810 1 1
0.0667467800 0.3080412390 1 1
0.0654345210 0.3169616800 1 1
0.0636314670 0.3253586780 1 1
0.0614820400 0.3331536340 1 1
0.0591540700 0.3402851990 1 1
0.0568283500 0.3467189550 1 1
0.0546892880 0.3524507320 1 1
0.0529098120 0.3575028610 1 1
0.0516308680 0.3619177080 1 1
0.0509419840 0.3657532760 1 1
0.0508671950 0.3690809750 1 1
0.0513585780 0.3719809710 1 1
0.0523005650 0.3745315380 1 1
0.0535255180 0.3767952270 1 1
0.0548360810 0.3788087320 1 1
0.0560298340 0.3805808600 1 1
0.0569241670 0.3820975170 1 1
0.0573776790 0.3833293480 1 1
0.0573003190 0.3842384060 1 1
0.0566482720 0.3847831600 1 1
0.0554134750 0.3849234060 1 1
0.0536235170 0.3846266880 1 1
0.0513537340 0.3838754910 1 1
0.0487377620 0.3826722480 1 1
0.0459634550 0.3810398720 1 1
0.0432530440 0.3790176600 1 1
0.0408350210 0.3766533760 1 1
0.0389143880 0.3739935200 1 1
0.0376450110 0.3710750740 1 1
0.0371100270 0.3679213830 1 1
0.0373166190 0.3645427330 1 1
0.0382034670 0.3609402810 1 1
0.0396518330 0.3571108950 1 1
0.0414946030 0.3530509740 1 1
0.0435266720 0.3487587130 1 1
0.0455225250 0.3442353110 1 1
0.0472614710 0.3394856850 1 1
0.0485550080 0.3345186780 1 1
0.0492691690 0.3293464440 1 1
0.0493375240 0.3239832650 1 1
0.0487641680 0.3184445200 1 1
0.0476176790 0.3127460100 1 1
0.0460178070 0.3069029180 1 1
0.0441175980 0.3009276870 1 1
0.0420843600 0.2948282370 1 1
0.0400829920 0.2886095660 1 1
0.0382635220 0.2822791600 1 1
0.0367513370 0.2758529920 1 1
0.0356376890 0.2693598190 1 1
0.0349715290 0.2628445240 1 1
0.0347563840 0.2563702100 1 1
0.0349534400 0.2500158180 1 1
0.0354885980 0.2438668420 1 1
0.0362613810 0.2380007030 1 1
0.0371552770 0.2324715570 1 1
0.0380492640 0.2272994020 1 1
0.0388291800 0.2224660550 1 1
0.0393976620 0.2179185080 1 1
0.0396827060 0.2135796610 1 1
0.0396455900 0.2093646850 1 1
0.0392877900 0.2051981220 1 1
0.0386544700 0.2010257930 1 1
0.0378320330 0.1968189590 1 1
0.0369394270 0.1925724140 1 1
0.0361139440 0.1882995670 1 1
0.0354932580 0.1840265030 1 1
0.0351981790 0.1797856780 1 1
0.0353205490 0.1756096480 1 1
0.0359159050 0.1715261860 1 1
0.0369963610 0.1675560630 1 1
0.0385213470 0.1637128660 1 1
0.0403916320 0.1600034400 1 1
0.0424558650 0.1564286760 1 1
0.0445317180 0.1529848270 1 1
0.0464337510 0.1496649990 1 1
0.0479979120 0.1464603600 1 1
0.0490975570 0.1433608460 1 1
0.0496510950 0.1403550510 1 1
0.0496233940 0.1374293990 1 1
0.0490233990 0.1345673090 1 1
0.0478997220 0.1317495330 1 1
0.0463345730 0.1289568540 1 1
0.0444369510 0.1261751460 1 1
0.0423380470 0.1234006270 1 1
0.0401897900 0.1206421450 1 1
0.0381615250 0.1179190830 1 1
0.0364286230 0.1152563680 1 1
0.0351532380 0.1126787090 1 1
0.0344630590 0.1102051610 1 1
0.0344334080 0.1078450500 1 1
0.0350751680 0.1055964050 1 1
0.0363303800 0.1034468930 1 1
0.0380778640 0.1013763770 1 1
0.0401492720 0.0993611300 1 1
0.0423514380 0.0973797470 1 1
0.0444886670 0.0954185610 1 1
0.0463814060 0.0934731770 1 1
0.0478810160 0.0915444440 1 1
0.0488806240 0.0896303810 1 1
0.0493227370 0.0877188580 1 1
0.0492044430 0.0857865820 1 1
0.0485780920 0.0838062810 1 1
0.0475452050 0.0817585990 1 1
0.0462451460 0.0796424200 1 1
0.0448401640 0.0774785390 1 1
0.0434961650 0.0753053990 1 1
0.0423605870 0.0731696410 1 1
0.0415433680 0.0711161060 1 1
0.0411078800 0.0691805200 1 1
0.0410728080 0.0673855530 1 1
0.0414184250 0.0657399210 1 1
0.0420906800 0.0642401360 1 1
0.0430029110 0.0628741410 1 1
0.0440390900 0.0616254420 1 1
0.0450623210 0.0604762610 1 1
0.0459292400 0.0594083260 1 1
0.0465062320 0.0584008780 1 1
0.0466820400 0.0574275140 1 1
0.0463757070 0.0564553640 1 1
0.0455431290 0.0554488410 1 1
0.0441848370 0.0543757740 1 1
0.0423531960 0.0532117360 1 1
0.0401533370 0.0519417640 1 1
0.0377335200 0.0505615810 1 1
0.0352672000 0.0490787810 1 1
0.0329334240 0.0475122290 1 1
0.0308998690 0.0458888930 1 1
0.0293086900 0.0442399390 0 1
0.0282640520 0.0425986140 0 1
0.0278205190 0.0410004230 0 1
0.0279735780 0.0394838820 0 1
0.0286570080 0.0380897950 0 1
0.0297513560 0.0368574060 0 1
0.0311020150 0.0358168990 1 1
0.0325413120 0.0349803370 1 1
0.0339090590 0.0343349330 1 1
0.0350675060 0.0338413810 1 1
0.0359086640 0.0334377040 1 1
0.0363557140 0.0330480000 1 1
0.0363630430 0.0325946130 1 1
0.0359174100 0.0320112250 1 1
0.0350391220 0.0312542080 1 1
0.0337822090 0.0303102130 1 1
0.0322332220 0.0291979790 1 0
0.0305077360 0.0279626720 1 0
0.0287449200 0.0266638340 0 0
0.0271019310 0.0253618050 0 0
0.0257467160 0.0241083410 0 0
0.0248432110 0.0229436300 0 0
0.0245254300 0.0218973070 0 0
0.0248672270 0.0209899200 0 0
0.0258611370 0.0202334600 0 0
0.0274157120 0.0196313960 0 0
0.0293711570 0.0191785780 0 0
0.0315260890 0.0188608600 1 0
0.0336673660 0.0186548230 1 0
0.0355974930 0.0185288460 1 0
0.0371563090 0.0184459070 1 0
0.0382355200 0.0183670800 1 0
0.0387863150 0.0182550590 1 0
0.0388200680 0.0180779400 1 0
0.0384007580 0.0178131490 1 0
0.0376291360 0.0174504350 1 0
0.0366234420 0.0169928000 1 0
0.0355040580 0.0164553680 1 0
0.0343865060 0.0158626810 1 0
0.0333824750 0.0152443890 1 0
0.0326045180 0.0146293660 1 0
0.0321670850 0.0140395540 1 0
0.0321769620 0.0134855940 1 0
0.0327128260 0.0129653310 1 0
0.0338019870 0.0124656840 1 0
0.0354043930 0.0119680020 1 0
0.0374100740 0.0114550250 1 0
0.0396517090 0.0109156500 1 0
0.0419287690 0.0103450170 1 0
0.0440347620 0.0097412680 1 0
0.0457805080 0.0091028230 1 0
0.0470122580 0.0084284810 1 0
0.0476257350 0.0077189580 1 0
0.0475768470 0.0069776080 1 0
0.0468894270 0.0062101520 1 0
0.0456571840 0.0054243640 1 0
0.0440353050 0.0046299890 1 0
0.0422221130 0.0038389910 1 0
0.0404355980 0.0030665220 1 0
0.0388879030 0.0023323460 1 0
0.0377599220 0.0016617300 1 0
0.0371811550 0.0010844270 1 0
0.0372198260 0.0006308390 1 0
0.0378835410 0.0003264490 1 0
0.0391268100 0.0001872110 1 0
0.0408599470 0.0002170550 1 0
0.0429546070 0.0004065980 1 0
0.0452467470 0.0007324110 1 0
0.0475439890 0.0011577330 1 0
0.0496426580 0.0016359320 1 0
0.0513527380 0.0021163900 1 0
0.0525242780 0.0025509620 1 0
0.0530681940 0.0028994960 1 0
0.0529669010 0.0031336470 1 0
0.0522739640 0.0032378740 1 0
0.0511045800 0.0032069740 1 0
0.0496196440 0.0030417460 1 0
0.0480055910 0.0027459840 1 0
0.0464513660 0.0023269060 1 0
0.0451258930 0.0017983830 1 0
0.0441611240 0.0011842820 1 0
0.0436419830 0.0005194050 1 0
0.0435998290 -0.0001526630 1 0
0.0440080710 -0.0007840310 1 0
0.0447841440 -0.0013284980 1 0
0.0458014840 -0.0017485330 1 0
0.0469085910 -0.0020220180 1 0
0.0479483080 -0.0021460450 1 0
0.0487729380 -0.0021354210 1 0
0.0492556630 -0.0020167450 1 0
0.0493005020 -0.0018218060 1 0
0.0488515390 -0.0015833330 1 0
0.0479001970 -0.0013331270 1 0
0.0464881170 -0.0011003330 1 0
0.0447032100 -0.0009081240 1 0
0.0426692650 -0.0007703120 1 0
0.0405320800 -0.0006909930 1 0
0.0384447810 -0.0006679160 1 0
0.0365546130 -0.0006971090 1 0
0.0349937790 -0.0007759540 1 0
0.0338735390 -0.0009034500 1 0
0.0332773910 -0.0010779190 1 0
0.0332526980 -0.0012936920 1 0
0.0338049950 -0.0015388260 1 0
0.0348962490 -0.0017951150 1 0
0.0364432730 -0.0020407090 1 0
0.0383149250 -0.0022551350 1 0
0.0403339790 -0.0024255640 1 0
0.0422909660 -0.0025516430 1 0
0.0439690430 -0.0026463570 1 0
0.0451715590 -0.0027325550 1 0
0.0457464920 -0.0028371970 1 0
0.0456061920 -0.0029861260 1 0
0.0447395580 -0.0032007780 1 0
0.0432140630 -0.0034963580 1 0
0.0411693130 -0.0038807780 1 0
0.0388043720 -0.0043544540 1 0
0.0363585010 -0.0049111150 1 0
0.0340857580 -0.0055391550 1 0
0.0322274530 -0.0062227300 1 0
0.0309875530 -0.0069422980 1 0
0.0305130350 -0.0076751890 1 0
0.0308783300 -0.0083966620 1 0
0.0320740090 -0.0090811600 1 0
0.0340031880 -0.0097037140 1 0
0.0364906890 -0.0102418990 1 0
0.0393061290 -0.0106783680 1 0
0.0421945170 -0.0110037460 1 0
0.0449053750 -0.0112190910 1 0
0.0472173700 -0.0113363730 1 0
0.0489601110 -0.0113766810 1 0
0.0500316880 -0.0113675140 1 0
0.0504064700 -0.0113396000 1 0
0.0501302670 -0.0113228040 1 0
0.0493065070 -0.0113419140 1 0
0.0480803060 -0.0114139590 1 0
0.0466234650 -0.0115472690 1 0
0.0451186970 -0.0117414100 1 0
0.0437424910 -0.0119880860 1 0
0.0426498400 -0.0122734430 1 0
0.0419635910 -0.0125805340 1 0
0.0417671300 -0.0128904140 1 0
0.0420980610 -0.0131823970 1 0
0.0429441780 -0.0134350740 1 0
0.0442453130 -0.0136285450 1 0
0.0459009840 -0.0137471450 1 0
0.0477789240 -0.0137818570 1 0
0.0497214810 -0.0137317790 1 0
0.0515531890 -0.0136042840 1 0
0.0530938390 -0.0134135100 1 0
0.0541771590 -0.0131772850 1 0
0.0546721490 -0.0129135850 1 0
0.0545026200 -0.0126378200 1 0
0.0536590080 -0.0123613800 1 0
0.0521984010 -0.0120907010 1 0
0.0502348600 -0.0118265730 1 0
0.0479269070 -0.0115652390 1 0
0.0454664800 -0.0113022510 1 0
0.0430668960 -0.0110368630 1 0
0.0409450950 -0.0107739310 1 0
0.0392976310 -0.0105227540 1 0
0.0382750170 -0.0102944060 1 0
0.0379613470 -0.0100990290 1 0
0.0383650680 -0.0099438790 1 0
0.0394219890 -0.0098328350 1 0
0.0410056150 -0.0097673640 1 0
0.0429402800 -0.0097480710 1 0
0.0450190450 -0.0097762150 1 0
0.0470279310 -0.0098552950 1 0
0.0487699570 -0.0099928580 1 0
0.0500821510 -0.0102023290 1 0
0.0508475020 -0.0105036540 1 0
0.0510057760 -0.0109198710 1 0
0.0505607280 -0.0114673150 1 0
0.0495789650 -0.0121425380 1 0
0.0481796950 -0.0129138170 1 0
0.0465190520 -0.0137229670 1 0
0.0447744400 -0.0144967190 1 0
0.0431309410 -0.0151623660 1 0
0.0417670990 -0.0156616260 1 0
0.0408380230 -0.0159588230 1 0
0.0404576840 -0.0160429600 1 0
0.0406840370 -0.0159252830 1 0
0.0415100070 -0.0156341510 1 0
0.0428619530 -0.0152088690 1 0
0.0446068010 -0.0146938010 1 0
0.0465685220 -0.0141332840 1 0
0.0485510030 -0.0135673970 1 0
0.0503599130 -0.0130288650 1 0
0.0518192910 -0.0125419340 1 0
0.0527859840 -0.0121235360 1 0
0.0531655650 -0.0117853310 1 0
0.0529272240 -0.0115348270 1 0
0.0521115440 -0.0113751300 1 0
0.0508269490 -0.0113039930 1 0
0.0492348470 -0.0113128980 1 0
0.0475266690 -0.0113865660 1 0
0.0458977580 -0.0115029880 1 0
0.0445239370 -0.0116345650 1 0
0.0435449060 -0.0117510720 1 0
0.0430548010 -0.0118240920 1 0
0.0430978790 -0.0118316780 1 0
0.0436672240 -0.0117616020 1 0
0.0447057810 -0.0116116240 1 0
0.0461112810 -0.0113874010 1 0
0.0477464080 -0.0111007760 1 0
0.0494528110 -0.0107699830 1 0
0.0510665690 -0.0104205700 1 0
0.0524322870 -0.0100847730 1 0
0.0534123560 -0.0097980230 1 0
0.0538919250 -0.0095935600 1 0
0.0537855250 -0.0094977910 1 0
0.0530482050 -0.0095279180 1 0
0.0516857440 -0.0096912630 1 0
0.0497576880 -0.0099855480 1 0
0.0473738810 -0.0103999980 1 0
0.0446888750 -0.0109171310 1 0
0.0418949380 -0.0115147060 1 0
0.0392092230 -0.0121672230 1 0
0.0368516250 -0.0128466990 1 0
0.0350168890 -0.0135227560 1 0
0.0338495890 -0.0141624770 1 0
0.0334280090 -0.0147311960 1 0
0.0337567280 -0.0151958460 1 0
0.0347654460 -0.0155310920 1 0
0.0363145780 -0.0157257010 1 0
0.0382100640 -0.0157855850 1 0
0.0402266150 -0.0157320220 1 0
0.0421341160 -0.0155963370 1 0
0.0437216640 -0.0154129750 1 0
0.0448171260 -0.0152123170 1 0
0.0453023400 -0.0150146440 1 0
0.0451237410 -0.0148270750 1 0
0.0442976530 -0.0146443340 1 0
0.0429087780 -0.0144527210 1 0
0.0411000120 -0.0142360020 1 0
0.0390545780 -0.0139816720 1 0
0.0369753400 -0.0136858450 1 0
0.0350657000 -0.0133554210 1 0
0.0335130470 -0.0130070100 1 0
0.0324741940 -0.0126631650 1 0
0.0320631990 -0.0123473700 1 0
0.0323432870 -0.0120795100 1 0
0.0333237870 -0.0118729650 1 0
0.0349605900 -0.0117338150 1 0
0.0371585070 -0.0116624220 1 0
0.0397759820 -0.0116569750 1 0
0.0426332040 -0.0117169810 1 0
0.0455237100 -0.0118445450 1 0
0.0482299530 -0.0120431900 1 0
0.0505445290 -0.0123155290 1 0
0.0522969780 -0.0126610580 1 0
0.0533795240 -0.0130750790 1 0
0.0537607470 -0.0135497780 1 0
0.0534822490 -0.0140773610 1 0
0.0526441940 -0.0146530590 1 0
0.0513892260 -0.0152753580 1 0
0.0498889700 -0.0159422800 1 0
0.0483310490 -0.0166448380 1 0
0.0469033520 -0.0173610770 1 0
0.0457764810 -0.0180545950 1 0
0.0450880740 -0.0186789960 1 0
0.0449298160 -0.0191859400 1 0
0.0453355950 -0.0195325840 1 0
0.0462718740 -0.0196862160 1 0
0.0476340050 -0.0196269720 1 0
0.0492526600 -0.0193501690 1 0
0.0509131120 -0.0188678090 1 0
0.0523851940 -0.0182074590 1 0
0.0534559250 -0.0174081310 1 0
0.0539573660 -0.0165150410 1 0
0.0537889820 -0.0155753150 1 0
0.0529351440 -0.0146357160 1 0
0.0514714230 -0.0137427210 1 0
0.0495509320 -0.0129438020 1 0
0.0473726320 -0.0122876420 1 0
0.0451459830 -0.0118221180 1 0
0.0430658910 -0.0115901630 1 0
0.0413005070 -0.0116229030 1 0
0.0399857440 -0.0119295360 1 0
0.0392209370 -0.0124871600 1 0
0.0390644520 -0.0132370150 1 0
0.0395301980 -0.0140913600 1 0
0.0405851600 -0.0149487610 1 0
0.0421477900 -0.0157116970 1 0
0.0440888500 -0.0163011020 1 0
0.0462386670 -0.0166652380 1 0
0.0484044070 -0.0167829430 1 0
0.0503954790 -0.0166626840 1 0
0.0520486140 -0.0163383270 1 0
0.0532443570 -0.0158619980 1 0
0.0539131980 -0.0152950820 1 0
0.0540346760 -0.0146989890 1 0
0.0536331550 -0.0141275340 1 0
0.0527714370 -0.0136228650 1 0
0.0515413590 -0.0132153280 1 0
0.0500517200 -0.0129253310 1 0
0.0484160710 -0.0127651000 1 0
0.0467434940 -0.0127394630 1 0
0.0451349750 -0.0128455060 1 0
0.0436847070 -0.0130714190 1 0
0.0424815770 -0.0133958530 1 0
0.0416063080 -0.0137893570 1 0
0.0411228450 -0.0142180220 1 0
0.0410650350 -0.0146476930 1 0
0.0414234340 -0.0150475340 1 0
0.0421397960 -0.0153933300 1 0
0.0431125890 -0.0156707980 1 0
0.0442100960 -0.0158775250 1 0
0.0452865310 -0.0160220940 1 0
0.0461989350 -0.0161210230 1 0
0.0468241510 -0.0161954100 1 0
0.0470748020 -0.0162680020 1 0
0.0469108850 -0.0163600810 1 0
0.0463435020 -0.0164877400 1 0
0.0454306560 -0.0166582750 1 0
0.0442676010 -0.0168685980 1 0
0.0429755530 -0.0171070450 1 0
0.0416920870 -0.0173572820 1 0
0.0405622140 -0.0176014130 1 0
0.0397261930 -0.0178214960 1 0
0.0393021020 -0.0180006760 1 0
0.0393663210 -0.0181242270 1 0
0.0399398480 -0.0181803460 1 0
0.0409870560 -0.0181616110 1 0
0.0424246820 -0.0180674950 1 0
0.0441322920 -0.0179063500 1 0
0.0459601400 -0.0176951110 1 0
0.0477389840 -0.0174567440 1 0
0.0492966440 -0.0172171300 1 0
0.0504796680 -0.0170032140 1 0
0.0511745340 -0.0168425350 1 0
0.0513223660 -0.0167618820 1 0
0.0509222210 -0.0167829230 1 0
0.0500243000 -0.0169157820 1 0
0.0487221420 -0.0171541310 1 0
0.0471494040 -0.0174744360 1 0
0.0454751490 -0.0178393250 1 0
0.0438894100 -0.0182036920 1 0
0.0425803060 -0.0185221750 1 0
0.0417113900 -0.0187564150 1 0
0.0414050190 -0.0188802460 1 0
0.0417300970 -0.0188820640 1 0
0.0426908750 -0.0187649050 1 0
0.0442186790 -0.0185445920 1 0
0.0461727510 -0.0182461700 1 0
0.0483543230 -0.0178998920 1 0
0.0505317080 -0.0175381010 1 0
0.0524701400 -0.0171930380 1 0
0.0539611360 -0.0168946940 1 0
0.0548485070 -0.0166680510 1 0
0.0550473770 -0.0165299570 1 0
0.0545518720 -0.0164869450 1 0
0.0534308230 -0.0165353620 1 0
0.0518156810 -0.0166636650 1 0
0.0498854410 -0.0168553590 1 0
0.0478504040 -0.0170915740 1 0
0.0459340580 -0.0173532190 1 0
0.0443517450 -0.0176227800 1 0
0.0432858850 -0.0178858270 1 0
0.0428615140 -0.0181323210 1 0
0.0431289300 -0.0183574520 1 0
0.0440589330 -0.0185615120 1 0
0.0455526640 -0.0187488530 1 0
0.0474619390 -0.0189262610 1 0
0.0496100450 -0.0191007120 1 0
0.0518065000 -0.0192768650 1 0
0.0538586250 -0.0194555190 1 0
0.0555854030 -0.0196337820 1 0
0.0568343700 -0.0198065070 1 0
0.0574975960 -0.0199683490 1 0
0.0575208630 -0.0201161110 1 0
0.0569025710 -0.0202512560 1 0
0.0556854680 -0.0203823130 1 0
0.0539494990 -0.0205260990 1 0
0.0518110150 -0.0207055440 1 0
0.0494243700 -0.0209427610 1 0
0.0469779110 -0.0212495080 1 0
0.0446809630 -0.0216205910 1 0
0.0427430210 -0.0220343860 1 0
0.0413473110 -0.0224591100 1 0
0.0406228460 -0.0228600990 1 0
0.0406232310 -0.0232053070 1 0
0.0413200350 -0.0234695780 1 0
0.0426114220 -0.0236384110 1 0
0.0443384990 -0.0237095480 1 0
0.0463012860 -0.0236904560 1 0
0.0482748680 -0.0235923010 1 0
0.0500324370 -0.0234233910 1 0
0.0513747460 -0.0231856450 1 0
0.0521549840 -0.0228759640 1 0
0.0522907220 -0.0224912970 1 0
0.0517665550 -0.0220344260 1 0
0.0506343670 -0.0215177440 1 0
0.0490106760 -0.0209639870 1 0
0.0470662290 -0.0204042290 1 0
0.0450064440 -0.0198737800 1 0
0.0430458410 -0.0194068130 1 0
0.0413818660 -0.0190311890 1 0
0.0401739740 -0.0187649790 1 0
0.0395319430 -0.0186151680 1 0
0.0395141720 -0.0185779430 1 0
0.0401323480 -0.0186398880 1 0
0.0413549560 -0.0187800460 1 0
0.0431052710 -0.0189731560 1 0
0.0452585730 -0.0191933890 1 0
0.0476465970 -0.0194166720 1 0
0.0500715380 -0.0196206150 1 0
0.0523263050 -0.0197838610 1 0
0.0542167490 -0.0198872960 1 0
0.0555825570 -0.0199169810 1 0
0.0563145000 -0.0198667990 1 0
0.0563660560 -0.0197396460 1 0
0.0557566480 -0.0195473900 1 0
0.0545651310 -0.0193098880 1 0
0.0529174290 -0.0190528780 1 0
0.0509740760 -0.0188042580 1 0
0.0489180230 -0.0185889720 1 0
0.0469385510 -0.0184240340 1 0
0.0452109370 -0.0183156560 1 0
0.0438785160 -0.0182595590 1 0
0.0430430890 -0.0182438130 1 0
0.0427612850 -0.0182517640 1 0
0.0430409420 -0.0182633310 1 0
0.0438377820 -0.0182560130 1 0
0.0450566800 -0.0182074610 1 0
0.0465592500 -0.0180988080 1 0
0.0481780630 -0.0179169860 1 0
0.0497364940 -0.0176559490 1 0
0.0510687000 -0.0173175900 1 0
0.0520342120 -0.0169122900 1 0
0.0525283810 -0.0164584330 1 0
0.0524937570 -0.0159808280 1 0
0.0519321870 -0.0155086200 1 0
0.0509101320 -0.0150726030 1 0
0.0495510080 -0.0147015140 1 0
0.0480165070 -0.0144180270 1 0
0.0464838140 -0.0142355690 1 0
0.0451247590 -0.0141566530 1 0
0.0440898030 -0.0141734040 1 0
0.0434975640 -0.0142699740 1 0
0.0434288680 -0.0144254850 1 0
0.0439221600 -0.0146170480 1 0
0.0449664450 -0.0148232990 1 0
0.0464925220 -0.0150278490 1 0
0.0483710920 -0.0152211950 1 0
0.0504262250 -0.0154004830 1 0
0.0524611250 -0.0155676560 1 0
0.0542841060 -0.0157267980 1 0
0.0557274980 -0.0158818120 1 0
0.0566607560 -0.0160354550 1 0
0.0570006020 -0.0161897520 1 0
0.0567191550 -0.0163470500 1 0
0.0558492910 -0.0165108390 1 0
0.0544844700 -0.0166851370 1 0
0.0527707540 -0.0168717320 1 0
0.0508911610 -0.0170666360 1 0
0.0490438990 -0.0172584930 1 0
0.0474178250 -0.0174301850 1 0
0.0461706310 -0.0175620620 1 0
0.0454138460 -0.0176345400 1 0
0.0452049640 -0.0176296840 1 0
0.0455458830 -0.0175330440 1 0
0.0463875320 -0.0173360250 1 0
0.0476391370 -0.0170372760 1 0
0.0491787030 -0.0166420980 1 0
0.0508630330 -0.0161607880 1 0
0.0525377310 -0.0156073160 1 0
0.0540471320 -0.0149990780 1 0
0.0552446520 -0.0143577790 1 0
0.0560061170 -0.0137105210 1 0
0.0562462570 -0.0130903440 1 0
0.0559329840 -0.0125364460 1 0
0.0550923680 -0.0120934640 1 0
0.0538022040 -0.0118070570 1 0
0.0521784510 -0.0117143550 1 0
0.0503612280 -0.0118323400 1 0
0.0485046060 -0.0121501910 1 0
0.0467685020 -0.0126301180 1 0
0.0453064420 -0.0132162300 1 0
0.0442475270 -0.0138466590 1 0
0.0436798880 -0.0144639890 1 0
0.0436426290 -0.0150222030 1 0
0.0441246230 -0.0154903990 1 0
0.0450657710 -0.0158531360 1 0
0.0463614640 -0.0161070350 1 0
0.0478731870 -0.0162550560 1 0
0.0494436080 -0.0163019760 1 0
0.0509111560 -0.0162539180 1 0
0.0521219190 -0.0161212470 1 0
0.0529411250 -0.0159214060 1 0
0.0532666260 -0.0156789840 1 0
0.0530431580 -0.0154228940 1 0
0.0522732500 -0.0151822800 1 0
0.0510205080 -0.0149827980 1 0
0.0494033210 -0.0148442210 1 0
0.0475810990 -0.0147794290 1 0
0.0457380170 -0.0147941890 1 0
0.0440670040 -0.0148872490 1 0
0.0427523010 -0.0150505950 1 0
0.0419482750 -0.0152698180 1 0
0.0417557930 -0.0155246390 1 0
0.0422025040 -0.0157894770 1 0
0.0432348490 -0.0160342660 1 0
0.0447243840 -0.0162269230 1 0
0.0464858650 -0.0163390920 1 0
0.0483041800 -0.0163540720 1 0
0.0499649620 -0.0162726510 1 0
0.0512802700 -0.0161127580 1 0
0.0521040920 -0.0159029600 1 0
0.0523393300 -0.0156741150 1 0
0.0519402900 -0.0154535180 1 0
0.0509139450 -0.0152628430 1 0
0.0493226310 -0.0151191590 1 0
0.0472874650 -0.0150378720 1 0
0.0449857120 -0.0150351020 1 0
0.0426356940 -0.0151263230 1 0
0.0404720780 -0.0153210090 1 0
0.0387197680 -0.0156168550 1 0
0.0375707750 -0.0159976500 1 0
0.0371645200 -0.0164361020 1 0
0.0375730650 -0.0168996150 1 0
0.0387939410 -0.0173558930 1 0
0.0407509870 -0.0177769340 1 0
0.0433010790 -0.0181416640 1 0
0.0462454110 -0.0184372030 1 0
0.0493469410 -0.0186581150 1 0
0.0523556960 -0.0188041080 1 0
0.0550396030 -0.0188780280 1 0
0.0572126890 -0.0188852770 1 0
0.0587513460 -0.0188338250 1 0
0.0595965360 -0.0187333150 1 0
0.0597486650 -0.0185927490 1 0
0.0592623430 -0.0184180750 1 0
0.0582419670 -0.0182115790 1 0
0.0568340400 -0.0179733700 1 0
0.0552131300 -0.0177036330 1 0
0.0535641390 -0.0174046910 1 0
0.0520660820 -0.0170827830 1 0
0.0508780760 -0.0167489740 1 0
0.0501253540 -0.0164183320 1 0
0.0498864340 -0.0161070730 1 0
0.0501844690 -0.0158277720 1 0
0.0509837730 -0.0155840010 1 0
0.0521925460 -0.0153676390 1 0
0.0536742370 -0.0151615910 1 0
0.0552665520 -0.0149469020 1 0
0.0568011090 -0.0147098730 1 0
0.0581169490 -0.0144454740 1 0
0.0590689880 -0.0141570400 1 0
0.0595382030 -0.0138544490 1 0
0.0594457290 -0.0135524920 1 0
0.0587644460 -0.0132694070 1 0
0.0575220200 -0.0130247520 1 0
0.0557968240 -0.0128362510 1 0
0.0537106990 -0.0127162330 1 0
0.0514194580 -0.0126690450 1 0
0.0490997900 -0.0126907500 1 0
0.0469323640 -0.0127705520 1 0
0.0450839010 -0.0128920830 1 0
0.0436924400 -0.0130342100 1 0
0.0428573240 -0.0131727740 1 0
0.0426321780 -0.0132832180 1 0
0.0430195410 -0.0133426450 1 0
0.0439680510 -0.0133317510 1 0
0.0453740180 -0.0132384490 1 0
0.0470886740 -0.0130628530 1 0
0.0489309880 -0.0128204130 1 0
0.0507057160 -0.0125403200 1 0
0.0522265850 -0.0122597480 1 0
0.0533417880 -0.0120170610 1 0
0.0539552930 -0.0118466020 1 0
0.0540379800 -0.0117757730 1 0
0.0536265440 -0.0118236160 1 0
0.0528117800 -0.0119994750 1 0
0.0517209160 -0.0123012360 1 0
0.0504996130 -0.0127141470 1 0
0.0492964280 -0.0132113280 1 0
0.0482498050 -0.0137565110 1 0
0.0474772140 -0.0143089920 1 0
0.0470657930 -0.0148292280 1 0
0.0470644890 -0.0152823330 1 0
0.0474804650 -0.0156387190 1 0
0.0482818520 -0.0158739840 1 0
0.0494040060 -0.0159700520 1 0
0.0507553530 -0.0159175490 1 0
0.0522228510 -0.0157176700 1 0
0.0536782690 -0.0153817050 1 0
0.0549856460 -0.0149284520 1 0
0.0560121910 -0.0143819430 1 0
0.0566436720 -0.0137714000 1 0
0.0567991850 -0.0131324540 1 0
0.0564400970 -0.0125069450 1 0
0.0555739990 -0.0119393940 1 0
0.0542562610 -0.0114704520 1 0
0.0525889360 -0.0111294410 1 0
0.0507154950 -0.0109288080 1 0
0.0488106350 -0.0108632760 1 0
0.0470648260 -0.0109145520 1 0
0.0456641610 -0.0110588320 1 0
0.0447685640 -0.0112724340 1 0
0.0444931960 -0.0115330740 1 0
0.0448959070 -0.0118183630 1 0
0.0459698650 -0.0121049720 1 0
0.0476400530 -0.0123702150 1 0
0.0497659060 -0.0125956930 1 0
0.0521543780 -0.0127714690 1 0
0.0545828940 -0.0128984360 1 0
0.0568247620 -0.0129870120 1 0
0.0586704900 -0.0130526150 1 0
0.0599450940 -0.0131106060 1 0
0.0605238970 -0.0131732120 1 0
0.0603471230 -0.0132486840 1 0
0.0594316520 -0.0133411470 1 0
0.0578757740 -0.0134500070 1 0
0.0558508610 -0.0135693490 1 0
0.0535787820 -0.0136885260 1 0
0.0513023610 -0.0137948040 1 0
0.0492587360 -0.0138779310 1 0
0.0476607080 -0.0139351100 1 0
0.0466844960 -0.0139735730 1 0
0.0464589750 -0.0140085360 1 0
0.0470544140 -0.0140572030 1 0
0.0484739620 -0.0141321850 1 0
0.0506504840 -0.0142374400 1 0
0.0534471320 -0.0143677740 1 0
0.0566607100 -0.0145114940 1 0
0.0600313450 -0.0146553310 1 0
0.0632639780 -0.0147897750 1 0
0.0660634530 -0.0149124030 1 0
0.0681768340 -0.0150280850 1 0
0.0694305270 -0.0151470080 1 0
0.0697509840 -0.0152817120 1 0
0.0691647810 -0.0154433260 1 0
0.0677826760 -0.0156375010 1 0
0.0657769620 -0.0158616690 1 0
0.0633592570 -0.0161053530 1 0
0.0607605910 -0.0163539220 1 0
0.0582123300 -0.0165945520 1 0
0.0559266520 -0.0168217880 1 0
0.0540779370 -0.0170400070 1 0
0.0527886670 -0.0172614360 1 0
0.0521219140 -0.0175002710 1 0
0.0520785740 -0.0177648700 1 0
0.0525969630 -0.0180511740 1 0
0.0535561780 -0.0183405010 1 0
0.0547867470 -0.0186023600 1 0
0.0560898350 -0.0188009230 1 0
0.0572635810 -0.0189036330 1 0
0.0581323870 -0.0188896260 1 0
0.0585705800 -0.0187545350 1 0
0.0585124680 -0.0185096930 1 0
0.0579504570 -0.0181771600 1 0
0.0569296330 -0.0177840580 1 0
0.0555415690 -0.0173588830 1 0
0.0539136370 -0.0169300930 1 0
0.0521942010 -0.0165251570 1 0
0.0505396600 -0.0161680820 1 0
0.0491051770 -0.0158752990 1 0
0.0480344060 -0.0156517130 1 0
0.0474455650 -0.0154888840 1 0
0.0474169670 -0.0153661840 1 0
0.0479749100 -0.0152551470 1 0
0.0490848390 -0.0151275340 1 0
0.0506489300 -0.0149661170 1 0
0.0525142830 -0.0147736130 1 0
0.0544915270 -0.0145743880 1 0
0.0563788180 -0.0144083140 1 0
0.0579858360 -0.0143211880 1 0
0.0591545160 -0.0143562520 1 0
0.0597743370 -0.0145482440 1 0
0.0597912770 -0.0149193460 1 0
0.0592115110 -0.0154765110 1 0
0.0581003990 -0.0162100980 1 0
0.0565765620 -0.0170935180 1 0
0.0548010870 -0.0180842430 1 0
0.0529610700 -0.0191276470 1 0
0.0512471290 -0.0201639370 1 0
0.0498286450 -0.0211362170 1 0
0.0488339490 -0.0219976820 1 0
0.0483409970 -0.0227166140 1 0
0.0483783100 -0.0232775800 1 0
0.0489313180 -0.0236784020 1 0
0.0499484400 -0.0239251590 1 0
0.0513436200 -0.0240280570 1 0
0.0529971480 -0.0239989180 1 0
0.0547609640 -0.0238502270 1 0
0.0564720570 -0.0235959760 1 0
0.0579704220 -0.0232531290 1 0
0.0591155700 -0.0228411890 1 0
0.0597993400 -0.0223793900 1 0
0.0599555040 -0.0218843210 1 0
0.0595646660 -0.0213707410 1 0
0.0586524270 -0.0208550250 1 0
0.0572834190 -0.0203576060 1 0
0.0555554130 -0.0199007050 1 0
0.0535923700 -0.0195014830 1 0
0.0515332630 -0.0191655060 1 0
0.0495194680 -0.0188853550 1 0
0.0476868540 -0.0186438990 1 0
0.0461634520 -0.0184186540 1 0
0.0450669400 -0.0181858980 1 0
0.0444956010 -0.0179256680 1 0
0.0445118620 -0.0176279620 1 0
0.0451249040 -0.0172982050 1 0
0.0462815030 -0.0169587840 1 0
0.0478692890 -0.0166447340 1 0
0.0497302720 -0.0163949750 1 0
0.0516794080 -0.0162437880 1 0
0.0535223470 -0.0162166700 1 0
0.0550706610 -0.0163302110 1 0
0.0561592230 -0.0165925090 1 0
0.0566688320 -0.0170017640 1 0
0.0565488760 -0.0175431330 1 0
0.0558311230 -0.0181856450 1 0
0.0546287110 -0.0188824750 1 0
0.0531183590 -0.0195770080 1 0
0.0515091370 -0.0202133460 1 0
0.0500087560 -0.0207469250 1 0
0.0487987370 -0.0211509320 1 0
0.0480189660 -0.0214169060 1 0
0.0477542140 -0.0215510890 1 0
0.0480216270 -0.0215687380 1 0
0.0487687140 -0.0214873660 1 0
0.0498891020 -0.0213206830 1 0
0.0512496080 -0.0210765850 1 0
0.0527129730 -0.0207607750 1 0
0.0541455550 -0.0203829090 1 0
0.0554120050 -0.0199600120 1 0
0.0563693720 -0.0195148360 1 0
0.0568746580 -0.0190716560 1 0
0.0568091860 -0.0186538130 1 0
0.0561082690 -0.0182843420 1 0
0.0547810710 -0.0179868960 1 0
0.0529141850 -0.0177837870 1 0
0.0506611910 -0.0176916100 1 0
0.0482231810 -0.0177173040 1 0
0.0458240990 -0.0178559520 1 0
0.0436835460 -0.0180897340 1 0
0.0419911540 -0.0183885090 1 0
0.0408880390 -0.0187133560 1 0
0.0404589190 -0.0190228640 1 0
0.0407332260 -0.0192801720 1 0
0.0416879700 -0.0194585750 1 0
0.0432460110 -0.0195448990 1 0
0.0452737140 -0.0195412250 1 0
0.0475896460 -0.0194645220 1 0
0.0499884910 -0.0193425070 1 0
0.0522696410 -0.0192064230 1 0
0.0542557030 -0.0190842940 1 0
0.0557977610 -0.0189968270 1 0
0.0567779430 -0.0189554780 1 0
0.0571181710 -0.0189629270 1 0
0.0567910610 -0.0190171570 1 0
0.0558245650 -0.0191168500 1 0
0.0542997180 -0.0192627100 1 0
0.0523460780 -0.0194524540 1 0
0.0501360020 -0.0196726570 1 0
0.0478739010 -0.0198930480 1 0
0.0457766910 -0.0200674600 1 0
0.0440472570 -0.0201413820 1 0
0.0428482660 -0.0200623880 1 0
0.0422825210 -0.0197901320 1 0
0.0423820380 -0.0193050560 1 0
0.0431066810 -0.0186154620 1 0
0.0443520670 -0.0177619620 1 0
0.0459648400 -0.0168172110 1 0
0.0477630910 -0.0158778060 1 0
0.0495584400 -0.0150479440 1 0
0.0511753380 -0.0144203160 1 0
0.0524642870 -0.0140610810 1 0
0.0533076820 -0.0140011900 1 0
0.0536215280 -0.0142330250 1 0
0.0533604810 -0.0147123140 1 0
0.0525291180 -0.0153663390 1 0
0.0511929290 -0.0161077600 1 0
0.0494801190 -0.0168503270 1 0
0.0475709060 -0.0175217010 1 0
0.0456755930 -0.0180706830 1 0
0.0440033170 -0.0184685790 1 0
0.0427278790 -0.0187059280 1 0
0.0419639800 -0.0187871610 1 0
0.0417612460 -0.0187261120 1 0
0.0421081930 -0.0185437490 1 0
0.0429337330 -0.0182677010 1 0
0.0441056050 -0.0179315280 1 0
0.0454400260 -0.0175710420 1 0
0.0467328350 -0.0172172510 1 0
0.0477981150 -0.0168886670 1 0
0.0484904200 -0.0165868690 1 0
0.0487061290 -0.0162988180 1 0
0.0483784610 -0.0160061060 1 0
0.0474784930 -0.0156957060 1 0
0.0460225510 -0.0153650240 1 0
0.0440786770 -0.0150187510 1 0
0.0417649200 -0.0146614670 1 0
0.0392371180 -0.0142924570 1 0
0.0366712490 -0.0139061890 1 0
0.0342512210 -0.0134971330 1 0
0.0321652640 -0.0130655970 1 0
0.0305984320 -0.0126214140 1 0
0.0297112980 -0.0121832160 0 0
0.0296131060 -0.0117733340 0 0
0.0303410230 -0.0114113920 1 0
0.0318479440 -0.0111105940 1 0
0.0340032260 -0.0108783700 1 0
0.0366135770 -0.0107194490 1 0
0.0394562580 -0.0106382340 1 0
0.0423048640 -0.0106389930 1 0
0.0449419420 -0.0107244730 1 0
0.0471707060 -0.0108939840 1 0
0.0488336780 -0.0111408750 1 0
0.0498311890 -0.0114489800 1 0
0.0501291920 -0.0117900070 1 0
0.0497546510 -0.0121258970 1 0
0.0487862040 -0.0124179540 1 0
0.0473481980 -0.0126397570 1 0
0.0456068420 -0.0127874060 1 0
0.0437591490 -0.0128803310 1 0
0.0420091940 -0.0129505560 1 0
0.0405377840 -0.0130262770 1 0
0.0394770370 -0.0131194760 1 0
0.0388957000 -0.0132239500 1 0
0.0387949800 -0.0133237320 1 0
0.0391143960 -0.0134061740 1 0
0.0397477460 -0.0134712450 1 0
0.0405671790 -0.0135315340 1 0
0.0414456930 -0.0136044370 1 0
0.0422620570 -0.0137022590 1 0
0.0428886660 -0.0138252270 1 0
0.0431901790 -0.0139605880 1 0
0.0430533520 -0.0140890470 1 0
0.0424297940 -0.0141956100 1 0
0.0413569760 -0.0142785480 1 0
0.0399431490 -0.0143524490 1 0
0.0383281820 -0.0144462180 1 0
0.0366448700 -0.0145977300 1 0
0.0350010790 -0.0148445470 1 0
0.0334846390 -0.0152110030 1 0
0.0321761970 -0.0156968750 1 0
0.0311557230 -0.0162743660 1 0
0.0304994310 -0.0168947630 1 0
0.0302711040 -0.0174998400 1 0
0.0305132580 -0.0180324550 1 0
0.0312424880 -0.0184432370 1 0
0.0324475220 -0.0186922420 1 0
0.0340809310 -0.0187482470 1 0
0.0360414480 -0.0185912290 1 0
0.0381630460 -0.0182189500 1 0
0.0402315240 -0.0176522080 1 0
0.0420274290 -0.0169347330 1 0
0.0433723690 -0.0161283570 1 0
0.0441557040 -0.0153050920 1 0
0.0443354890 -0.0145372910 1 0
0.0439281840 -0.0138878210 1 0
0.0430055470 -0.0134023680 1 0
0.0416967100 -0.0131043890 1 0
0.0401777720 -0.0129928080 1 0
0.0386433760 -0.0130437960 1 0
0.0372741360 -0.0132171770 1 0
0.0362143090 -0.0134652360 1 0
0.0355614830 -0.0137410890 1 0
0.0353633590 -0.0140047860 1 0
0.0356182700 -0.0142255810 1 0
0.0362794350 -0.0143803090 1 0
0.0372630560 -0.0144522080 1 0
0.0384556110 -0.0144354470 1 0
0.0397148760 -0.0143433760 1 0
0.0408703040 -0.0142116520 1 0
0.0417371660 -0.0140904860 1 0
0.0421493650 -0.0140293770 1 0
0.0419969860 -0.0140624870 1 0
0.0412475090 -0.0141994230 1 0
0.0399423620 -0.0144212810 1 0
0.0381809240 -0.0146821220 1 0
0.0361092650 -0.0149187340 1 0
0.0339153650 -0.0150695980 1 0
0.0318171470 -0.0150974240 1 0
0.0300315660 -0.0150047160 1 0
0.0287328610 -0.0148338140 0 0
0.0280268040 -0.0146507230 0 0
0.0279552810 -0.0145207170 0 0
0.0285124720 -0.0144867180 0 0
0.0296481880 -0.0145566060 0 0
0.0312603940 -0.0147002780 1 0
0.0331959390 -0.0148567750 1 0
0.0352685190 -0.0149510530 1 0
0.0372869000 -0.0149160970 1 0
0.0390799800 -0.0147127110 1 0
0.0405089280 -0.0143396710 1 0
0.0414689100 -0.0138315860 1 0
0.0418904120 -0.0132475320 1 0
0.0417411540 -0.0126556620 1 0
0.0410215900 -0.0121183280 1 0
0.0397565770 -0.0116818020 1 0
0.0379972640 -0.0113726230 1 0
0.0358393800 -0.0111978890 1 0
0.0334433540 -0.0111457070 1 0
0.0310337020 -0.0111867420 1 0
0.0288689660 -0.0112803330 0 0
0.0271918910 -0.0113847200 0 0
0.0261788220 -0.0114676940 0 0
0.0259084520 -0.0115155860 0 0
0.0263574160 -0.0115387300 0 0
0.0274082360 -0.0115686380 0 0
0.0288550840 -0.0116436440 0 0
0.0304193370 -0.0117876010 1 0
0.0317964590 -0.0119928910 1 0
0.0327280360 -0.0122184210 1 0
0.0330648340 -0.0124044880 1 0
0.0327917820 -0.0124947190 1 0
0.0320100160 -0.0124530330 1 0
0.0308888740 -0.0122723910 1 0
0.0296088620 -0.0119779060 0 0
0.0283187710 -0.0116227590 0 0
0.0271225640 -0.0112731680 0 0
0.0260939550 -0.0109865730 0 0
0.0252996000 -0.0107955910 0 0
0.0248104130 -0.0107063070 0 0
0.0246968800 -0.0107072160 0 0
0.0250204980 -0.0107787580 0 0
0.0258290360 -0.0108973430 0 0
0.0271426320 -0.0110344490 0 0
0.0289183640 -0.0111550450 0 0
0.0310186470 -0.0112189750 1 0
0.0332265460 -0.0111857090 1 0
0.0353050410 -0.0110213440 1 0
0.0370503040 -0.0107076910 1 0
0.0383086810 -0.0102512430 1 0
0.0389722450 -0.0096864930 1 0
0.0389732660 -0.0090712050 1 0
0.0382807560 -0.0084766840 1 0
0.0369022090 -0.0079761280 1 0
0.0348948420 -0.0076322980 1 0
0.0323743830 -0.0074867690 1 0
0.0295046560 -0.0075532400 0 0
0.0264722600 -0.0078161940 0 0
0.0234654060 -0.0082361680 0 0
0.0206668750 -0.0087614860 0 0
0.0182557480 -0.0093421080 0 0
0.0164058470 -0.0099387910 0 0
0.0152721830 -0.0105239110 0 0
0.0149670790 -0.0110764890 0 0
0.0155348780 -0.0115765980 0 0
0.0169335560 -0.0120011810 0 0
0.0190306260 -0.0123197150 0 0
0.0216183770 -0.0124894440 0 0
0.0244452860 -0.0124539730 0 0
0.0272524110 -0.0121507290 0 0
0.0298007780 -0.0115293490 0 0
0.0318805720 -0.0105741760 1 0
0.0333052820 -0.0093170010 1 0
0.0339091050 -0.0078320610 1 0
0.0335728630 -0.0062208030 1 0
0.0322798700 -0.0046000560 1 0
0.0301579770 -0.0030953120 1 0
0.0274609420 -0.0018285390 0 0
0.0245030230 -0.0008959540 0 0
0.0216048210 -0.0003463900 0 0
0.0190740290 -0.0001744570 0 0
0.0171930020 -0.0003297930 0 0
0.0161896550 -0.0007303510 0 0
0.0162011800 -0.0012705630 0 0
0.0172483440 -0.0018289020 0 0
0.0192302220 -0.0022829880 0 0
0.0219476880 -0.0025310820 0 0
0.0251519320 -0.0025117150 0 0
0.0285884610 -0.0022136010 0 0
0.0320096980 -0.0016708330 1 0
0.0351660330 -0.0009434770 1 0
0.0378059730 -0.0000926740 1 0
0.0397004650 0.0008337660 1 0
0.0406805180 0.0017958410 1 0
0.0406676340 0.0027440890 1 0
0.0396865130 0.0036077490 1 0
0.0378620690 0.0042992070 1 0
0.0354058280 0.0047349280 1 0
0.0325934110 0.0048639260 1 0
0.0297323040 0.0046894110 0 0
0.0271205580 0.0042729190 0 0
0.0250011630 0.0037208470 0 0
0.0235239540 0.0031625310 0 0
0.0227312910 0.0027304600 0 0
0.0225716370 0.0025471940 0 0
0.0229216080 0.0027164010 0 0
0.0235960390 0.0033123430 0 0
0.0243576520 0.0043648770 0 0
0.0249541830 0.0058439290 0 0
0.0251777980 0.0076535440 0 0
0.0249050560 0.0096460700 0 0
0.0240916260 0.0116576890 0 0
0.0227441910 0.0135516690 0 0
0.0209112560 0.0152496900 0 0
0.0187076470 0.0167403550 0 0
0.0163464490 0.0180678390 0 0
0.0141321680 0.0193106180 0 0
0.0123914140 0.0205581650 0 0
0.0113683250 0.0218928850 0 0
0.0111402110 0.0233848040 0 0
0.0115975810 0.0250947820 0 0
0.0125028840 0.0270708060 0 0
0.0135904190 0.0293312030 0 0
0.0146286150 0.0318449920 0 1
0.0154095260 0.0345236110 0 1
0.0157257970 0.0372339500 0 1
0.0154141620 0.0398334340 0 1
0.0144473380 0.0422120160 0 1
0.0129650280 0.0443168860 0 1
0.0111875690 0.0461484810 0 1
0.0092951820 0.0477398250 0 1
0.0073890530 0.0491408360 0 1
0.0055406090 0.0504169050 0 1
0.0038456400 0.0516521460 0 1
0.0024326490 0.0529438240 0 1
0.0014466480 0.0543861700 0 1
0.0010380460 0.0560513710 0 1
0.0013497170 0.0579769830 0 1
0.0024863040 0.0601669710 0 1
0.0044771550 0.0626061480 0 1
0.0072551020 0.0652765720 0 1
0.0106562860 0.0681667150 0 1
0.0144414920 0.0712797830 0 1
0.0183434320 0.0746466580 0 1
0.0221238130 0.0783312120 0 1
0.0255985440 0.0824165660 0 1
0.0286060900 0.0869782110 0 1
0.0309545690 0.0920547090 1 1
0.0324201540 0.0976201490 1 1
0.0328176810 0.1035642640 1 1
0.0320803480 0.1096959210 1 1
0.0302806270 0.1157770810 1 1
0.0275925970 0.1215658960 0 1
0.0242413000 0.1268445570 0 1
0.0204687210 0.1314371920 0 1
0.0165109880 0.1352383280 0 1
0.0125764450 0.1382576180 0 1
0.0088290870 0.1406621030 0 1
0.0053772700 0.1427808350 0 1
0.0022605190 0.1450467060 0 1
-0.0005538860 0.1478904620 0 1
-0.0031468840 0.1516379560 0 1
-0.0056059500 0.1564531530 0 1
-0.0079864810 0.1623274180 0 1
-0.0102863910 0.1690924190 0 1
-0.0124462470 0.1764494960 0 1
-0.0143710420 0.1840307690 0 1
-0.0159369710 0.1914980640 0 1
-0.0169753090 0.1986471950 0 1
-0.0172837910 0.2054646150 0 1
-0.0166963530 0.2121066540 0 1
-0.0151639800 0.2188114340 0 1
-0.0127715690 0.2257826860 0 1
-0.0096784740 0.2330930920 0 1
-0.0060475110 0.2406416410 0 1
-0.0020238370 0.2481798640 0 1
0.0022462540 0.2554024590 0 1
0.0066044710 0.2620674480 0 1
0.0108879430 0.2680832920 0 1
0.0149216450 0.2735163930 0 1
0.0184790100 0.2785285380 0 1
0.0212502960 0.2832931410 0 1
0.0228909800 0.2879324620 0 1
0.0231798730 0.2924901860 0 1
0.0222056670 0.2969356310 0 1
0.0204372060 0.3011924890 0 1
0.0186032120 0.3051794900 0 1
0.0174222700 0.3088427070 0 1
0.0173020160 0.3121701570 0 1
0.0181752010 0.3151960790 0 1
0.0195956590 0.3179999980 0 1
0.0210289140 0.3206982700 0 1
0.0220801550 0.3234276110 0 1
0.0224424850 0.3263211700 0 1
0.0216456290 0.3294759470 0 1
0.0189209190 0.3329132490 0 1
0.0134019490 0.3365433590 0 1
0.0045792650 0.3401582640 0 1
-0.0072870280 0.3434721290 0 1
-0.0210679770 0.3461963890 0 1
-0.0350259020 0.3481097250 -1 1
-0.0472603530 0.3490937350 -1 1
-0.0561406270 0.3491299240 -1 1
-0.0606477360 0.3482697790 -1 1
-0.0606160300 0.3465993010 -1 1
-0.0567985160 0.3442137960 -1 1
-0.0506413610 0.3412036840 -1 1
-0.0438115160 0.3376590700 -1 1
-0.0377391300 0.3337099940 -1 1
-0.0334140130 0.3295803030 -1 1
-0.0314158390 0.3255867950 -1 1
-0.0319755470 0.3220465810 -1 1
-0.0349343520 0.3191433110 -1 1
-0.0396450220 0.3168443110 -1 1
-0.0449498320 0.3149144300 -1 1
-0.0493304210 0.3129976100 -1 1
-0.0512224410 0.3107074030 -1 1
-0.0493887450 0.3076891170 -1 1
-0.0432001030 0.3036522730 -1 1
-0.0327194880 0.2983952310 -1 1
-0.0186032120 0.2918380570 0 1
-0.0019223590 0.2840530130 0 1
0.0160082860 0.2752706370 0 1
0.0337812660 0.2658541010 1 1
0.0500411890 0.2562475390 1 1
0.0636162710 0.2469058870 1 1
0.0736229200 0.2382213580 1 1
0.0795170340 0.2304685150 1 1
0.0810549030 0.2237787290 1 1
0.0781912200 0.2181433480 1 1
0.0710174270 0.2134473320 1 1
0.0597991480 0.2095272360 1 1
0.0450672100 0.2062249450 1 1
0.0276881800 0.2034042960 0 1
0.0088748230 0.2009255710 0 1
-0.0098721020 0.1986112820 0 1
-0.0268923330 0.1962441210 0 1
-0.0405790810 0.1936005500 -1 1
-0.0496567800 0.1904906950 -1 1
-0.0534051270 0.1867873270 -1 1
-0.0517107890 0.1824492780 -1 1
-0.0449962790 0.1775398450 -1 1
-0.0341837840 0.1722279700 -1 1
-0.0207171360 0.1667585420 0 1
-0.0064645750 0.1613861010 0 1
0.0066334060 0.1562944760 0 1
0.0170463240 0.1515549090 0 1
0.0239955440 0.1471535710 0 1
0.0274957300 0.1430570410 0 1
0.0281316970 0.1392609360 0 1
0.0267271220 0.1358043450 0 1
0.0240684030 0.1327621870 0 1
0.0207612720 0.1302144030 0 1
0.0171993850 0.1281890040 0 1
0.0135885680 0.1266130650 0 1
0.0100005890 0.1253187770 0 1
0.0064728140 0.1241005100 0 1
0.0031544520 0.1227677580 0 1
0.0004183250 0.1211574640 0 1
-0.0011745880 0.1191215750 0 1
-0.0010596910 0.1165189550 0 1
0.0011293660 0.1132226980 0 1
0.0054520910 0.1091467590 0 1
0.0116354980 0.1042899350 0 1
0.0190856610 0.0987761350 0 1
0.0269424870 0.0928610870 0 1
0.0342017080 0.0868906130 1 1
0.0399094300 0.0812227950 1 1
0.0433971070 0.0761489390 1 1
0.0444459430 0.0718480690 1 1
0.0432673970 0.0683862320 1 1
0.0403364840 0.0657498600 1 1
0.0362168840 0.0638933340 1 1
0.0314534660 0.0627737800 1 1
0.0265356530 0.0623475470 0 1
0.0219107340 0.0625309730 0 1
0.0179889660 0.0631627290 0 1
0.0151011210 0.0640017810 0 1
0.0134467170 0.0647604570 0 1
0.0130747110 0.0651503170 0 1
0.0138805850 0.0649175950 0 1
0.0155988950 0.0638564010 0 1
0.0178134820 0.0618104380 0 1
0.0200293480 0.0586833500 0 1
0.0218229680 0.0544643820 0 1
0.0230137620 0.0492674370 0 1
0.0237435220 0.0433706040 0 1
0.0244243440 0.0372145990 0 1
0.0256641110 0.0313233650 0 1
0.0282531980 0.0261809000 0 0
0.0330773660 0.0221540640 1 0
0.0407810830 0.0194993070 1 0
0.0512974510 0.0183872100 1 0
0.0635976380 0.0188669620 1 0
0.0758797720 0.0207886840 1 0
0.0861019570 0.0237685500 1 0
0.0925876690 0.0272440940 1 0
0.0944508870 0.0305930240 1 1
0.0916913850 0.0332557290 1 1
0.0849808480 0.0348137990 1 1
0.0753540350 0.0350145830 1 1
0.0640109000 0.0337685380 1 1
0.0522196710 0.0311442760 1 1
0.0412266360 0.0273607300 1 0
0.0321807250 0.0227803040 1 0
0.0260806480 0.0179110220 0 0
0.0236635640 0.0133815680 0 0
0.0252220400 0.0098374630 0 0
0.0304917600 0.0077798990 1 0
0.0387318930 0.0074382270 1 0
0.0489340350 0.0087454420 1 0
0.0600155450 0.0114055310 1 0
0.0709507680 0.0149848470 1 0
0.0808543410 0.0189770920 1 0
0.0889799090 0.0228492490 1 0
0.0946023760 0.0260981790 1 0
0.0968728100 0.0283171250 1 0
0.0948342730 0.0292382310 1 0
0.0877399260 0.0287306720 1 0
0.0755885380 0.0267781090 1 0
0.0595242950 0.0234740280 1 0
0.0417601170 0.0190431220 1 0
0.0250271190 0.0138636810 0 0
0.0118535280 0.0084577560 0 0
0.0040111070 0.0034238050 0 0
0.0023264480 -0.0006862500 0 0
0.0068263160 -0.0034983300 0 0
0.0170006690 -0.0048898350 0 0
0.0319910340 -0.0049759870 1 0
0.0506643470 -0.0040388820 1 0
0.0716192910 -0.0024566490 1 0
0.0931936570 -0.0006573010 1 0
0.1135620740 0.0009276340 1 0
0.1309769150 0.0019305850 1 0
0.1440707150 0.0021162360 1 0
0.1520568540 0.0014194560 1 0
0.1547659160 -0.0000609231 1 0
0.1525866350 -0.0021133290 1 0
0.1463724670 -0.0044945540 1 0
0.1372975900 -0.0070072970 1 0
0.1266339940 -0.0095459080 1 0
0.1154942460 -0.0121044950 1 0
0.1046475110 -0.0147515160 1 0
0.0944879380 -0.0175771900 1 0
0.0851522800 -0.0206345370 1 0
0.0767026880 -0.0239040790 1 0
0.0692372160 -0.0272895880 1 0
0.0628366030 -0.0306258270 1 -1
0.0574030840 -0.0336959460 1 -1
0.0525597680 -0.0362848080 1 -1
0.0477714540 -0.0382669860 1 -1
0.0426962560 -0.0396724850 1 -1
0.0375265820 -0.0406756370 1 -1
0.0330040580 -0.0415141790 1 -1
0.0300724530 -0.0423908780 1 -1
0.0294480480 -0.0434038890 0 -1
0.0313727710 -0.0445261920 1 -1
0.0355847330 -0.0456366100 1 -1
0.0414217810 -0.0465863220 1 -1
0.0480037460 -0.0472639060 1 -1
0.0544470320 -0.0476259150 1 -1
0.0600334710 -0.0476898290 1 -1
0.0642738740 -0.0475057380 1 -1
0.0668781270 -0.0471232210 1 -1
0.0677016660 -0.0465691960 1 -1
0.0667280510 -0.0458511850 1 -1
0.0640858270 -0.0449874820 1 -1
0.0600619830 -0.0440442910 1 -1
0.0550981520 -0.0431514970 1 -1
0.0497669470 -0.0424856460 1 -1
0.0446836180 -0.0422294700 1 -1
0.0403329750 -0.0425249550 1 -1
0.0369181530 -0.0434396930 1 -1
0.0343705970 -0.0449602660 1 -1
0.0325060700 -0.0470040880 1 -1
0.0311433360 -0.0494284370 1 -1
0.0300531250 -0.0520346750 1 -1
0.0288530310 -0.0545892420 0 -1
0.0270705200 -0.0568672550 0 -1
0.0243949900 -0.0586915660 0 -1
0.0209047430 -0.0599527140 0 -1
0.0170749030 -0.0606275950 0 -1
0.0135767700 -0.0607940170 0 -1
0.0110089190 -0.0606037110 0 -1
0.0096995020 -0.0602109480 0 -1
0.0096756870 -0.0597159650 0 -1
0.0107898470 -0.0591680610 0 -1
0.0128620600 -0.0585979390 0 -1
0.0157096630 -0.0580254950 0 -1
0.0190854350 -0.0574400350 0 -1
0.0226308820 -0.0567902100 0 -1
0.0258757310 -0.0560119160 0 -1
0.0282450640 -0.0550886250 0 -1
0.0290865540 -0.0541003330 0 -1
0.0277664450 -0.0532106660 0 -1
0.0238443170 -0.0525959170 0 -1
0.0173135670 -0.0523779400 0 -1
0.0088277530 -0.0526098530 0 -1
-0.0002885290 -0.0533057510 0 -1
-0.0083820890 -0.0544774290 0 -1
-0.0140210550 -0.0561519070 0 -1
-0.0164227120 -0.0583565190 0 -1
-0.0155469040 -0.0610685790 0 -1
-0.0119195460 -0.0641522610 0 -1
-0.0064163050 -0.0673295950 0 -1
-0.0001531440 -0.0702212180 0 -1
0.0056003620 -0.0724566900 0 -1
0.0096782910 -0.0738166430 0 -1
0.0114390100 -0.0743277060 0 -1
0.0110539320 -0.0742312930 0 -1
0.0094001030 -0.0738385660 0 -1
0.0076022070 -0.0733800060 0 -1
0.0065018180 -0.0729435800 0 -1
0.0063456000 -0.0725048790 0 -1
0.0068288840 -0.0719964770 0 -1
0.0074005280 -0.0713716810 0 -1
0.0075936250 -0.0706394640 0 -1
0.0071897000 -0.0698601260 0 -1
0.0061828090 -0.0691129620 0 -1
0.0046611340 -0.0684654620 0 -1
0.0027532990 -0.0679655170 0 -1
0.0006699740 -0.0676547830 0 -1
-0.0012457820 -0.0675828840 0 -1
-0.0025326680 -0.0678039910 0 -1
-0.0026928220 -0.0683609270 0 -1
-0.0013230080 -0.0692789090 0 -1
0.0017329310 -0.0705790310 0 -1
0.0062795770 -0.0722939690 0 -1
0.0118051190 -0.0744567510 0 -1
0.0176954720 -0.0770594800 0 -1
0.0235195480 -0.0800184470 0 -1
0.0291460370 -0.0831786720 0 -1
0.0345422500 -0.0863487840 1 -1
0.0393867310 -0.0893402300 1 -1
0.0428018910 -0.0920010620 1 -1
0.0434363010 -0.0942379280 1 -1
0.0399034890 -0.0960098170 1 -1
0.0313549450 -0.0972909630 1 -1
0.0178805910 -0.0980319410 0 -1
0.0005750130 -0.0981515180 0 -1
-0.0186684940 -0.0975628800 0 -1
-0.0374973580 -0.0962156910 -1 -1
-0.0535194250 -0.0941320770 -1 -1
-0.0647989210 -0.0914194270 -1 -1
-0.0703059070 -0.0882575920 -1 -1
-0.0700875530 -0.0848752120 -1 -1
-0.0650646650 -0.0815269400 -1 -1
-0.0566081890 -0.0784663430 -1 -1
-0.0461351460 -0.0759116690 -1 -1
-0.0348686130 -0.0740186690 -1 -1
-0.0237789260 -0.0728706120 0 -1
-0.0136315730 -0.0724775980 0 -1
-0.0050481860 -0.0727777520 0 -1
0.0014607590 -0.0736464030 0 -1
0.0055002200 -0.0749206380 0 -1
0.0068464250 -0.0764343910 0 -1
0.0055373480 -0.0780500060 0 -1
0.0019382310 -0.0796737830 0 -1
-0.0032645430 -0.0812509060 0 -1
-0.0091624260 -0.0827484980 0 -1
-0.0148173110 -0.0841455030 0 -1
-0.0194869000 -0.0854329680 0 -1
-0.0227671340 -0.0866065980 0 -1
-0.0245827220 -0.0876458070 0 -1
-0.0250745450 -0.0884996040 0 -1
-0.0244866980 -0.0890978980 0 -1
-0.0231016210 -0.0893843540 0 -1
-0.0212190030 -0.0893505900 0 -1
-0.0191791680 -0.0890522220 0 -1
-0.0174075660 -0.0885992240 0 -1
-0.0164023850 -0.0881237240 0 -1
-0.0166214780 -0.0877363480 0 -1
-0.0183336960 -0.0874907440 0 -1
-0.0215356970 -0.0873748320 0 -1
-0.0259666410 -0.0873311480 0 -1
-0.0311835780 -0.0872927210 -1 -1
-0.0366475250 -0.0872168820 -1 -1
-0.0417921260 -0.0871033140 -1 -1
-0.0460814290 -0.0869906860 -1 -1
-0.0490780260 -0.0869373680 -1 -1
-0.0505092920 -0.0869995250 -1 -1
-0.0502931630 -0.0872190950 -1 -1
-0.0485158770 -0.0876251520 -1 -1
-0.0453891220 -0.0882386850 -1 -1
-0.0412132580 -0.0890668980 -1 -1
-0.0363586820 -0.0900890500 -1 -1
-0.0312589760 -0.0912507110 -1 -1
-0.0263929500 -0.0924730100 0 -1
-0.0222385530 -0.0936665810 0 -1
-0.0192070820 -0.0947429940 0 -1
-0.0175795660 -0.0956273780 0 -1
-0.0174608810 -0.0962740980 0 -1
-0.0187669040 -0.0966786480 0 -1
-0.0212606590 -0.0968776350 0 -1
-0.0246249740 -0.0969364000 0 -1
-0.0285273400 -0.0969319670 0 -1
-0.0326429680 -0.0969397610 -1 -1
-0.0366403260 -0.0970260170 -1 -1
-0.0401644550 -0.0972427680 -1 -1
-0.0428579210 -0.0976231330 -1 -1
-0.0444265890 -0.0981769450 -1 -1
-0.0447157190 -0.0988873480 -1 -1
-0.0437547280 -0.0997094720 -1 -1
-0.0417502110 -0.1005732310 -1 -1
-0.0390301110 -0.1013915810 -1 -1
-0.0359637750 -0.1020725610 -1 -1
-0.0328931000 -0.1025304330 -1 -1
-0.0301012600 -0.1026921180 -1 -1
-0.0278315090 -0.1025000400 0 -1
-0.0263391510 -0.1019159040 0 -1
-0.0259129760 -0.1009273500 0 -1
-0.0268103630 -0.0995531470 0 -1
-0.0291434300 -0.0978394300 0 -1
-0.0328185390 -0.0958463840 -1 -1
-0.0375703630 -0.0936374730 -1 -1
-0.0430241730 -0.0912849680 -1 -1
-0.0487131360 -0.0888891870 -1 -1
-0.0540725380 -0.0865912130 -1 -1
-0.0584852600 -0.0845617680 -1 -1
-0.0613935030 -0.0829694020 -1 -1
-0.0624174800 -0.0819459110 -1 -1
-0.0614213040 -0.0815632610 -1 -1
-0.0585130390 -0.0818248850 -1 -1
-0.0540024310 -0.0826683630 -1 -1
-0.0483418690 -0.0839764290 -1 -1
-0.0420558430 -0.0855937350 -1 -1
-0.0356628060 -0.0873473720 -1 -1
-0.0296173200 -0.0890692990 0 -1
-0.0242991080 -0.0906163870 0 -1
-0.0200325690 -0.0918841950 0 -1
-0.0170909130 -0.0928166460 0 -1
-0.0156644370 -0.0934139110 0 -1
-0.0158196660 -0.0937321740 0 -1
-0.0174862160 -0.0938682040 0 -1
-0.0204754750 -0.0939336060 0 -1
-0.0245094290 -0.0940310190 0 -1
-0.0292471010 -0.0942391440 0 -1
-0.0343105300 -0.0946055920 -1 -1
-0.0393082430 -0.0951440780 -1 -1
-0.0438548600 -0.0958342010 -1 -1
-0.0475981080 -0.0966251150 -1 -1
-0.0502599270 -0.0974449680 -1 -1
-0.0516771770 -0.0982147430 -1 -1
-0.0518224400 -0.0988620990 -1 -1
-0.0508003520 -0.0993315160 -1 -1
-0.0488247200 -0.0995895310 -1 -1
-0.0461813130 -0.0996255100 -1 -1
-0.0431863820 -0.0994492850 -1 -1
-0.0401554230 -0.0990870780 -1 -1
-0.0373848260 -0.0985755480 -1 -1
-0.0351361690 -0.0979531200 -1 -1
-0.0336161000 -0.0972512760 -1 -1
-0.0329539470 -0.0964915090 -1 -1
-0.0331820770 -0.0956893620 -1 -1
-0.0342233210 -0.0948599170 -1 -1
-0.0358943680 -0.0940198480 -1 -1
-0.0379380390 -0.0931878360 -1 -1
-0.0400811990 -0.0923869570 -1 -1
-0.0420903760 -0.0916483780 -1 -1
-0.0437977940 -0.0910126480 -1 -1
-0.0450938200 -0.0905251300 -1 -1
-0.0459016950 -0.0902250860 -1 -1
-0.0461588110 -0.0901329160 -1 -1
-0.0458212530 -0.0902420050 -1 -1
-0.0448830560 -0.0905177890 -1 -1
-0.0433859280 -0.0909030500 -1 -1
-0.0414128660 -0.0913287060 -1 -1
-0.0390831310 -0.0917290760 -1 -1
-0.0365586630 -0.0920581600 -1 -1
-0.0340483270 -0.0923006420 -1 -1
-0.0317924380 -0.0924709220 -1 -1
-0.0300266110 -0.0925995010 -1 -1
-0.0289408920 -0.0927157400 0 -1
-0.0286514220 -0.0928378630 0 -1
-0.0291867300 -0.0929729710 0 -1
-0.0304821520 -0.0931225640 -1 -1
-0.0323824930 -0.0932886110 -1 -1
-0.0346559170 -0.0934769510 -1 -1
-0.0370188070 -0.0936959480 -1 -1
-0.0391710660 -0.0939505390 -1 -1
-0.0408378360 -0.0942344510 -1 -1
-0.0418073370 -0.0945240760 -1 -1
-0.0419556910 -0.0947764750 -1 -1
-0.0412561840 -0.0949329070 -1 -1
-0.0397730750 -0.0949283840 -1 -1
-0.0376424520 -0.0947059430 -1 -1
-0.0350483850 -0.0942312860 -1 -1
-0.0322018810 -0.0935020510 -1 -1
-0.0293237870 -0.0925483970 0 -1
-0.0266315420 -0.0914255860 0 -1
-0.0243294240 -0.0902020340 0 -1
-0.0225967590 -0.0889471150 0 -1
-0.0215672720 -0.0877221850 0 -1
-0.0213028160 -0.0865763840 0 -1
-0.0217764590 -0.0855467680 0 -1
-0.0228776370 -0.0846611130 0 -1
-0.0244352880 -0.0839411050 0 -1
-0.0262420990 -0.0834028450 0 -1
-0.0280692610 -0.0830527310 0 -1
-0.0296762280 -0.0828813190 0 -1
-0.0308264120 -0.0828609110 -1 -1
-0.0313179000 -0.0829496390 -1 -1
-0.0310262510 -0.0830991150 -1 -1
-0.0299337930 -0.0832615630 0 -1
-0.0281196650 -0.0833952410 0 -1
-0.0257210720 -0.0834678020 0 -1
-0.0228983610 -0.0834561720 0 -1
-0.0198156130 -0.0833426010 0 -1
-0.0166283210 -0.0831095850 0 -1
-0.0134772590 -0.0827373320 0 -1
-0.0104929830 -0.0822046850 0 -1
-0.0078046520 -0.0814916080 0 -1
-0.0055407790 -0.0805818650 0 -1
-0.0038150530 -0.0794659350 0 -1
-0.0027004230 -0.0781438990 0 -1
-0.0022060930 -0.0766282710 0 -1
-0.0022754660 -0.0749480620 0 -1
-0.0028082100 -0.0731538850 0 -1
-0.0036873910 -0.0713201070 0 -1
-0.0047913910 -0.0695395390 0 -1
-0.0059927850 -0.0679104300 0 -1
-0.0071575700 -0.0665202700 0 -1
-0.0081451670 -0.0654320380 0 -1
-0.0088038030 -0.0646753660 0 -1
-0.0089747050 -0.0642426230 0 -1
-0.0085282690 -0.0640912070 0 -1
-0.0074260290 -0.0641538820 0 -1
-0.0057685610 -0.0643551540 0 -1
-0.0037972700 -0.0646274010 0 -1
-0.0018472900 -0.0649194940 0 -1
-0.0002645140 -0.0651938920 0 -1
0.0006878670 -0.0654164810 0 -1
0.0008950670 -0.0655500150 0 -1
0.0004032350 -0.0655579740 0 -1
-0.0006141490 -0.0654154900 0 -1
-0.0019137730 -0.0651185950 0 -1
-0.0032421710 -0.0646844250 0 -1
-0.0043777400 -0.0641418620 0 -1
-0.0051480990 -0.0635203950 0 -1
-0.0054318600 -0.0628461220 0 -1
-0.0051553330 -0.0621454530 0 -1
-0.0042915130 -0.0614493380 0 -1
-0.0028676830 -0.0607917460 0 -1
-0.0009761260 -0.0602023550 0 -1
0.0012328470 -0.0596972550 0 -1
0.0035839810 -0.0592719130 0 -1
0.0059129490 -0.0589002470 0 -1
0.0080789220 -0.0585411510 0 -1
0.0099563130 -0.0581494640 0 -1
0.0114254670 -0.0576869430 0 -1
0.0123769210 -0.0571302370 0 -1
0.0127312800 -0.0564754470 0 -1
0.0124640780 -0.0557407530 0 -1
0.0116211260 -0.0549670360 0 -1
0.0103178650 -0.0542135830 0 -1
0.0087238530 -0.0535462210 0 -1
0.0070355980 -0.0530185540 0 -1
0.0054426660 -0.0526524430 0 -1
0.0040906090 -0.0524285650 0 -1
0.0030469010 -0.0522944560 0 -1
0.0022924250 -0.0521862300 0 -1
0.0017596920 -0.0520523170 0 -1
0.0013978900 -0.0518687000 0 -1
0.0012149910 -0.0516406060 0 -1
0.0012708990 -0.0513917150 0 -1
0.0016373640 -0.0511475740 0 -1
0.0023556040 -0.0509218370 0 -1
0.0034116400 -0.0507104700 0 -1
0.0047321200 -0.0504931370 0 -1
0.0061943190 -0.0502382280 0 -1
0.0076442560 -0.0499097450 0 -1
0.0089183820 -0.0494754530 0 -1
0.0098652060 -0.0489142830 0 -1
0.0103653120 -0.0482205610 0 -1
0.0103478240 -0.0474044880 0 -1
0.0098018410 -0.0464893720 0 -1
0.0087842980 -0.0455060910 0 -1
0.0074201510 -0.0444870350 0 -1
0.0058843340 -0.0434636110 0 -1
0.0043678760 -0.0424682520 0 -1
0.0030478910 -0.0415366660 0 -1
0.0020738180 -0.0407062930 0 -1
0.0015602660 -0.0400113210 0 -1
0.0015717300 -0.0394769740 0 -1
0.0021020090 -0.0391145650 0 -1
0.0030663420 -0.0389173420 0 -1
0.0043167020 -0.0388593560 0 -1
0.0056735480 -0.0389011680 0 -1
0.0069644010 -0.0390011420 0 -1
0.0080589710 -0.0391245520 0 -1
0.0088772770 -0.0392438400 0 -1
0.0093583810 -0.0393311170 0 -1
0.0094263690 -0.0393515180 0 -1
0.0090016510 -0.0392663980 0 -1
0.0080496440 -0.0390458680 0 -1
0.0066185580 -0.0386803830 0 -1
0.0048413370 -0.0381828010 0 -1
0.0029161360 -0.0375818670 0 -1
0.0010858500 -0.0369134290 0 -1
-0.0003853900 -0.0362143450 0 -1
-0.0012512490 -0.0355206380 0 -1
-0.0013303500 -0.0348689410 0 -1
-0.0005394940 -0.0342985340 0 -1
0.0010956000 -0.0338507870 0 -1
0.0034464540 -0.0335643260 0 -1
0.0062995200 -0.0334664000 0 -1
0.0093773470 -0.0335620440 0 -1
0.0123561260 -0.0338250100 0 -1
0.0148933500 -0.0341972070 0 -1
0.0166852690 -0.0345995680 0 -1
0.0175371080 -0.0349487040 0 -1
0.0174012440 -0.0351714200 0 -1
0.0163634960 -0.0352139000 0 -1
0.0145986090 -0.0350463850 0 -1
0.0123264260 -0.0346648020 0 -1
0.0097808920 -0.0340900380 0 -1
0.0071859320 -0.0333645820 0 -1
0.0047370800 -0.0325464140 0 -1
0.0025963170 -0.0317019110 0 -1
0.0008974640 -0.0309007630 0 -1
-0.0002517970 -0.0302134020 0 -1
-0.0007789730 -0.0297076010 0 0
-0.0006609350 -0.0294402220 0 0
0.0000683018 -0.0294437110 0 0
0.0013182440 -0.0297115800 0 0
0.0029409760 -0.0301892960 0 -1
0.0047263620 -0.0307758680 0 -1
0.0064120420 -0.0313388810 0 -1
0.0077269920 -0.0317417640 0 -1
0.0084564520 -0.0318765930 0 -1
0.0084886160 -0.0316920340 0 -1
0.0078181640 -0.0312072700 0 -1
0.0065205780 -0.0305072130 0 -1
0.0047238310 -0.0297207560 0 0
0.0025872250 -0.0289907790 0 0
0.0002882930 -0.0284459990 0 0
-0.0019794950 -0.0281798970 0 0
-0.0040071250 -0.0282386330 0 0
-0.0055865800 -0.0286191800 0 0
-0.0065427730 -0.0292763110 0 0
-0.0067610560 -0.0301343690 0 -1
-0.0061993280 -0.0311013310 0 -1
-0.0048889310 -0.0320840270 0 -1
-0.0029279290 -0.0330004440 0 -1
-0.0004655550 -0.0337841210 0 -1
0.0023174610 -0.0343815520 0 -1
0.0052184440 -0.0347487060 0 -1
0.0080054330 -0.0348501230 0 -1
0.0104111150 -0.0346595360 0 -1
0.0121540090 -0.0341623050 0 -1
0.0129851960 -0.0333625090 0 -1
0.0127351100 -0.0322937140 0 -1
0.0113489280 -0.0310250910 0 -1
0.0089139650 -0.0296550230 0 0
0.0056635580 -0.0282938680 0 0
0.0019336840 -0.0270437440 0 0
-0.0019114220 -0.0259812740 0 0
-0.0055378490 -0.0251465940 0 0
-0.0086655470 -0.0245414160 0 0
-0.0110744310 -0.0241366760 0 0
-0.0126104190 -0.0238863280 0 0
-0.0131940430 -0.0237414660 0 0
-0.0128292880 -0.0236599320 0 0
-0.0116082470 -0.0236089860 0 0
-0.0097029750 -0.0235603010 0 0
-0.0073378830 -0.0234805210 0 0
-0.0047487240 -0.0233267010 0 0
-0.0021452710 -0.0230537060 0 0
0.0003094650 -0.0226287260 0 0
0.0025027070 -0.0220422850 0 0
0.0043641510 -0.0213117790 0 0
0.0058545660 -0.0204807490 0 0
0.0069558400 -0.0196159930 0 0
0.0076638590 -0.0188007050 0 0
0.0079861170 -0.0181222500 0 0
0.0079449370 -0.0176571070 0 0
0.0075804890 -0.0174580360 0 0
0.0069489420 -0.0175479820 0 0
0.0061232440 -0.0179225340 0 0
0.0052028630 -0.0185585230 0 0
0.0043210320 -0.0194227050 0 0
0.0036360220 -0.0204754880 0 0
0.0033088330 -0.0216699440 0 0
0.0034738960 -0.0229494010 0 0
0.0042052560 -0.0242457450 0 0
0.0054879390 -0.0254798640 0 0
0.0072118830 -0.0265660120 0 0
0.0091956180 -0.0274201290 0 0
0.0112246170 -0.0279705880 0 0
0.0130811670 -0.0281703570 0 0
0.0145607760 -0.0280083890 0 0
0.0154866600 -0.0275145710 0 0
0.0157272280 -0.0267528000 0 0
0.0152116050 -0.0258043350 0 0
0.0139410630 -0.0247516510 0 0
0.0119977010 -0.0236708890 0 0
0.0095456520 -0.0226305620 0 0
0.0068113480 -0.0216886630 0 0
0.0040360900 -0.0208843030 0 0
0.0014199910 -0.0202261950 0 0
-0.0009081840 -0.0196850450 0 0
-0.0028787190 -0.0192001300 0 0
-0.0044425370 -0.0187028020 0 0
-0.0055386880 -0.0181429770 0 0
-0.0060913210 -0.0175021790 0 0
-0.0060382580 -0.0167919870 0 0
-0.0053694300 -0.0160455460 0 0
-0.0041449540 -0.0153069770 0 0
-0.0024820400 -0.0146208660 0 0
-0.0005274250 -0.0140229640 0 0
0.0015630680 -0.0135321510 0 0
0.0036336870 -0.0131454040 0 0
0.0055377350 -0.0128395240 0 0
0.0071543080 -0.0125811030 0 0
0.0084068050 -0.0123418940 0 0
0.0092714990 -0.0121137240 0 0
0.0097729620 -0.0119151000 0 0
0.0099721960 -0.0117839370 0 0
0.0099536230 -0.0117599350 0 0
0.0098165270 -0.0118688000 0 0
0.0096750990 -0.0121188630 0 0
0.0096592420 -0.0125085350 0 0
0.0098990900 -0.0130331660 0 0
0.0104900170 -0.0136821850 0 0
0.0114578630 -0.0144275830 0 0
0.0127462580 -0.0152136920 0 0
0.0142293540 -0.0159604000 0 0
0.0157380940 -0.0165830680 0 0
0.0170880860 -0.0170179200 0 0
0.0181049290 -0.0172376290 0 0
0.0186479580 -0.0172514860 0 0
0.0186308700 -0.0170944950 0 0
0.0180325680 -0.0168122610 0 0
0.0168928810 -0.0164471530 0 0
0.0152950680 -0.0160297400 0 0
0.0133433160 -0.0155779330 0 0
0.0111484970 -0.0151027940 0 0
0.0088333030 -0.0146154290 0 0
0.0065481150 -0.0141286560 0 0
0.0044717920 -0.0136526280 0 0
0.0027873950 -0.0131892940 0 0
0.0016516950 -0.0127301740 0 0
0.0011779360 -0.0122583040 0 0
0.0014298930 -0.0117534160 0 0
0.0024141580 -0.0111979460 0 0
0.0040663770 -0.0105802030 0 0
0.0062432870 -0.0098945140 0 0
0.0087360990 -0.0091430850 0 0
0.0113056460 -0.0083422010 0 0
0.0137240650 -0.0075282650 0 0
0.0158066550 -0.0067562690 0 0
0.0174266760 -0.0060888470 0 0
0.0185160490 -0.0055820910 0 0
0.0190595750 -0.0052759190 0 0
0.0190883350 -0.0051913000 0 0
0.0186743100 -0.0053316320 0 0
0.0179246630 -0.0056848850 0 0
0.0169701810 -0.0062239090 0 0
0.0159450920 -0.0069033510 0 0
0.0149678620 -0.0076555200 0 0
0.0141375420 -0.0083925180 0 0
0.0135442530 -0.0090199610 0 0
0.0132758320 -0.0094579420 0 0
0.0134077690 -0.0096590280 0 0
0.0139789010 -0.0096167310 0 0
0.0149644520 -0.0093633720 0 0
0.0162619820 -0.0089586750 0 0
0.0177024600 -0.0084718540 0 0
0.0190818340 -0.0079614020 0 0
0.0201929740 -0.0074596610 0 0
0.0208468680 -0.0069710050 0 0
0.0208924200 -0.0064848590 0 0
0.0202419210 -0.0059926810 0 0
0.0188923120 -0.0054976210 0 0
0.0169315900 -0.0050155850 0 0
0.0145287350 -0.0045719080 0 0
0.0119087160 -0.0041967000 0 0
0.0093201780 -0.0039210110 0 0
0.0070083300 -0.0037752610 0 0
0.0051960130 -0.0037878670 0 0
0.0040659590 -0.0039789760 0 0
0.0037422530 -0.0043477630 0 0
0.0042763200 -0.0048598080 0 0
0.0056417610 -0.0054450380 0 0
0.0077381360 -0.0060113960 0 0
0.0103998900 -0.0064688660 0 0
0.0134050730 -0.0067522150 0 0
0.0164847460 -0.0068333300 0 0
0.0193428170 -0.0067207470 0 0
0.0216932570 -0.0064490450 0 0
0.0233061860 -0.0060633560 0 0
0.0240442880 -0.0056051380 0 0
0.0238773900 -0.0051036080 0 0
0.0228753840 -0.0045736960 0 0
0.0211848130 -0.0040189280 0 0
0.0189955720 -0.0034366640 0 0
0.0165082610 -0.0028232250 0 0
0.0139133670 -0.0021781730 0 0
0.0113862230 -0.0015093770 0 0
0.0090956730 -0.0008404260 0 0
0.0072181690 -0.0002173830 0 0
0.0059360880 0.0002925170 0 0
0.0054029480 0.0006141310 0 0
0.0056936500 0.0006839790 0 0
0.0067801950 0.0004660060 0 0
0.0085469260 -0.0000413471 0 0
0.0108240750 -0.0008054500 0 0
0.0134179240 -0.0017656670 0 0
0.0161313150 -0.0028450110 0 0
0.0187717140 -0.0039637960 0 0
0.0211472410 -0.0050490250 0 0
0.0230650000 -0.0060371280 0 0
0.0243480520 -0.0068744660 0 0
0.0248651900 -0.0075195080 0 0
0.0245507220 -0.0079450270 0 0
0.0234035730 -0.0081389250 0 0
0.0214782500 -0.0081052740 0 0
0.0188855130 -0.0078651980 0 0
0.0158015470 -0.0074552160 0 0
0.0124632360 -0.0069218240 0 0
0.0091352350 -0.0063112880 0 0
0.0060659050 -0.0056558740 0 0
0.0034584590 -0.0049629950 0 0
0.0014612710 -0.0042143860 0 0
0.0001670180 -0.0033781600 0 0
-0.0003846550 -0.0024317310 0 0
-0.0002057190 -0.0013858920 0 0
0.0006344720 -0.0002940640 0 0
0.0020019340 0.0007616380 0 0
0.0037065240 0.0016972760 0 0
0.0055349220 0.0024480870 0 0
0.0072966200 0.0029750150 0 0
0.0088629560 0.0032617460 0 0
0.0101849450 0.0033099600 0 0
0.0112834950 0.0031357900 0 0
0.0122176130 0.0027666640 0 0
0.0130510280 0.0022370710 0 0
0.0138365490 0.0015838940 0 0
0.0146174330 0.0008441590 0 0
0.0154308320 0.0000563061 0 0
0.0163040330 -0.0007380810 0 0
0.0172461310 -0.0014964740 0 0
0.0182455050 -0.0021824550 0 0
0.0192845890 -0.0027722670 0 0
0.0203652580 -0.0032530480 0 0
0.0215106990 -0.0036117250 0 0
0.0227213020 -0.0038232260 0 0
0.0239143270 -0.0038483720 0 0
0.0249012450 -0.0036449270 0 0
0.0254222040 -0.0031853160 0 0
0.0252154790 -0.0024687160 0 0
0.0240910630 -0.0015206800 0 0
0.0219862260 -0.0003854610 0 0
0.0189896340 0.0008792570 0 0
0.0153298720 0.0022011270 0 0
0.0113347280 0.0034899330 0 0
0.0073764960 0.0046411090 0 0
0.0038193780 0.0055503140 0 0
0.0009778140 0.0061346530 0 0
-0.0009114660 0.0063512200 0 0
-0.0017033310 0.0062047650 0 0
-0.0013453690 0.0057415470 0 0
0.0001295440 0.0050331690 0 0
0.0026120230 0.0041579260 0 0
0.0059233370 0.0031868430 0 0
0.0098255190 0.0021786190 0 0
0.0140357000 0.0011813480 0 0
0.0182402790 0.0002349860 0 0
0.0221125240 -0.0006274290 0 0
0.0253435120 -0.0013772460 0 0
0.0276826690 -0.0019860720 0 0
0.0289701700 -0.0024238250 0 0
0.0291495380 -0.0026632160 0 0
0.0282631410 -0.0026900970 0 0
0.0264387970 -0.0025121110 0 0
0.0238719500 -0.0021586780 0 0
0.0208034160 -0.0016746220 0 0
0.0174923360 -0.0011139680 0 0
0.0141873370 -0.0005353200 0 0
0.0111045530 0.0000038133 0 0
0.0084221080 0.0004548420 0 0
0.0062884330 0.0007861500 0 0
0.0048262680 0.0009880720 0 0
0.0041162220 0.0010730990 0 0
0.0041669930 0.0010730270 0 0
0.0049015360 0.0010355710 0 0
0.0061800950 0.0010197300 0 0
0.0078447890 0.0010850670 0 0
0.0097479700 0.0012724050 0 0
0.0117458700 0.0015848120 0 0
0.0136762870 0.0019854470 0 0
0.0153539190 0.0024197030 0 0
0.0165975790 0.0028502650 0 0
0.0172721820 0.0032827390 0 0
0.0173191270 0.0037654750 0 0
0.0167668190 0.0043652170 0 0
0.0157292300 0.0051354370 0 0
0.0143960720 0.0060947740 0 0
0.0130081540 0.0072215530 0 0
0.0118141810 0.0084602360 0 0
0.0110198140 0.0097330420 0 0
0.0107513500 0.0109507050 0 0
0.0110482050 0.0120189720 0 0
0.0118743510 0.0128436250 0 0
0.0131317660 0.0133399370 0 0
0.0146758830 0.0134462630 0 0
0.0163401560 0.0131342940 0 0
0.0179647170 0.0124103320 0 0
0.0194166590 0.0113093800 0 0
0.0205958150 0.0098873100 0 0
0.0214301860 0.0082138090 0 0
0.0218698790 0.0063664690 0 0
0.0218804080 0.0044275740 0 0
0.0214268990 0.0024852960 0 0
0.0204561550 0.0006369400 0 0
0.0189057260 -0.0010117900 0 0
0.0167505940 -0.0023567440 0 0
0.0140576070 -0.0033130910 0 0
0.0110097690 -0.0038306040 0 0
0.0078857310 -0.0038957460 0 0
0.0050046340 -0.0035209850 0 0
0.0026598820 -0.0027316370 0 0
0.0010651280 -0.0015580680 0 0
0.0003265870 -0.0000337615 0 0
0.0004430070 0.0018014570 0 0
0.0013242040 0.0038926420 0 0
0.0028178930 0.0061595410 0 0
0.0047380750 0.0084930150 0 0
0.0068902880 0.0107622160 0 0
0.0090899450 0.0128307130 0 0
0.0111692900 0.0145780040 0 0
0.0129707140 0.0159227120 0 0
0.0143351890 0.0168399180 0 0
0.0151050280 0.0173601880 0 0
0.0151540560 0.0175448980 0 0
0.0144356620 0.0174518240 0 0
0.0130186660 0.0171133540 0 0
0.0110850950 0.0165362720 0 0
0.0088925920 0.0157148190 0 0
0.0067274560 0.0146442420 0 0
0.0048686560 0.0133296430 0 0
0.0035628860 0.0117937380 0 0
0.0030026560 0.0100863040 0 0
0.0033040770 0.0082897520 0 0
0.0044831880 0.0065121410 0 0
0.0064327610 0.0048672040 0 0
0.0089160960 0.0034516730 0 0
0.0116010300 0.0023314110 0 0
0.0141330150 0.0015385830 0 0
0.0162120530 0.0010734090 0 0
0.0176368390 0.0009056200 0 0
0.0183108400 0.0009785160 0 0
0.0182273410 0.0012210930 0 0
0.0174474730 0.0015688240 0 0
0.0160837550 0.0019850830 0 0
0.0143015140 0.0024688900 0 0
0.0123238350 0.0030420550 0 0
0.0104071900 0.0037267660 0 0
0.0087890880 0.0045300500 0 0
0.0076437860 0.0054389340 0 0
0.0070636400 0.0064213040 0 0
0.0070566020 0.0074306400 0 0
0.0075546590 0.0084155260 0 0
0.0084362120 0.0093308990 0 0
0.0095592300 0.0101444070 0 0
0.0107933130 0.0108349530 0 0
0.0120371110 0.0113877640 0 0
0.0132194790 0.0117908760 0 0
0.0142939820 0.0120320910 0 0
0.0152268680 0.0120945680 0 0
0.0159734970 0.0119549810 0 0
0.0164583380 0.0115904190 0 0
0.0165815690 0.0109944910 0 0
0.0162493200 0.0101940770 0 0
0.0154060470 0.0092545170 0 0
0.0140585660 0.0082681170 0 0
0.0122887680 0.0073329110 0 0
0.0102480960 0.0065335800 0 0
0.0081351590 0.0059308480 0 0
0.0061684630 0.0055575910 0 0
0.0045605330 0.0054178790 0 0
0.0034928220 0.0054883910 0 0
0.0030932550 0.0057236900 0 0
0.0034185820 0.0060663210 0 0
0.0044423750 0.0064608280 0 0
0.0060559140 0.0068668490 0 0
0.0080878570 0.0072642000 0 0
0.0103286820 0.0076470500 0 0
0.0125400030 0.0080109570 0 0
0.0144566780 0.0083406990 0 0
0.0158093030 0.0086062340 0 0
0.0163738980 0.0087679790 0 0
0.0160266920 0.0087865100 0 0
0.0147811630 0.0086320310 0 0
0.0127990580 0.0082921520 0 0
0.0103721570 0.0077771010 0 0
0.0078720020 0.0071197660 0 0
0.0056768970 0.0063684220 0 0
0.0041007300 0.0055750150 0 0
0.0033465480 0.0047873970 0 0
0.0034920390 0.0040512990 0 0
0.0045023250 0.0034171110 0 0
0.0062608820 0.0029408410 0 0
0.0086040300 0.0026751670 0 0
0.0113449700 0.0026558240 0 0
0.0142830400 0.0028911590 0 0
0.0171995100 0.0033590020 0 0
0.0198475590 0.0040099840 0 0
0.0219599380 0.0047754090 0 0
0.0232954010 0.0055790250 0 0
0.0237067750 0.0063506630 0 0
0.0231834090 0.0070394820 0 0
0.0218423090 0.0076262110 0 0
0.0198866320 0.0081307610 0 0
0.0175624560 0.0086078720 0 0
0.0151251110 0.0091280250 0 0
0.0128088600 0.0097507490 0 0
0.0107949380 0.0105041580 0 0
0.0091894460 0.0113818720 0 0
0.0080305060 0.0123559510 0 0
0.0073206830 0.0133927580 0 0
0.0070548690 0.0144589020 0 0
0.0072270410 0.0155145600 0 0
0.0078267610 0.0165036370 0 0
0.0088363490 0.0173553210 0 0
0.0102258870 0.0180007080 0 0
0.0119428410 0.0183910950 0 0
0.0138957930 0.0185033660 0 0
0.0159317510 0.0183336850 0 0
0.0178235160 0.0178938130 0 0
0.0192970240 0.0172196040 0 0
0.0200985990 0.0163834560 0 0
0.0200641860 0.0154926340 0 0
0.0191572140 0.0146662550 0 0
0.0174686970 0.0140030810 0 0
0.0151911720 0.0135586010 0 0
0.0125826000 0.0133402960 0 0
0.0099294990 0.0133176840 0 0
0.0075124210 0.0134379000 0 0
0.0055766830 0.0136385380 0 0
0.0043090650 0.0138553750 0 0
0.0038195290 0.0140283610 0 0
0.0041313150 0.0141092540 0 0
0.0051845840 0.0140696630 0 0
0.0068512740 0.0139056400 0 0
0.0089518330 0.0136365750 0 0
0.0112682050 0.0132996480 0 0
0.0135558960 0.0129434410 0 0
0.0155634880 0.0126223720 0 0
0.0170651810 0.0123881320 0 0
0.0178984900 0.0122751820 0 0
0.0179907570 0.0122872360 0 0
0.0173662300 0.0123951470 0 0
0.0161362740 0.0125469470 0 0
0.0144769100 0.0126819350 0 0
0.0125970310 0.0127434240 0 0
0.0107056550 0.0126914020 0 0
0.0089927140 0.0125149850 0 0
0.0076295010 0.0122371830 0 0
0.0067725100 0.0119052480 0 0
0.0065497800 0.0115714530 0 0
0.0070341720 0.0112769260 0 0
0.0082231880 0.0110459850 0 0
0.0100311010 0.0108877280 0 0
0.0122897130 0.0107984900 0 0
0.0147599590 0.0107644550 0 0
0.0171567660 0.0107672060 0 0
0.0191824700 0.0107912370 0 0
0.0205621900 0.0108290360 0 0
0.0210772580 0.0108823040 0 0
0.0205946860 0.0109616160 0 0
0.0190901350 0.0110861920 0 0
0.0166589920 0.0112825950 0 0
0.0135084390 0.0115792460 0 0
0.0099269420 0.0119947180 0 0
0.0062368630 0.0125238630 0 0
0.0027461320 0.0131313290 0 0
-0.0002852660 0.0137583070 0 0
-0.0026623640 0.0143388830 0 0
-0.0042638130 0.0148170370 0 0
-0.0050442580 0.0151571290 0 0
-0.0050267450 0.0153458190 0 0
-0.0042859100 0.0153871310 0 0
-0.0029304220 0.0152938550 0 0
-0.0010928340 0.0150793370 0 0
0.0010746940 0.0147537280 0 0
0.0034065200 0.0143258190 0 0
0.0057361490 0.0138076190 0 0
0.0079148070 0.0132177280 0 0
0.0098322610 0.0125816930 0 0
0.0114340030 0.0119292520 0 0
0.0127254620 0.0112887500 0 0
0.0137507550 0.0106810200 0 0
0.0145454220 0.0101173940 0 0
0.0150928220 0.0096036370 0 0
0.0153243760 0.0091447510 0 0
0.0151679060 0.0087453730 0 0
0.0146059000 0.0084074130 0 0
0.0137042180 0.0081289740 0 0
0.0126025640 0.0079042720 0 0
0.0114830910 0.0077225010 0 0
0.0105348220 0.0075670910 0 0
0.0099232270 0.0074184460 0 0
0.0097707660 0.0072597790 0 0
0.0101462110 0.0070820990 0 0
0.0110497440 0.0068847290 0 0
0.0123903590 0.0066707540 0 0
0.0139746310 0.0064404520 0 0
0.0155275830 0.0061883990 0 0
0.0167448990 0.0059088350 0 0
0.0173545100 0.0056081570 0 0
0.0171622160 0.0053166250 0 0
0.0160750030 0.0050901930 0 0
0.0141131860 0.0049999360 0 0
0.0114139350 0.0051124250 0 0
0.0082146870 0.0054659880 0 0
0.0048153600 0.0060515160 0 0
0.0015354930 0.0068085720 0 0
-0.0013241130 0.0076387590 0 0
-0.0035178350 0.0084280710 0 0
-0.0048830350 0.0090710120 0 0
-0.0053469590 0.0094941090 0 0
-0.0049167540 0.0096735760 0 0
-0.0036632350 0.0096392410 0 0
-0.0017005080 0.0094639970 0 0
0.0008289720 0.0092467540 0 0
0.0037482160 0.0090954510 0 0
0.0068306590 0.0091090830 0 0
0.0098110230 0.0093563220 0 0
0.0124295340 0.0098558810 0 0
0.0144772920 0.0105687600 0 0
0.0158131420 0.0114069950 0 0
0.0163575300 0.0122551730 0 0
0.0160883360 0.0129985730 0 0
0.0150483940 0.0135506250 0 0
0.0133503350 0.0138683760 0 0
0.0111639890 0.0139483210 0 0
0.0086918550 0.0138099850 0 0
0.0061481660 0.0134829800 0 0
0.0037462600 0.0130043000 0 0
0.0016906060 0.0124198240 0 0
0.0001726520 0.0117828200 0 0
-0.0006370130 0.0111504560 0 0
-0.0006178550 0.0105825030 0 0
0.0002528390 0.0101400530 0 0
0.0018696570 0.0098778960 0 0
0.0040130690 0.0098308470 0 0
0.0063943910 0.0100033450 0 0
0.0087040350 0.0103697090 0 0
0.0106535120 0.0108816650 0 0
0.0120191230 0.0114762360 0 0
0.0126904410 0.0120831270 0 0
0.0127037380 0.0126332910 0 0
0.0122286520 0.0130671330 0 0
0.0114993830 0.0133407760 0 0
0.0107258780 0.0134325140 0 0
0.0100397990 0.0133506940 0 0
0.0094994780 0.0131374850 0 0
0.0091337060 0.0128608990 0 0
0.0089884800 0.0125954690 0 0
0.0091499460 0.0124007870 0 0
0.0097324160 0.0123069140 0 0
0.0108390950 0.0123094460 0 0
0.0125181660 0.0123730660 0 0
0.0147351180 0.0124423850 0 0
0.0173678930 0.0124579430 0 0
0.0202221040 0.0123717530 0 0
0.0230596270 0.0121559330 0 0
0.0256297200 0.0118027500 0 0
0.0276951860 0.0113191410 0 0
0.0290558450 0.0107200100 0 0
0.0295730280 0.0100248100 0 0
0.0291906700 0.0092597130 0 0
0.0279434500 0.0084613090 0 0
0.0259473600 0.0076754830 0 0
0.0233773630 0.0069507270 0 0
0.0204399800 0.0063303720 0 0
0.0173492620 0.0058478500 0 0
0.0143160910 0.0055251600 0 0
0.0115474720 0.0053716090 0 0
0.0092338690 0.0053818610 0 0
0.0075139830 0.0055368050 0 0
0.0064397920 0.0058101350 0 0
0.0059749350 0.0061774610 0 0
0.0060318030 0.0066210760 0 0
0.0065190900 0.0071270430 0 0
0.0073670480 0.0076780620 0 0
0.0085200300 0.0082485510 0 0
0.0099097790 0.0088056870 0 0
0.0114325170 0.0093148600 0 0
0.0129459350 0.0097449150 0 0
0.0142873730 0.0100710700 0 0
0.0153044570 0.0102779600 0 0
0.0158872940 0.0103649350 0 0
0.0159926310 0.0103499790 0 0
0.0156532970 0.0102663040 0 0
0.0149675570 0.0101521070 0 0
0.0140649470 0.0100411850 0 0
0.0130604240 0.0099599340 0 0
0.0120291680 0.0099274130 0 0
0.0110230550 0.0099529270 0 0
0.0101077140 0.0100331140 0 0
0.0093792940 0.0101539770 0 0
0.0089443340 0.0102950320 0 0
0.0088794330 0.0104295420 0 0
0.0092006320 0.0105259550 0 0
0.0098613160 0.0105605560 0 0
0.0107717610 0.0105368980 0 0
0.0118205310 0.0104950910 0 0
0.0128880950 0.0105017870 0 0
0.0138549960 0.0106278620 0 0
0.0146098130 0.0109268380 0 0
0.0150611540 0.0114212990 0 0
0.0151530180 0.0120973130 0 0
0.0148761320 0.0129057230 0 0
0.0142676050 0.0137708880 0 0
0.0134016340 0.0146054580 0 0
0.0123815860 0.0153265900 0 0
0.0113347950 0.0158698360 0 0
0.0104013730 0.0161980780 0 0
0.0097145210 0.0163031850 0 0
0.0093795280 0.0162010680 0 0
0.0094587680 0.0159239190 0 0
0.0099653010 0.0155132590 0 0
0.0108637230 0.0150165920 0 0
0.0120755380 0.0144886740 0 0
0.0134882130 0.0139936300 0 0
0.0149675350 0.0136013970 0 0
0.0163696750 0.0133754850 0 0
0.0175492800 0.0133558760 0 0
0.0183670850 0.0135453010 0 0
0.0187055100 0.0139061770 0 0
0.0184940150 0.0143691660 0 0
0.0177337380 0.0148469940 0 0
0.0165058340 0.0152465080 0 0
0.0149546970 0.0154788940 0 0
0.0132511310 0.0154723700 0 0
0.0115527190 0.0151873660 0 0
0.0099811440 0.0146284450 0 0
0.0086254480 0.0138463890 0 0
0.0075629710 0.0129279220 0 0
0.0068776810 0.0119758450 0 0
0.0066565190 0.0110855660 0 0
0.0069613210 0.0103250970 0 0
0.0077957860 0.0097261160 0 0
0.0090902090 0.0092903270 0 0
0.0107095650 0.0090064430 0 0
0.0124763550 0.0088653110 0 0
0.0141990830 0.0088631160 0 0
0.0157014510 0.0089943950 0 0
0.0168478900 0.0092444340 0 0
0.0175587820 0.0095869030 0 0
0.0178105200 0.0099856290 0 0
0.0176239040 0.0103975920 0 0
0.0170502020 0.0107765210 0 0
0.0161590570 0.0110778850 0 0
0.0150268940 0.0112650360 0 0
0.0137308490 0.0113144890 0 0
0.0123550540 0.0112180660 0 0
0.0110018920 0.0109815490 0 0
0.0097931120 0.0106219120 0 0
0.0088573730 0.0101654390 0 0
0.0083135430 0.0096466090 0 0
0.0082564500 0.0091053280 0 0
0.0087408040 0.0085815220 0 0
0.0097584480 0.0081096630 0 0
0.0112182340 0.0077167840 0 0
0.0129468460 0.0074239580 0 0
0.0147180360 0.0072472990 0 0
0.0162986350 0.0071960980 0 0
0.0174910830 0.0072708930 0 0
0.0181582040 0.0074641960 0 0
0.0182288730 0.0077618960 0 0
0.0176937420 0.0081422740 0 0
0.0166005370 0.0085736850 0 0
0.0150505240 0.0090149600 0 0
0.0131928500 0.0094206560 0 0
0.0112151500 0.0097487870 0 0
0.0093297960 0.0099664430 0 0
0.0077541470 0.0100508660 0 0
0.0066851350 0.0099876620 0 0
0.0062725760 0.0097694500 0 0
0.0065960770 0.0093962840 0 0
0.0076490640 0.0088765080 0 0
0.0093349400 0.0082260960 0 0
0.0114802620 0.0074675800 0 0
0.0138630410 0.0066327750 0 0
0.0162478520 0.0057696950 0 0
0.0184185130 0.0049463250 0 0
0.0201997680 0.0042440520 0 0
0.0214636570 0.0037419780 0 0
0.0221263260 0.0034994130 0 0
0.0221467530 0.0035431880 0 0
0.0215322840 0.0038630910 0 0
0.0203452580 0.0044158070 0 0
0.0187013770 0.0051353130 0 0
0.0167564560 0.0059457670 0 0
0.0146871640 0.0067725540 0 0
0.0126743060 0.0075489230 0 0
0.0108918540 0.0082187070 0 0
0.0094976810 0.0087376620 0 0
0.0086203600 0.0090751310 0 0
0.0083422830 0.0092167720 0 0
0.0086865890 0.0091688870 0 0
0.0096150440 0.0089619060 0 0
0.0110360880 0.0086479720 0 0
0.0128168710 0.0082910140 0 0
0.0147944570 0.0079534630 0 0
0.0167857110 0.0076857720 0 0
0.0185995660 0.0075225280 0 0
0.0200552820 0.0074843240 0 0
0.0210051020 0.0075816570 0 0
0.0213554080 0.0078181740 0 0
0.0210808470 0.0081928370 0 0
0.0202279760 0.0087012660 0 0
0.0189070700 0.0093362980 0 0
0.0172733520 0.0100878850 0 0
0.0155024720 0.0109422190 0 0
0.0137679280 0.0118793580 0 0
0.0122257750 0.0128699130 0 0
0.0110056090 0.0138735680 0 0
0.0102035350 0.0148417620 0 0
0.0098755270 0.0157241890 0 0
0.0100333870 0.0164768700 0 0
0.0106455220 0.0170692910 0 0
0.0116410600 0.0174884760 0 0
0.0129137870 0.0177386180 0 0
0.0143265750 0.0178366250 0 0
0.0157214610 0.0178052010 0 0
0.0169381230 0.0176652330 0 0
0.0178375710 0.0174297560 0 0
0.0183244250 0.0171021060 0 0
0.0183618080 0.0166789110 0 0
0.0179764360 0.0161553570 0 0
0.0172535030 0.0155295080 0 0
0.0163217750 0.0148041560 0 0
0.0153339860 0.0139860630 0 0
0.0144504380 0.0130836960 0 0
0.0138273620 0.0121062320 0 0
0.0136043910 0.0110661040 0 0
0.0138887040 0.0099836900 0 0
0.0147409630 0.0088897420 0 0
0.0161676670 0.0078228210 0 0
0.0181189040 0.0068235700 0 0
0.0204891880 0.0059299160 0 0
0.0231220140 0.0051752060 0 0
0.0258215340 0.0045881450 0 0
0.0283743220 0.0041924420 0 0
0.0305785190 0.0040045990 1 0
0.0322716180 0.0040295620 1 0
0.0333488940 0.0042553120 1 0
0.0337691150 0.0046489150 1 0
0.0335477560 0.0051573110 1 0
0.0327428300 0.0057143460 1 0
0.0314432750 0.0062518700 1 0
0.0297654000 0.0067106820 0 0
0.0278523330 0.0070481750 0 0
0.0258680650 0.0072413010 0 0
0.0239847700 0.0072847790 0 0
0.0223691430 0.0071858940 0 0
0.0211715140 0.0069585660 0 0
0.0205151460 0.0066192490 0 0
0.0204837170 0.0061851140 0 0
0.0211099120 0.0056732210 0 0
0.0223683090 0.0050995730 0 0
0.0241728810 0.0044785420 0 0
0.0263785000 0.0038243450 0 0
0.0287861330 0.0031553370 0 0
0.0311534110 0.0025000040 1 0
0.0332153130 0.0019018500 1 0
0.0347171410 0.0014186430 1 0
0.0354536670 0.0011122620 1 0
0.0353042330 0.0010309620 1 0
0.0342556530 0.0011918050 1 0
0.0324075590 0.0015718070 1 0
0.0299580770 0.0021119990 0 0
0.0271736950 0.0027323280 0 0
0.0243512990 0.0033501300 0 0
0.0217796600 0.0038950010 0 0
0.0197062670 0.0043174710 0 0
0.0183138020 0.0045922570 0 0
0.0177066220 0.0047170060 0 0
0.0179054630 0.0047076030 0 0
0.0188497880 0.0045923050 0 0
0.0204080220 0.0044069580 0 0
0.0223950130 0.0041917670 0 0
0.0245944830 0.0039886420 0 0
0.0267827740 0.0038379820 0 0
0.0287504440 0.0037741520 0 0
0.0303199340 0.0038199000 1 0
0.0313596640 0.0039817540 1 0
0.0317961070 0.0042487500 1 0
0.0316225210 0.0045946530 1 0
0.0308978760 0.0049824230 1 0
0.0297308380 0.0053702420 0 0
0.0282542230 0.0057186230 0 0
0.0266043630 0.0059969200 0 0
0.0249147220 0.0061870330 0 0
0.0233183140 0.0062834290 0 0
0.0219465660 0.0062905260 0 0
0.0209189430 0.0062193690 0 0
0.0203270400 0.0060849320 0 0
0.0202197700 0.0059040800 0 0
0.0205947270 0.0056938830 0 0
0.0213979970 0.0054706890 0 0
0.0225313010 0.0052505080 0 0
0.0238635180 0.0050504110 0 0
0.0252443680 0.0048898880 0 0
0.0265190710 0.0047908160 0 0
0.0275432300 0.0047748090 0 0
0.0281967180 0.0048585020 0 0
0.0283942380 0.0050495050 0 0
0.0280915580 0.0053453410 0 0
0.0272891820 0.0057348420 0 0
0.0260344500 0.0061998240 0 0
0.0244203840 0.0067162660 0 0
0.0225795800 0.0072556670 0 0
0.0206733150 0.0077868460 0 0
0.0188773930 0.0082778150 0 0
0.0173661520 0.0086980660 0 0
0.0162947450 0.0090223030 0 0
0.0157796940 0.0092359640 0 0
0.0158809380 0.0093404590 0 0
0.0165914290 0.0093545980 0 0
0.0178376960 0.0093104780 0 0
0.0194887760 0.0092458650 0 0
0.0213689800 0.0091974560 0 0
0.0232737670 0.0091984320 0 0
0.0249907370 0.0092799030 0 0
0.0263256860 0.0094725040 0 0
0.0271291330 0.0098045210 0 0
0.0273163020 0.0102955610 0 0
0.0268759970 0.0109478820 0 0
0.0258697720 0.0117392590 0 0
0.0244260350 0.0126207210 0 0
0.0227293700 0.0135207410 0 0
0.0210003150 0.0143554340 0 0
0.0194647540 0.0150418110 0 0
0.0183199020 0.0155104020 0 0
0.0177058000 0.0157158430 0 0
0.0176886470 0.0156450940 0 0
0.0182591230 0.0153209990 0 0
0.0193442770 0.0147982410 0 0
0.0208270570 0.0141518470 0 0
0.0225664490 0.0134617480 0 0
0.0244129550 0.0127977580 0 0
0.0262178250 0.0122091230 0 0
0.0278388050 0.0117213270 0 0
0.0291471360 0.0113393970 0 0
0.0300375810 0.0110544040 1 0
0.0304382000 0.0108505960 1 0
0.0303153220 0.0107116090 1 0
0.0296736770 0.0106243580 0 0
0.0285553410 0.0105799560 0 0
0.0270389790 0.0105719190 0 0
0.0252367650 0.0105929070 0 0
0.0232870250 0.0106325240 0 0
0.0213442360 0.0106778570 0 0
0.0195678170 0.0107159020 0 0
0.0181076430 0.0107363460 0 0
0.0170851510 0.0107345270 0 0
0.0165751960 0.0107145360 0 0
0.0165967550 0.0106915750 0 0
0.0171162340 0.0106921260 0 0
0.0180606390 0.0107507200 0 0
0.0193343990 0.0109031570 0 0
0.0208346130 0.0111780420 0 0
0.0224621620 0.0115897800 0 0
0.0241278700 0.0121353980 0 0
0.0257546860 0.0127958620 0 0
0.0272787870 0.0135409060 0 0
0.0286515130 0.0143346570 0 0
0.0298413880 0.0151388540 0 0
0.0308338010 0.0159126730 1 0
0.0316250610 0.0166110670 1 0
0.0322089120 0.0171843430 1 0
0.0325600580 0.0175803880 1 0
0.0326261350 0.0177492340 1 0
0.0323368070 0.0176486450 1 0
0.0316264690 0.0172488060 1 0
0.0304571600 0.0165342090 1 0
0.0288286050 0.0155020240 0 0
0.0267717860 0.0141585270 0 0
0.0243331300 0.0125164160 0 0
0.0215601310 0.0105943520 0 0
0.0184939720 0.0084171850 0 0
0.0151671570 0.0060147310 0 0
0.0116030520 0.0034188130 0 0
0.0078182080 0.0006598530 0 0
0.0038279760 -0.0022361350 0 0
-0.0003481620 -0.0052503060 0 0
-0.0046851310 -0.0083732730 0 0
-0.0091531090 -0.0116052850 0 0
-0.0137158830 -0.0149526340 0 0
-0.0183254840 -0.0184201950 0 0
-0.0229183050 -0.0220022260 0 0
-0.0274178270 -0.0256753090 0 0
-0.0317417110 -0.0293967640 -1 0
-0.0358062230 -0.0331087780 -1 -1
-0.0395249600 -0.0367462050 -1 -1
-0.0428070350 -0.0402457130 -1 -1
-0.0455640590 -0.0435536550 -1 -1
-0.0477299680 -0.0466302460 -1 -1
-0.0492863840 -0.0494497010 -1 -1
-0.0502807910 -0.0519981440 -1 -1
-0.0508306240 -0.0542716910 -1 -1
-0.0511140660 -0.0562762130 -1 -1
-0.0513497530 -0.0580284730 -1 -1
-0.0517685060 -0.0595568530 -1 -1
-0.0525845010 -0.0608999540 -1 -1
-0.0539728690 -0.0621024640 -1 -1
-0.0560528690 -0.0632083210 -1 -1
-0.0588712480 -0.0642528030 -1 -1
-0.0623858260 -0.0652573290 -1 -1
-0.0664577410 -0.0662301550 -1 -1
-0.0708629470 -0.0671724010 -1 -1
-0.0753255750 -0.0680851300 -1 -1
-0.0795625420 -0.0689722740 -1 -1
-0.0833223780 -0.0698376170 -1 -1
-0.0864076290 -0.0706792920 -1 -1
-0.0886819750 -0.0714868150 -1 -1
-0.0900703500 -0.0722423350 -1 -1
-0.0905600200 -0.0729241800 -1 -1
-0.0902035380 -0.0735104420 -1 -1
-0.0891178210 -0.0739815060 -1 -1
-0.0874741750 -0.0743212210 -1 -1
-0.0854795760 -0.0745173680 -1 -1
-0.0833531670 -0.0745626410 -1 -1
-0.0813033070 -0.0744566010 -1 -1
-0.0795106760 -0.0742082510 -1 -1
-0.0781202500 -0.0738385500 -1 -1
-0.0772397720 -0.0733813530 -1 -1
-0.0769397980 -0.0728813550 -1 -1
-0.0772516030 -0.0723892840 -1 -1
-0.0781611780 -0.0719562780 -1 -1
-0.0796000760 -0.0716296850 -1 -1
-0.0814385450 -0.0714511300 -1 -1
-0.0834904100 -0.0714552200 -1 -1
-0.0855364920 -0.0716656740 -1 -1
-0.0873612390 -0.0720876540 -1 -1
-0.0887865180 -0.0727002460 -1 -1
-0.0896909900 -0.0734550660 -1 -1
-0.0900160690 -0.0742827810 -1 -1
-0.0897643410 -0.0751047380 -1 -1
-0.0889933510 -0.0758457690 -1 -1
-0.0878052450 -0.0764445530 -1 -1
-0.0863338830 -0.0768593770 -1 -1
-0.0847321680 -0.0770698860 -1 -1
-0.0831601300 -0.0770768100 -1 -1
-0.0817720340 -0.0769004200 -1 -1
-0.0807020540 -0.0765765670 -1 -1
-0.0800513980 -0.0761494150 -1 -1
-0.0798802140 -0.0756628130 -1 -1
-0.0802030140 -0.0751536620 -1 -1
-0.0809831740 -0.0746489170 -1 -1
-0.0821285260 -0.0741658300 -1 -1
-0.0834978870 -0.0737142550 -1 -1
-0.0849224750 -0.0732995550 -1 -1
-0.0862315830 -0.0729249650 -1 -1
-0.0872689610 -0.0725927190 -1 -1
-0.0878990420 -0.0723035160 -1 -1
-0.0880133890 -0.0720544430 -1 -1
-0.0875447370 -0.0718364020 -1 -1
-0.0864847760 -0.0716325790 -1 -1
-0.0848953520 -0.0714192550 -1 -1
-0.0829053920 -0.0711692290 -1 -1
-0.0806937960 -0.0708571460 -1 -1
-0.0784645660 -0.0704654680 -1 -1
-0.0764198900 -0.0699897510 -1 -1
-0.0747337920 -0.0694421340 -1 -1
-0.0735297820 -0.0688518870 -1 -1
-0.0728687270 -0.0682620400 -1 -1
-0.0727513120 -0.0677216180 -1 -1
-0.0731310600 -0.0672744510 -1 -1
-0.0739273180 -0.0669482760 -1 -1
-0.0750313060 -0.0667493580 -1 -1
-0.0763083900 -0.0666649930 -1 -1
-0.0776040200 -0.0666715100 -1 -1
-0.0787563590 -0.0667432670 -1 -1
-0.0796142560 -0.0668590890 -1 -1
-0.0800586130 -0.0670041320 -1 -1
-0.0800222050 -0.0671667790 -1 -1
-0.0794997730 -0.0673326890 -1 -1
-0.0785448230 -0.0674805620 -1 -1
-0.0772573200 -0.0675831170 -1 -1
-0.0757678140 -0.0676120900 -1 -1
-0.0742204180 -0.0675430450 -1 -1
-0.0727577750 -0.0673578460 -1 -1
-0.0715130910 -0.0670462320 -1 -1
-0.0706097600 -0.0666084200 -1 -1
-0.0701611170 -0.0660579520 -1 -1
-0.0702618230 -0.0654216670 -1 -1
-0.0709696700 -0.0647342930 -1 -1
-0.0722845200 -0.0640287140 -1 -1
-0.0741340750 -0.0633267160 -1 -1
-0.0763736890 -0.0626354080 -1 -1
-0.0788019010 -0.0619511930 -1 -1
-0.0811883350 -0.0612691180 -1 -1
-0.0833071640 -0.0605927670 -1 -1
-0.0849663210 -0.0599395690 -1 -1
-0.0860240530 -0.0593389320 -1 -1
-0.0863934700 -0.0588243040 -1 -1
-0.0860436090 -0.0584228920 -1 -1
-0.0850024060 -0.0581474220 -1 -1
-0.0833587890 -0.0579932970 -1 -1
-0.0812586030 -0.0579419400 -1 -1
-0.0788921180 -0.0579684020 -1 -1
-0.0764739300 -0.0580498640 -1 -1
-0.0742179640 -0.0581719440 -1 -1
-0.0723126560 -0.0583311110 -1 -1
-0.0709019040 -0.0585328040 -1 -1
-0.0700744720 -0.0587865180 -1 -1
-0.0698612280 -0.0591008470 -1 -1
-0.0702377550 -0.0594808410 -1 -1
-0.0711296360 -0.0599267720 -1 -1
-0.0724195600 -0.0604321920 -1 -1
-0.0739571910 -0.0609813180 -1 -1
-0.0755715970 -0.0615471230 -1 -1
-0.0770846960 -0.0620914790 -1 -1
-0.0783256000 -0.0625689370 -1 -1
-0.0791478980 -0.0629346920 -1 -1
-0.0794503560 -0.0631546550 -1 -1
-0.0791955890 -0.0632138040 -1 -1
-0.0784176420 -0.0631194970 -1 -1
-0.0772147790 -0.0628989940 -1 -1
-0.0757318420 -0.0625931190 -1 -1
-0.0741387990 -0.0622488440 -1 -1
-0.0726116690 -0.0619124160 -1 -1
-0.0713213630 -0.0616229640 -1 -1
-0.0704289110 -0.0614065300 -1 -1
-0.0700759640 -0.0612720160 -1 -1
-0.0703631010 -0.0612117080 -1 -1
-0.0713231270 -0.0612077500 -1 -1
-0.0729036080 -0.0612419750 -1 -1
-0.0749681780 -0.0613039300 -1 -1
-0.0773182930 -0.0613942950 -1 -1
-0.0797286320 -0.0615248620 -1 -1
-0.0819837130 -0.0617168750 -1 -1
-0.0839059690 -0.0619978690 -1 -1
-0.0853712240 -0.0623967900 -1 -1
-0.0863100020 -0.0629379030 -1 -1
-0.0866976020 -0.0636342690 -1 -1
-0.0865429710 -0.0644817860 -1 -1
-0.0858862000 -0.0654558970 -1 -1
-0.0848043640 -0.0665132470 -1 -1
-0.0834162620 -0.0675980280 -1 -1
-0.0818779260 -0.0686500180 -1 -1
-0.0803677590 -0.0696119320 -1 -1
-0.0790651250 -0.0704360390 -1 -1
-0.0781290900 -0.0710899540 -1 -1
-0.0776848340 -0.0715599150 -1 -1
-0.0778197110 -0.0718502710 -1 -1
-0.0785820050 -0.0719801960 -1 -1
-0.0799736150 -0.0719801340 -1 -1
-0.0819368650 -0.0718892550 -1 -1
-0.0843453850 -0.0717520720 -1 -1
-0.0870097020 -0.0716114560 -1 -1
-0.0897014630 -0.0714987000 -1 -1
-0.0921908580 -0.0714245150 -1 -1
-0.0942830250 -0.0713741170 -1 -1
-0.0958387820 -0.0713083830 -1 -1
-0.0967763860 -0.0711732640 -1 -1
-0.0970636920 -0.0709169180 -1 -1
-0.0967111540 -0.0705085360 -1 -1
-0.0957685700 -0.0699508820 -1 -1
-0.0943241720 -0.0692823920 -1 -1
-0.0925044920 -0.0685698250 -1 -1
-0.0904715850 -0.0678949000 -1 -1
-0.0884127950 -0.0673380180 -1 -1
-0.0865223930 -0.0669622520 -1 -1
-0.0849804190 -0.0668016540 -1 -1
-0.0839354640 -0.0668570880 -1 -1
-0.0834945590 -0.0670998260 -1 -1
-0.0837173750 -0.0674802530 -1 -1
-0.0846075820 -0.0679384510 -1 -1
-0.0860983790 -0.0684141850 -1 -1
-0.0880403130 -0.0688551650 -1 -1
-0.0902055330 -0.0692233930 -1 -1
-0.0923159260 -0.0694992520 -1 -1
-0.0940887920 -0.0696827170 -1 -1
-0.0952839280 -0.0697918980 -1 -1
-0.0957375970 -0.0698598230 -1 -1
-0.0953784140 -0.0699293380 -1 -1
-0.0942282830 -0.0700456930 -1 -1
-0.0923936150 -0.0702478540 -1 -1
-0.0900496690 -0.0705608010 -1 -1
-0.0874185150 -0.0709909310 -1 -1
-0.0847423630 -0.0715256410 -1 -1
-0.0822570600 -0.0721366900 -1 -1
-0.0801694910 -0.0727858710 -1 -1
-0.0786392800 -0.0734313800 -1 -1
-0.0777657070 -0.0740338240 -1 -1
-0.0775829840 -0.0745613140 -1 -1
-0.0780638940 -0.0749931330 -1 -1
-0.0791272490 -0.0753211500 -1 -1
-0.0806459910 -0.0755483720 -1 -1
-0.0824570100 -0.0756852650 -1 -1
-0.0843747430 -0.0757453700 -1 -1
-0.0862085700 -0.0757412550 -1 -1
-0.0877813980 -0.0756812680 -1 -1
-0.0889460660 -0.0755678360 -1 -1
-0.0895974840 -0.0753981040 -1 -1
-0.0896803470 -0.0751669940 -1 -1
-0.0891933160 -0.0748715860 -1 -1
-0.0881894510 -0.0745147720 -1 -1
-0.0867708450 -0.0741065300 -1 -1
-0.0850769510 -0.0736630720 -1 -1
-0.0832702190 -0.0732055350 -1 -1
-0.0815230600 -0.0727589030 -1 -1
-0.0800055020 -0.0723506290 -1 -1
-0.0788708100 -0.0720087390 -1 -1
-0.0782399620 -0.0717594920 -1 -1
-0.0781880030 -0.0716245140 -1 -1
-0.0787339100 -0.0716177600 -1 -1
-0.0798367730 -0.0717436470 -1 -1
-0.0814010110 -0.0719971550 -1 -1
-0.0832881590 -0.0723647400 -1 -1
-0.0853303980 -0.0728245220 -1 -1
-0.0873443470 -0.0733459510 -1 -1
-0.0891462860 -0.0738908340 -1 -1
-0.0905694830 -0.0744171160 -1 -1
-0.0914822590 -0.0748847480 -1 -1
-0.0918033010 -0.0752614340 -1 -1
-0.0915113060 -0.0755260770 -1 -1
-0.0906482230 -0.0756690040 -1 -1
-0.0893155810 -0.0756894460 -1 -1
-0.0876637990 -0.0755916420 -1 -1
-0.0858763210 -0.0753817690 -1 -1
-0.0841502260 -0.0750678430 -1 -1
-0.0826736980 -0.0746624620 -1 -1
-0.0816027180 -0.0741857750 -1 -1
-0.0810431530 -0.0736663030 -1 -1
-0.0810449080 -0.0731386310 -1 -1
-0.0816083260 -0.0726380110 -1 -1
-0.0826939370 -0.0721935880 -1 -1
-0.0842261840 -0.0718231410 -1 -1
-0.0860912890 -0.0715310910 -1 -1
-0.0881366350 -0.0713092500 -1 -1
-0.0901778690 -0.0711391090 -1 -1
-0.0920161530 -0.0709954420 -1 -1
-0.0934634100 -0.0708511600 -1 -1
-0.0943677580 -0.0706821010 -1 -1
-0.0946307290 -0.0704702250 -1 -1
-0.0942148120 -0.0702050970 -1 -1
-0.0931461800 -0.0698844960 -1 -1
-0.0915155130 -0.0695144830 -1 -1
-0.0894729690 -0.0691085330 -1 -1
-0.0872115860 -0.0686857100 -1 -1
-0.0849399910 -0.0682687310 -1 -1
-0.0828530760 -0.0678826160 -1 -1
-0.0811108260 -0.0675534490 -1 -1
-0.0798289100 -0.0673062760 -1 -1
-0.0790762050 -0.0671618930 -1 -1
-0.0788724130 -0.0671336370 -1 -1
-0.0791844320 -0.0672258290 -1 -1
-0.0799264900 -0.0674344800 -1 -1
-0.0809694980 -0.0677498690 -1 -1
-0.0821598170 -0.0681600070 -1 -1
-0.0833418480 -0.0686531950 -1 -1
-0.0843763320 -0.0692178290 -1 -1
-0.0851498200 -0.0698396720 -1 -1
-0.0855788700 -0.0704987310 -1 -1
-0.0856166970 -0.0711673580 -1 -1
-0.0852648890 -0.0718097200 -1 -1
-0.0845829700 -0.0723829170 -1 -1
-0.0836846590 -0.0728412420 -1 -1
-0.0827168890 -0.0731443700 -1 -1
-0.0818290550 -0.0732670350 -1 -1
-0.0811449770 -0.0732054770 -1 -1
-0.0807461510 -0.0729779350 -1 -1
-0.0806663540 -0.0726208130 -1 -1
-0.0808928050 -0.0721840430 -1 -1
-0.0813728650 -0.0717272940 -1 -1
-0.0820283760 -0.0713163080 -1 -1
-0.0827727690 -0.0710176000 -1 -1
-0.0835201580 -0.0708899150 -1 -1
-0.0841836030 -0.0709734760 -1 -1
-0.0846722550 -0.0712817270 -1 -1
-0.0848977770 -0.0718002040 -1 -1
-0.0847897180 -0.0724923510 -1 -1
-0.0843105910 -0.0733075830 -1 -1
-0.0834615420 -0.0741871690 -1 -1
-0.0822764900 -0.0750679320 -1 -1
-0.0808118440 -0.0758873460 -1 -1
-0.0791425200 -0.0765921410 -1 -1
-0.0773673440 -0.0771468800 -1 -1
-0.0756160470 -0.0775366350 -1 -1
-0.0740467090 -0.0777633340 -1 -1
-0.0728271510 -0.0778412100 -1 -1
-0.0721032430 -0.0777946280 -1 -1
-0.0719677530 -0.0776558630 -1 -1
-0.0724450620 -0.0774602670 -1 -1
-0.0734956160 -0.0772404480 -1 -1
-0.0750315120 -0.0770224650 -1 -1
-0.0769332540 -0.0768244350 -1 -1
-0.0790633360 -0.0766559670 -1 -1
-0.0812754930 -0.0765181580 -1 -1
-0.0834199540 -0.0764054630 -1 -1
-0.0853480520 -0.0763093480 -1 -1
-0.0869202820 -0.0762208660 -1 -1
-0.0880180340 -0.0761295430 -1 -1
-0.0885555200 -0.0760199790 -1 -1
-0.0884889800 -0.0758705640 -1 -1
-0.0878229930 -0.0756569340 -1 -1
-0.0866150100 -0.0753585570 -1 -1
-0.0849774380 -0.0749646560 -1 -1
-0.0830731860 -0.0744769980 -1 -1
-0.0810995070 -0.0739094300 -1 -1
-0.0792607120 -0.0732854820 -1 -1
-0.0777395850 -0.0726349900 -1 -1
-0.0766786190 -0.0719898560 -1 -1
-0.0761726270 -0.0713790840 -1 -1
-0.0762661030 -0.0708239540 -1 -1
-0.0769495480 -0.0703347140 -1 -1
-0.0781546960 -0.0699101610 -1 -1
-0.0797544150 -0.0695407600 -1 -1
-0.0815729050 -0.0692144330 -1 -1
-0.0834045580 -0.0689224100 -1 -1
-0.0850353030 -0.0686625030 -1 -1
-0.0862642940 -0.0684392690 -1 -1
-0.0869274450 -0.0682624520 -1 -1
-0.0869207330 -0.0681448360 -1 -1
-0.0862163310 -0.0680996480 -1 -1
-0.0848651850 -0.0681374150 -1 -1
-0.0829854970 -0.0682629910 -1 -1
-0.0807427920 -0.0684743930 -1 -1
-0.0783281000 -0.0687644110 -1 -1
-0.0759370340 -0.0691235720 -1 -1
-0.0737508470 -0.0695422040 -1 -1
-0.0719218340 -0.0700112050 -1 -1
-0.0705647150 -0.0705220740 -1 -1
-0.0697532410 -0.0710657090 -1 -1
-0.0695207890 -0.0716295300 -1 -1
-0.0698626950 -0.0721946870 -1 -1
-0.0707365620 -0.0727360520 -1 -1
-0.0720603620 -0.0732254250 -1 -1
-0.0737140300 -0.0736354650 -1 -1
-0.0755492040 -0.0739420510 -1 -1
-0.0774046480 -0.0741253970 -1 -1
-0.0791214540 -0.0741714070 -1 -1
-0.0805557680 -0.0740737280 -1 -1
-0.0815903410 -0.0738356530 -1 -1
-0.0821453330 -0.0734705440 -1 -1
-0.0821875060 -0.0729995880 -1 -1
-0.0817364630 -0.0724472410 -1 -1
-0.0808650470 -0.0718371000 -1 -1
-0.0796911050 -0.0711909250 -1 -1
-0.0783605210 -0.0705300030 -1 -1
-0.0770239410 -0.0698756890 -1 -1
-0.0758119120 -0.0692480100 -1 -1
-0.0748154140 -0.0686642540 -1 -1
-0.0740791400 -0.0681390800 -1 -1
-0.0736106620 -0.0676853600 -1 -1
-0.0733975050 -0.0673141150 -1 -1
-0.0734167970 -0.0670331660 -1 -1
-0.0736313060 -0.0668458560 -1 -1
-0.0739807030 -0.0667510930 -1 -1
-0.0743801700 -0.0667444910 -1 -1
-0.0747304860 -0.0668193350 -1 -1
-0.0749341330 -0.0669659970 -1 -1
-0.0749086010 -0.0671696490 -1 -1
-0.0745925400 -0.0674085130 -1 -1
-0.0739470470 -0.0676556130 -1 -1
-0.0729584100 -0.0678847460 -1 -1
-0.0716458560 -0.0680777120 -1 -1
-0.0700688600 -0.0682281910 -1 -1
-0.0683253570 -0.0683399980 -1 -1
-0.0665405400 -0.0684217080 -1 -1
-0.0648534580 -0.0684812680 -1 -1
-0.0634056220 -0.0685222760 -1 -1
-0.0623292640 -0.0685419090 -1 -1
-0.0617338140 -0.0685310750 -1 -1
-0.0616947720 -0.0684779690 -1 -1
-0.0622482560 -0.0683740180 -1 -1
-0.0633877300 -0.0682187920 -1 -1
-0.0650587420 -0.0680216220 -1 -1
-0.0671542900 -0.0678008710 -1 -1
-0.0695173350 -0.0675824230 -1 -1
-0.0719533480 -0.0673965430 -1 -1
-0.0742509460 -0.0672715590 -1 -1
-0.0762078970 -0.0672256410 -1 -1
-0.0776591790 -0.0672606260 -1 -1
-0.0785001950 -0.0673610270 -1 -1
-0.0786976860 -0.0674985930 -1 -1
-0.0782867290 -0.0676403130 -1 -1
-0.0773590900 -0.0677561090 -1 -1
-0.0760497280 -0.0678229230 -1 -1
-0.0745235890 -0.0678244130 -1 -1
-0.0729608950 -0.0677480430 -1 -1
-0.0715419190 -0.0675824360 -1 -1
-0.0704336780 -0.0673172980 -1 -1
-0.0697756640 -0.0669463140 -1 -1
-0.0696606320 -0.0664712060 -1 -1
-0.0701153480 -0.0659040020 -1 -1
-0.0710927540 -0.0652658080 -1 -1
-0.0724806660 -0.0645832710 -1 -1
-0.0741192780 -0.0638853500 -1 -1
-0.0758163390 -0.0632012240 -1 -1
-0.0773595780 -0.0625580880 -1 -1
-0.0785348990 -0.0619782280 -1 -1
-0.0791536050 -0.0614761870 -1 -1
-0.0790815690 -0.0610569240 -1 -1
-0.0782596870 -0.0607160710 -1 -1
-0.0767094500 -0.0604430300 -1 -1
-0.0745260140 -0.0602257910 -1 -1
-0.0718655530 -0.0600550860 -1 -1
-0.0689292960 -0.0599257510 -1 -1
-0.0659422100 -0.0598350600 -1 -1
-0.0631285510 -0.0597805790 -1 -1
-0.0606920980 -0.0597597410 -1 -1
-0.0588048850 -0.0597696380 -1 -1
-0.0575996110 -0.0598050840 -1 -1
-0.0571589010 -0.0598574480 -1 -1
-0.0575005470 -0.0599183090 -1 -1
-0.0585649400 -0.0599870070 -1 -1
-0.0602139800 -0.0600759010 -1 -1
-0.0622480100 -0.0602078100 -1 -1
-0.0644384120 -0.0604059390 -1 -1
-0.0665638160 -0.0606823850 -1 -1
-0.0684367380 -0.0610318080 -1 -1
-0.0699158360 -0.0614315420 -1 -1
-0.0709079560 -0.0618448340 -1 -1
-0.0713665990 -0.0622252540 -1 -1
-0.0712905300 -0.0625237460 -1 -1
-0.0707228960 -0.0626985960 -1 -1
-0.0697494010 -0.0627246620 -1 -1
-0.0684928730 -0.0625979320 -1 -1
-0.0671025590 -0.0623351420 -1 -1
-0.0657394100 -0.0619701940 -1 -1
-0.0645591450 -0.0615480430 -1 -1
-0.0636941100 -0.0611165300 -1 -1
-0.0632368780 -0.0607182770 -1 -1
-0.0632301890 -0.0603850770 -1 -1
-0.0636651560 -0.0601357490 -1 -1
-0.0644849940 -0.0599773490 -1 -1
-0.0655911960 -0.0599089930 -1 -1
-0.0668531790 -0.0599262880 -1 -1
-0.0681240130 -0.0600242880 -1 -1
-0.0692602250 -0.0601980740 -1 -1
-0.0701389510 -0.0604412200 -1 -1
-0.0706670490 -0.0607434710 -1 -1
-0.0707828080 -0.0610896530 -1 -1
-0.0704558210 -0.0614602390 -1 -1
-0.0696899560 -0.0618318500 -1 -1
-0.0685288150 -0.0621770630 -1 -1
-0.0670583150 -0.0624656450 -1 -1
-0.0654015230 -0.0626683110 -1 -1
-0.0637057580 -0.0627610790 -1 -1
-0.0621267270 -0.0627280850 -1 -1
-0.0608136420 -0.0625630480 -1 -1
-0.0598939590 -0.0622708210 -1 -1
-0.0594559840 -0.0618690640 -1 -1
-0.0595331740 -0.0613883020 -1 -1
-0.0600968080 -0.0608690320 -1 -1
-0.0610602110 -0.0603565750 -1 -1
-0.0622929650 -0.0598957640 -1 -1
-0.0636408660 -0.0595272450 -1 -1
-0.0649467650 -0.0592852240 -1 -1
-0.0660682610 -0.0591946190 -1 -1
-0.0668900850 -0.0592661100 -1 -1
-0.0673302130 -0.0594910020 -1 -1
-0.0673403690 -0.0598399290 -1 -1
-0.0669049790 -0.0602674600 -1 -1
-0.0660433560 -0.0607207540 -1 -1
-0.0648135960 -0.0611477960 -1 -1
-0.0633117200 -0.0615019940 -1 -1
-0.0616630760 -0.0617439810 -1 -1
-0.0600088270 -0.0618435800 -1 -1
-0.0584917680 -0.0617832950 -1 -1
-0.0572430690 -0.0615623430 -1 -1
-0.0563691040 -0.0611989670 -1 -1
-0.0559393960 -0.0607288490 -1 -1
-0.0559799180 -0.0601993000 -1 -1
-0.0564745150 -0.0596614520 -1 -1
-0.0573725480 -0.0591637470 -1 -1
-0.0585979200 -0.0587482620 -1 -1
-0.0600550690 -0.0584486780 -1 -1
-0.0616313290 -0.0582881870 -1 -1
-0.0631998410 -0.0582773630 -1 -1
-0.0646280310 -0.0584130450 -1 -1
-0.0657919040 -0.0586788760 -1 -1
-0.0665917860 -0.0590475140 -1 -1
-0.0669658120 -0.0594840030 -1 -1
-0.0668994900 -0.0599495960 -1 -1
-0.0664294260 -0.0604055890 -1 -1
-0.0656399960 -0.0608169090 -1 -1
-0.0646533170 -0.0611551880 -1 -1
-0.0636138850 -0.0614009590 -1 -1
-0.0626710990 -0.0615443190 -1 -1
-0.0619638880 -0.0615833810 -1 -1
-0.0616090470 -0.0615210260 -1 -1
-0.0616916860 -0.0613616500 -1 -1
-0.0622562440 -0.0611094200 -1 -1
-0.0632990050 -0.0607684030 -1 -1
-0.0647649460 -0.0603438790 -1 -1
-0.0665515340 -0.0598442510 -1 -1
-0.0685192530 -0.0592833780 -1 -1
-0.0705059410 -0.0586824850 -1 -1
-0.0723419560 -0.0580700990 -1 -1
-0.0738646560 -0.0574791490 -1 -1
-0.0749327730 -0.0569417970 -1 -1
-0.0754418150 -0.0564841150 -1 -1
-0.0753391350 -0.0561230000 -1 -1
-0.0746341670 -0.0558658840 -1 -1
-0.0733989670 -0.0557119140 -1 -1
-0.0717578450 -0.0556534320 -1 -1
-0.0698695320 -0.0556776620 -1 -1
-0.0679069650 -0.0557691740 -1 -1
-0.0660384300 -0.0559134730 -1 -1
-0.0644118530 -0.0561007440 -1 -1
-0.0631429480 -0.0563275770 -1 -1
-0.0623075790 -0.0565950740 -1 -1
-0.0619380650 -0.0569043580 -1 -1
-0.0620223000 -0.0572523590 -1 -1
-0.0625052400 -0.0576299020 -1 -1
-0.0632933480 -0.0580226870 -1 -1
-0.0642624080 -0.0584152540 -1 -1
-0.0652690770 -0.0587969180 -1 -1
-0.0661662530 -0.0591660700 -1 -1
-0.0668205250 -0.0595286750 -1 -1
-0.0671284580 -0.0598909430 -1 -1
-0.0670280780 -0.0602510580 -1 -1
-0.0665023470 -0.0605947900 -1 -1
-0.0655750650 -0.0608961730 -1 -1
-0.0643041440 -0.0611223910 -1 -1
-0.0627765930 -0.0612414980 -1 -1
-0.0611047500 -0.0612305200 -1 -1
-0.0594206070 -0.0610808740 -1 -1
-0.0578660170 -0.0607995080 -1 -1
-0.0565790390 -0.0604064960 -1 -1
-0.0556792660 -0.0599310530 -1 -1
-0.0552552890 -0.0594074340 -1 -1
-0.0553547020 -0.0588709540 -1 -1
-0.0559758980 -0.0583539310 -1 -1
-0.0570638200 -0.0578819600 -1 -1
-0.0585135810 -0.0574720640 -1 -1
-0.0601822420 -0.0571343430 -1 -1
-0.0619046840 -0.0568761150 -1 -1
-0.0635110220 -0.0567038930 -1 -1
-0.0648465480 -0.0566196510 -1 -1
-0.0657918520 -0.0566138100 -1 -1
-0.0662747830 -0.0566606940 -1 -1
-0.0662693010 -0.0567191950 -1 -1
-0.0657868260 -0.0567371180 -1 -1
-0.0648705340 -0.0566572100 -1 -1
-0.0635971530 -0.0564243390 -1 -1
-0.0620807670 -0.0559930950 -1 -1
-0.0604693330 -0.0553348140 -1 -1
-0.0589298570 -0.0544443770 -1 -1
-0.0576257040 -0.0533469060 -1 -1
-0.0566931850 -0.0521011250 -1 -1
-0.0562238220 -0.0507952570 -1 -1
-0.0562553620 -0.0495349700 -1 -1
-0.0567711280 -0.0484269060 -1 -1
-0.0577055870 -0.0475624670 -1 -1
-0.0589535090 -0.0470054390 -1 -1
-0.0603806520 -0.0467849380 -1 -1
-0.0618353470 -0.0468936250 -1 -1
-0.0631607150 -0.0472907560 -1 -1
-0.0642089870 -0.0479093700 -1 -1
-0.0648613650 -0.0486661270 -1 -1
-0.0650507060 -0.0494713120 -1 -1
-0.0647759870 -0.0502366320 -1 -1
-0.0641004890 -0.0508809280 -1 -1
-0.0631359890 -0.0513366790 -1 -1
-0.0620213160 -0.0515588300 -1 -1
-0.0609021940 -0.0515330040 -1 -1
-0.0599133740 -0.0512782130 -1 -1
-0.0591616690 -0.0508420870 -1 -1
-0.0587138730 -0.0502908680 -1 -1
-0.0585968990 -0.0496977670 -1 -1
-0.0588097190 -0.0491322280 -1 -1
-0.0593359750 -0.0486513370 -1 -1
-0.0601473490 -0.0482943010 -1 -1
-0.0611989300 -0.0480807630 -1 -1
-0.0624238770 -0.0480128370 -1 -1
-0.0637316650 -0.0480790810 -1 -1
-0.0650107600 -0.0482580000 -1 -1
-0.0661359390 -0.0485205280 -1 -1
-0.0669794770 -0.0488330080 -1 -1
-0.0674239830 -0.0491615190 -1 -1
-0.0673753140 -0.0494761310 -1 -1
-0.0667757930 -0.0497531600 -1 -1
-0.0656169940 -0.0499750840 -1 -1
-0.0639487910 -0.0501292920 -1 -1
-0.0618812720 -0.0502071210 -1 -1
-0.0595779160 -0.0502039710 -1 -1
-0.0572395650 -0.0501201230 -1 -1
-0.0550801100 -0.0499610720 -1 -1
-0.0532983320 -0.0497367740 -1 -1
-0.0520533770 -0.0494608780 -1 -1
-0.0514493170 -0.0491511430 -1 -1
-0.0515275970 -0.0488302230 -1 -1
-0.0522628620 -0.0485247010 -1 -1
-0.0535617870 -0.0482614970 -1 -1
-0.0552693290 -0.0480628960 -1 -1
-0.0571860370 -0.0479424650 -1 -1
-0.0590951500 -0.0479034040 -1 -1
-0.0607921070 -0.0479395390 -1 -1
-0.0621067810 -0.0480384930 -1 -1
-0.0629154720 -0.0481857740 -1 -1
-0.0631480580 -0.0483673340 -1 -1
-0.0627937870 -0.0485690880 -1 -1
-0.0619025760 -0.0487748660 -1 -1
-0.0605793360 -0.0489653870 -1 -1
-0.0589736970 -0.0491189280 -1 -1
-0.0572667910 -0.0492126340 -1 -1
-0.0556525200 -0.0492241750 -1 -1
-0.0543119260 -0.0491352840 -1 -1
-0.0533856840 -0.0489376680 -1 -1
-0.0529540360 -0.0486384640 -1 -1
-0.0530312120 -0.0482611360 -1 -1
-0.0535743620 -0.0478406260 -1 -1
-0.0545001920 -0.0474158790 -1 -1
-0.0557002160 -0.0470239380 -1 -1
-0.0570503580 -0.0466972550 -1 -1
-0.0584179770 -0.0464628670 -1 -1
-0.0596702450 -0.0463414410 -1 -1
-0.0606830610 -0.0463454050 -1 -1
-0.0613479820 -0.0464766970 -1 -1
-0.0615772010 -0.0467250650 -1 -1
-0.0613085610 -0.0470679850 -1 -1
-0.0605121760 -0.0474731070 -1 -1
-0.0591982990 -0.0479035170 -1 -1
-0.0574240420 -0.0483249220 -1 -1
-0.0552962460 -0.0487122540 -1 -1
-0.0529690730 -0.0490527490 -1 -1
-0.0506343600 -0.0493440890 -1 -1
-0.0485017630 -0.0495891470 -1 -1
-0.0467707340 -0.0497905330 -1 -1
-0.0456033730 -0.0499470510 -1 -1
-0.0451056430 -0.0500518200 -1 -1
-0.0453170560 -0.0500917710 -1 -1
-0.0462063840 -0.0500497330 -1 -1
-0.0476743750 -0.0499093940 -1 -1
-0.0495655910 -0.0496607690 -1 -1
-0.0516870800 -0.0493036970 -1 -1
-0.0538281510 -0.0488488990 -1 -1
-0.0557783520 -0.0483171910 -1 -1
-0.0573454270 -0.0477371960 -1 -1
-0.0583754170 -0.0471422770 -1 -1
-0.0587726960 -0.0465677460 -1 -1
-0.0585136440 -0.0460476540 -1 -1
-0.0576486560 -0.0456094970 -1 -1
-0.0562915050 -0.0452673690 -1 -1
-0.0545995760 -0.0450169360 -1 -1
-0.0527519970 -0.0448353780 -1 -1
-0.0509319600 -0.0446865110 -1 -1
-0.0493140030 -0.0445290590 -1 -1
-0.0480522280 -0.0443261730 -1 -1
-0.0472660110 -0.0440546690 -1 -1
-0.0470242560 -0.0437114850 -1 -1
-0.0473338070 -0.0433147270 -1 -1
-0.0481383730 -0.0428990000 -1 -1
-0.0493294330 -0.0425074450 -1 -1
-0.0507644460 -0.0421834560 -1 -1
-0.0522866090 -0.0419637860 -1 -1
-0.0537431310 -0.0418735660 -1 -1
-0.0550002960 -0.0419234750 -1 -1
-0.0559536760 -0.0421092090 -1 -1
-0.0565335320 -0.0424128720 -1 -1
-0.0567073580 -0.0428052310 -1 -1
-0.0564802080 -0.0432475630 -1 -1
-0.0558905790 -0.0436931400 -1 -1
-0.0550010100 -0.0440903050 -1 -1
-0.0538880340 -0.0443888120 -1 -1
-0.0526377850 -0.0445486800 -1 -1
-0.0513473100 -0.0445486050 -1 -1
-0.0501256650 -0.0443902140 -1 -1
-0.0490891660 -0.0440966210 -1 -1
-0.0483490830 -0.0437072010 -1 -1
-0.0479954710 -0.0432709670 -1 -1
-0.0480842760 -0.0428390530 -1 -1
-0.0486318790 -0.0424566550 -1 -1
-0.0496152540 -0.0421554420 -1 -1
-0.0509740890 -0.0419470770 -1 -1
-0.0526136450 -0.0418185730 -1 -1
-0.0544092920 -0.0417316360 -1 -1
-0.0562139670 -0.0416290150 -1 -1
-0.0578692460 -0.0414486740 -1 -1
-0.0592198170 -0.0411422440 -1 -1
-0.0601300780 -0.0406908610 -1 -1
-0.0605009790 -0.0401115510 -1 -1
-0.0602850070 -0.0394515330 -1 -1
-0.0594970360 -0.0387739390 -1 -1
-0.0582178970 -0.0381423770 -1 -1
-0.0565873590 -0.0376105520 -1 -1
-0.0547866880 -0.0372180940 -1 -1
-0.0530164720 -0.0369893380 -1 -1
-0.0514755980 -0.0369316140 -1 -1
-0.0503410900 -0.0370330750 -1 -1
-0.0497468040 -0.0372634710 -1 -1
-0.0497650880 -0.0375806180 -1 -1
-0.0503980040 -0.0379408840 -1 -1
-0.0515799570 -0.0383083070 -1 -1
-0.0531895180 -0.0386582410 -1 -1
-0.0550665490 -0.0389764620 -1 -1
-0.0570295200 -0.0392574710 -1 -1
-0.0588904670 -0.0395039770 -1 -1
-0.0604693400 -0.0397268310 -1 -1
-0.0616099270 -0.0399437070 -1 -1
-0.0621968030 -0.0401750550 -1 -1
-0.0621704320 -0.0404373510 -1 -1
-0.0615373220 -0.0407363490 -1 -1
-0.0603727630 -0.0410639970 -1 -1
-0.0588137050 -0.0414005630 -1 -1
-0.0570414990 -0.0417202220 -1 -1
-0.0552578810 -0.0419970850 -1 -1
-0.0536591960 -0.0422098870 -1 -1
-0.0524135860 -0.0423451780 -1 -1
-0.0516454350 -0.0423989250 -1 -1
-0.0514292810 -0.0423761360 -1 -1
-0.0517901990 -0.0422886070 -1 -1
-0.0527041110 -0.0421518130 -1 -1
-0.0540957460 -0.0419822550 -1 -1
-0.0558390920 -0.0417955910 -1 -1
-0.0577660590 -0.0416050760 -1 -1
-0.0596843940 -0.0414202140 -1 -1
-0.0614008160 -0.0412456960 -1 -1
-0.0627427770 -0.0410804600 -1 -1
-0.0635747150 -0.0409172630 -1 -1
-0.0638100870 -0.0407433750 -1 -1
-0.0634213740 -0.0405423170 -1 -1
-0.0624460660 -0.0402964270 -1 -1
-0.0609845360 -0.0399906430 -1 -1
-0.0591881870 -0.0396171630 -1 -1
-0.0572411370 -0.0391790060 -1 -1
-0.0553409310 -0.0386902600 -1 -1
-0.0536796180 -0.0381727510 -1 -1
-0.0524224610 -0.0376510870 -1 -1
-0.0516856000 -0.0371483320 -1 -1
-0.0515198430 -0.0366833260 -1 -1
-0.0519054310 -0.0362694670 -1 -1
-0.0527569140 -0.0359144440 -1 -1
-0.0539368690 -0.0356205490 -1 -1
-0.0552776830 -0.0353852070 -1 -1
-0.0566061410 -0.0352014910 -1 -1
-0.0577628570 -0.0350590050 -1 -1
-0.0586129100 -0.0349454450 -1 -1
-0.0590500630 -0.0348482270 -1 -1
-0.0589993640 -0.0347549990 -1 -1
-0.0584214830 -0.0346526310 -1 -1
-0.0573189010 -0.0345258140 -1 -1
-0.0557419620 -0.0343571100 -1 -1
-0.0537917220 -0.0341295620 -1 -1
-0.0516158850 -0.0338312350 -1 -1
-0.0493952600 -0.0334598080 -1 -1
-0.0473224310 -0.0330255240 -1 -1
-0.0455781930 -0.0325517930 -1 -1
-0.0443106680 -0.0320734180 -1 -1
-0.0436195760 -0.0316326500 -1 -1
-0.0435475120 -0.0312729430 -1 -1
-0.0440788890 -0.0310303840 -1 -1
-0.0451451940 -0.0309251670 -1 -1
-0.0466350080 -0.0309575190 -1 -1
-0.0484072590 -0.0311104630 -1 -1
-0.0503050970 -0.0313573010 -1 -1
-0.0521683920 -0.0316693900 -1 -1
-0.0538452050 -0.0320211370 -1 -1
-0.0552023500 -0.0323915830 -1 -1
-0.0561330560 -0.0327634500 -1 -1
-0.0565612470 -0.0331212130 -1 -1
-0.0564458550 -0.0334497940 -1 -1
