-0.0231002100 0.0024805940 0 0
-0.0232378010 0.0039800850 0 0
-0.0235448920 0.0051313960 0 0
-0.0240044940 0.0058411820 0 0
-0.0245832710 0.0060521300 0 0
-0.0252373380 0.0057520920 0 0
-0.0259184650 0.0049761280 0 0
-0.0265793710 0.0038015260 0 0
-0.0271778710 0.0023388910 0 0
-0.0276801090 0.0007214010 0 0
-0.0280630210 -0.0009067220 0 0
-0.0283153400 -0.0024017700 0 0
-0.0284360580 -0.0036324120 0 0
-0.0284308020 -0.0044918980 0 0
-0.0283078820 -0.0049086660 0 0
-0.0280754180 -0.0048536280 0 0
-0.0277403640 -0.0043446930 0 0
-0.0273101930 -0.0034486070 0 0
-0.0267969380 -0.0022777160 0 0
-0.0262212630 -0.0009798590 0 0
-0.0256137250 0.0002773820 0 0
-0.0250128600 0.0013254790 0 0
-0.0244620840 0.0020150320 0 0
-0.0240065330 0.0022356360 0 0
-0.0236893910 0.0019325340 0 0
-0.0235473140 0.0011159220 0 0
-0.0236049030 -0.0001397620 0 0
-0.0238686610 -0.0017066700 0 0
-0.0243225760 -0.0034216430 0 0
-0.0249281860 -0.0051061900 0 0
-0.0256300270 -0.0065841060 0 0
-0.0263644980 -0.0076967620 0 0
-0.0270689300 -0.0083185180 0 0
-0.0276886100 -0.0083726980 0 0
-0.0281810850 -0.0078453200 0 0
-0.0285183040 -0.0067916580 0 0
-0.0286878190 -0.0053304490 0 0
-0.0286937800 -0.0036239810 0 0
-0.0285569240 -0.0018488550 0 0
-0.0283120010 -0.0001672870 0 0
-0.0280022880 0.0012909840 0 0
-0.0276729500 0.0024322370 0 0
-0.0273655630 0.0031929570 0 0
-0.0271144240 0.0035342700 0 0
-0.0269437290 0.0034424590 0 0
-0.0268654760 0.0029340880 0 0
-0.0268789130 0.0020600060 0 0
-0.0269716130 0.0009041810 0 0
-0.0271214610 -0.0004229440 0 0
-0.0272994680 -0.0017944580 0 0
-0.0274738990 -0.0030775930 0 0
-0.0276154640 -0.0041436330 0 0
-0.0277019660 -0.0048776180 0 0
-0.0277206500 -0.0051884720 0 0
-0.0276681470 -0.0050197070 0 0
-0.0275498570 -0.0043596370 0 0
-0.0273801630 -0.0032479300 0 0
-0.0271827220 -0.0017749270 0 0
-0.0269891110 -0.0000723536 0 0
-0.0268350210 0.0017027820 0 0
-0.0267546680 0.0033875650 0 0
-0.0267749740 0.0048324080 0 0
-0.0269112340 0.0059172450 0 0
-0.0271651850 0.0065623800 0 0
-0.0275257350 0.0067331950 0 0
-0.0279720850 0.0064392310 0 0
-0.0284776790 0.0057293700 0 0
-0.0290126230 0.0046856190 0 0
-0.0295437520 0.0034169390 0 0
-0.0300341890 0.0020524770 -1 0
-0.0304450040 0.0007325930 -1 0
-0.0307401660 -0.0004039190 -1 0
-0.0308938590 -0.0012367900 -1 0
-0.0308973980 -0.0016822190 -1 0
-0.0307624860 -0.0017058300 -1 0
-0.0305192100 -0.0013259500 -1 0
-0.0302098680 -0.0006073330 -1 0
-0.0298810000 0.0003509200 0 0
-0.0295755820 0.0014291570 0 0
-0.0293270080 0.0025000200 0 0
-0.0291561940 0.0034393590 0 0
-0.0290720500 0.0041355750 0 0
-0.0290739810 0.0044979370 0 0
-0.0291548660 0.0044638190 0 0
-0.0293041700 0.0040040980 0 0
-0.0295109520 0.0031256570 0 0
-0.0297651980 0.0018705610 0 0
-0.0300557510 0.0003126760 -1 0
-0.0303656170 -0.0014467950 -1 0
-0.0306682660 -0.0032839430 -1 0
-0.0309283140 -0.0050582320 -1 0
-0.0311067850 -0.0066232070 -1 0
-0.0311683090 -0.0078431920 -1 0
-0.0310874960 -0.0086118460 -1 0
-0.0308530190 -0.0088653610 -1 0
-0.0304689440 -0.0085866740 -1 0
-0.0299539000 -0.0078022180 0 0
-0.0293393350 -0.0065741330 0 0
-0.0286672890 -0.0049909930 0 0
-0.0279870260 -0.0031603360 0 0
-0.0273500560 -0.0012037470 0 0
-0.0268041410 0.0007482180 0 0
-0.0263877210 0.0025637470 0 0
-0.0261261150 0.0041201560 0 0
-0.0260297360 0.0053154990 0 0
-0.0260939770 0.0060794990 0 0
-0.0263007030 0.0063818450 0 0
-0.0266210990 0.0062366920 0 0
-0.0270192410 0.0057031100 0 0
-0.0274557060 0.0048812620 0 0
-0.0278902270 0.0039037130 0 0
-0.0282826470 0.0029218210 0 0
-0.0285935400 0.0020881550 0 0
-0.0287876870 0.0015363190 0 0
-0.0288413360 0.0013616140 0 0
-0.0287496140 0.0016079220 0 0
-0.0285293130 0.0022632080 0 0
-0.0282157300 0.0032615560 0 0
-0.0278554990 0.0044896870 0 0
-0.0274984760 0.0057985430 0 0
-0.0271912030 0.0070202440 0 0
-0.0269725650 0.0079881730 0 0
-0.0268704430 0.0085571120 0 0
-0.0268984520 0.0086215060 0 0
-0.0270534500 0.0081300550 0 0
-0.0273151920 0.0070937140 0 0
-0.0276490130 0.0055848540 0 0
-0.0280112500 0.0037286730 0 0
-0.0283560530 0.0016900410 0 0
-0.0286419200 -0.0003425600 0 0
-0.0288367880 -0.0021760730 0 0
-0.0289208090 -0.0036338710 0 0
-0.0288860700 -0.0045753440 0 0
-0.0287337400 -0.0049101200 0 0
-0.0284710780 -0.0046053110 0 0
-0.0281106940 -0.0036865920 0 0
-0.0276720430 -0.0022341580 0 0
-0.0271830040 -0.0003742340 0 0
-0.0266796270 0.0017323760 0 0
-0.0262034100 0.0039034960 0 0
-0.0257965990 0.0059511810 0 0
-0.0254966360 0.0077004110 0 0
-0.0253312340 0.0090084080 0 0
-0.0253152500 0.0097795430 0 0
-0.0254494620 0.0099719840 0 0
-0.0257207510 0.0095959110 0 0
-0.0261032520 0.0087064220 0 0
-0.0265607600 0.0073949560 0 0
-0.0270507560 0.0057814860 0 0
-0.0275293750 0.0040073190 0 0
-0.0279558600 0.0022267330 0 0
-0.0282957120 0.0005953650 0 0
-0.0285223200 -0.0007440770 0 0
-0.0286172120 -0.0016751080 0 0
-0.0285699720 -0.0021168750 0 0
-0.0283791710 -0.0020301460 0 0
-0.0280544650 -0.0014211610 0 0
-0.0276187640 -0.0003430530 0 0
-0.0271088070 0.0011068230 0 0
-0.0265725400 0.0027949480 0 0
-0.0260635160 0.0045643360 0 0
-0.0256341620 0.0062494270 0 0
-0.0253294440 0.0076909700 0 0
-0.0251814750 0.0087504190 0 0
-0.0252054550 0.0093242930 0 0
-0.0253975400 0.0093577000 0 0
-0.0257351900 0.0088540950 0 0
-0.0261802550 0.0078773160 0 0
-0.0266845700 0.0065429450 0 0
-0.0271970190 0.0050004880 0 0
-0.0276703870 0.0034130990 0 0
-0.0280668260 0.0019415750 0 0
-0.0283617920 0.0007340430 0 0
-0.0285459310 -0.0000818861 0 0
-0.0286237230 -0.0004072430 0 0
-0.0286090400 -0.0001801700 0 0
-0.0285205460 0.0006157880 0 0
-0.0283804970 0.0019441310 0 0
-0.0282170150 0.0037114970 0 0
-0.0280656000 0.0057720330 0 0
-0.0279660010 0.0079416220 0 0
-0.0279551160 0.0100189240 0 0
-0.0280598390 0.0118082840 0 0
-0.0282931290 0.0131400390 0 0
-0.0286538050 0.0138862700 0 0
-0.0291282250 0.0139731070 0 0
-0.0296917710 0.0133901090 0 0
-0.0303096460 0.0121944470 -1 0
-0.0309381520 0.0105075220 -1 0
-0.0315276970 0.0085032660 -1 0
-0.0320274720 0.0063887930 -1 0
-0.0323905300 0.0043801460 -1 0
-0.0325785080 0.0026780170 -1 0
-0.0325663020 0.0014479890 -1 0
-0.0323466940 0.0008070920 -1 0
-0.0319336940 0.0008156280 -1 0
-0.0313633130 0.0014722640 -1 0
-0.0306911960 0.0027119960 -1 0
-0.0299866270 0.0044091470 0 0
-0.0293229700 0.0063882040 0 0
-0.0287664970 0.0084428900 0 0
-0.0283667340 0.0103606280 0 0
-0.0281505800 0.0119482920 0 0
-0.0281209940 0.0130549970 0 0
-0.0282599590 0.0135880260 0 0
-0.0285345180 0.0135198170 0 0
-0.0289037240 0.0128858580 0 0
-0.0293241230 0.0117747710 0 0
-0.0297524160 0.0103139040 0 0
-0.0301460440 0.0086545850 -1 0
-0.0304636950 0.0069581450 -1 0
-0.0306669970 0.0053815150 -1 0
-0.0307236120 0.0040633280 -1 0
-0.0306115890 0.0031132990 -1 0
-0.0303236220 0.0026057550 -1 0
-0.0298690710 0.0025756810 0 0
-0.0292731330 0.0030156670 0 0
-0.0285741500 0.0038747520 0 0
-0.0278200030 0.0050619900 0 0
-0.0270639020 0.0064553910 0 0
-0.0263596750 0.0079136180 0 0
-0.0257569410 0.0092880480 0 0
-0.0252967400 0.0104343090 0 0
-0.0250082870 0.0112233730 0 0
-0.0249071360 0.0115539120 0 0
-0.0249943300 0.0113663990 0 0
-0.0252561130 0.0106547310 0 0
-0.0256645310 0.0094706830 0 0
-0.0261794890 0.0079211740 0 0
-0.0267525010 0.0061603640 0 0
-0.0273322290 0.0043758490 0 0
-0.0278718700 0.0027668730 0 0
-0.0283369320 0.0015161410 0 0
-0.0287102340 0.0007617920 0 0
-0.0289922040 0.0005769560 0 0
-0.0291975360 0.0009616860 0 0
-0.0293505470 0.0018486180 0 0
-0.0294804290 0.0031198370 0 0
-0.0296165160 0.0046291340 0 0
-0.0297837590 0.0062231920 0 0
-0.0299988520 0.0077576850 0 0
-0.0302675800 0.0091073600 -1 0
-0.0305840120 0.0101715600 -1 0
-0.0309316480 0.0108771890 -1 0
-0.0312854860 0.0111798750 -1 0
-0.0316140710 0.0110636560 -1 0
-0.0318819400 0.0105401200 -1 0
-0.0320532560 0.0096481780 -1 0
-0.0320960930 0.0084551480 -1 0
-0.0319861920 0.0070578150 -1 0
-0.0317101360 0.0055796070 -1 0
-0.0312683680 0.0041617280 -1 0
-0.0306770890 0.0029504020 -1 0
-0.0299669050 0.0020828200 0 0
-0.0291781310 0.0016717590 0 0
-0.0283555880 0.0017893040 0 0
-0.0275453300 0.0024529330 0 0
-0.0267929580 0.0036179060 0 0
-0.0261418820 0.0051785710 0 0
-0.0256309250 0.0069799370 0 0
-0.0252914900 0.0088383650 0 0
-0.0251443980 0.0105661030 0 0
-0.0251970180 0.0119934470 0 0
-0.0254425940 0.0129853570 0 0
-0.0258631380 0.0134518000 0 0
-0.0264342340 0.0133524690 0 0
-0.0271277170 0.0126981440 0 0
-0.0279099330 0.0115498730 0 0
-0.0287375380 0.0100148620 0 0
-0.0295553970 0.0082384310 0 0
-0.0302997720 0.0063934740 -1 0
-0.0309062340 0.0046681000 -1 0
-0.0313192510 0.0032492920 -1 0
-0.0315008180 0.0023002330 -1 0
-0.0314369120 0.0019343900 -1 0
-0.0311409610 0.0021958140 -1 0
-0.0306536470 0.0030539740 -1 0
-0.0300388820 0.0044128780 -1 0
-0.0293758230 0.0061275890 0 0
-0.0287468190 0.0080220010 0 0
-0.0282234680 0.0099064600 0 0
-0.0278557870 0.0115958320 0 0
-0.0276684900 0.0129273250 0 0
-0.0276639290 0.0137761760 0 0
-0.0278281340 0.0140676560 0 0
-0.0281366520 0.0137846180 0 0
-0.0285586050 0.0129700790 0 0
-0.0290590160 0.0117236290 0 0
-0.0296004870 0.0101903740 0 0
-0.0301455440 0.0085431590 -1 0
-0.0306602090 0.0069611880 -1 0
-0.0311176940 0.0056085340 -1 0
-0.0315005270 0.0046151530 -1 0
-0.0318003780 0.0040627640 -1 0
-0.0320159490 0.0039779240 -1 0
-0.0321498950 0.0043337600 -1 0
-0.0322062890 0.0050596320 -1 0
-0.0321901840 0.0060553350 -1 0
-0.0321092530 0.0072056750 -1 0
-0.0319757650 0.0083927180 -1 0
-0.0318074030 0.0095045670 -1 0
-0.0316263290 0.0104409970 -1 0
-0.0314562850 0.0111174340 -1 0
-0.0313183040 0.0114689890 -1 0
-0.0312264160 0.0114562050 -1 0
-0.0311848010 0.0110730300 -1 0
-0.0311871110 0.0103549200 -1 0
-0.0312177240 0.0093833200 -1 0
-0.0312540710 0.0082826140 -1 0
-0.0312697150 0.0072065930 -1 0
-0.0312387250 0.0063161000 -1 0
-0.0311412450 0.0057551110 -1 0
-0.0309685460 0.0056324010 -1 0
-0.0307254840 0.0060109970 -1 0
-0.0304296710 0.0069042960 -1 0
-0.0301079190 0.0082765240 -1 0
-0.0297907140 0.0100446990 0 0
-0.0295057510 0.0120807580 0 0
-0.0292724490 0.0142161940 0 0
-0.0290996680 0.0162540930 0 0
-0.0289876480 0.0179902800 0 0
-0.0289333450 0.0192390630 0 0
-0.0289361720 0.0198569660 0 0
-0.0290002170 0.0197604770 0 0
-0.0291314490 0.0189361160 0 0
-0.0293325020 0.0174426880 0 0
-0.0295982320 0.0154068430 0 0
-0.0299130590 0.0130128190 0 0
-0.0302506420 0.0104862650 -1 0
-0.0305769940 0.0080720900 -1 0
-0.0308566720 0.0060078750 -1 0
-0.0310593660 0.0044968470 -1 0
-0.0311638980 0.0036852220 -1 0
-0.0311587430 0.0036470550 -1 0
-0.0310405520 0.0043777940 -1 0
-0.0308129950 0.0057970460 -1 0
-0.0304872870 0.0077603320 -1 0
-0.0300834080 0.0100773140 -1 0
-0.0296294800 0.0125323240 0 0
-0.0291580800 0.0149038500 0 0
-0.0287010680 0.0169809650 0 0
-0.0282855510 0.0185763380 0 0
-0.0279319110 0.0195386240 0 0
-0.0276532620 0.0197677910 0 0
-0.0274557820 0.0192324060 0 0
-0.0273395270 0.0179825700 0 0
-0.0272992150 0.0161508970 0 0
-0.0273247140 0.0139375590 0 0
-0.0274011690 0.0115825050 0 0
-0.0275087950 0.0093332240 0 0
-0.0276232450 0.0074156820 0 0
-0.0277180690 0.0060116130 0 0
-0.0277691060 0.0052423030 0 0
-0.0277585790 0.0051597360 0 0
-0.0276772150 0.0057473120 0 0
-0.0275247920 0.0069294260 0 0
-0.0273106080 0.0085847340 0 0
-0.0270542080 0.0105590540 0 0
-0.0267845540 0.0126783760 0 0
-0.0265355910 0.0147635380 0 0
-0.0263389940 0.0166456030 0 0
-0.0262179050 0.0181794730 0 0
-0.0261847340 0.0192552170 0 0
-0.0262417390 0.0198084870 0 0
-0.0263809350 0.0198286770 0 0
-0.0265828420 0.0193603630 0 0
-0.0268171970 0.0184958200 0 0
-0.0270479740 0.0173611710 0 0
-0.0272407940 0.0161007290 0 0
-0.0273681150 0.0148634080 0 0
-0.0274101100 0.0137926940 0 0
-0.0273535710 0.0130181740 0 0
-0.0271919530 0.0126453920 0 0
-0.0269269660 0.0127432560 0 0
-0.0265698080 0.0133314750 0 0
-0.0261406420 0.0143716560 0 0
-0.0256669720 0.0157655010 0 0
-0.0251820400 0.0173630430 0 0
-0.0247227670 0.0189815840 0 0
-0.0243267180 0.0204307600 0 0
-0.0240293210 0.0215356920 0 0
-0.0238621520 0.0221536540 0 0
-0.0238508890 0.0221855070 0 0
-0.0240115660 0.0215840400 0 0
-0.0243458020 0.0203582170 0 0
-0.0248371290 0.0185713630 0 0
-0.0254509980 0.0163340250 0 0
-0.0261400630 0.0137942960 0 0
-0.0268529370 0.0111275690 0 0
-0.0275419680 0.0085262190 0 0
-0.0281668670 0.0061890230 0 0
-0.0286945650 0.0043089350 0 0
-0.0290977950 0.0030569680 0 0
-0.0293550960 0.0025623250 0 0
-0.0294535480 0.0028930040 0 0
-0.0293930590 0.0040425440 0 0
-0.0291893200 0.0059262680 0 0
-0.0288733690 0.0083877860 0 0
-0.0284874040 0.0112152770 0 0
-0.0280775010 0.0141649950 0 0
-0.0276857970 0.0169876300 0 0
-0.0273456150 0.0194540900 0 0
-0.0270804480 0.0213791600 0 0
-0.0269046120 0.0226416350 0 0
-0.0268234550 0.0231971700 0 0
-0.0268332590 0.0230782430 0 0
-0.0269219280 0.0223804320 0 0
-0.0270706080 0.0212427210 0 0
-0.0272554320 0.0198301190 0 0
-0.0274488410 0.0183197150 0 0
-0.0276207440 0.0168870390 0 0
-0.0277402410 0.0156899090 0 0
-0.0277787100 0.0148488820 0 0
-0.0277140420 0.0144288910 0 0
-0.0275346710 0.0144310420 0 0
-0.0272422850 0.0147983390 0 0
-0.0268522050 0.0154302520 0 0
-0.0263904050 0.0162001670 0 0
-0.0258880600 0.0169731670 0 0
-0.0253766580 0.0176215220 0 0
-0.0248858260 0.0180359560 0 0
-0.0244429800 0.0181344770 0 0
-0.0240722610 0.0178706310 0 0
-0.0237914790 0.0172395660 0 0
-0.0236087030 0.0162791640 0 0
-0.0235214640 0.0150646440 0 0
-0.0235192300 0.0136979690 0 0
-0.0235865900 0.0122970080 0 0
-0.0237045880 0.0109875020 0 0
-0.0238505280 0.0098949240 0 0
-0.0239984570 0.0091331560 0 0
-0.0241213740 0.0087925030 0 0
-0.0241941050 0.0089313110 0 0
-0.0241956220 0.0095724320 0 0
-0.0241110620 0.0107035240 0 0
-0.0239339120 0.0122794090 0 0
-0.0236678790 0.0142249240 0 0
-0.0233280040 0.0164387890 0 0
-0.0229406720 0.0187997090 0 0
-0.0225415510 0.0211736440 0 0
-0.0221714430 0.0234214810 0 0
-0.0218716130 0.0254089550 0 0
-0.0216798470 0.0270189850 0 0
-0.0216272530 0.0281624190 0 0
-0.0217355630 0.0287839300 0 0
-0.0220150270 0.0288640340 0 0
-0.0224628120 0.0284195550 0 0
-0.0230621180 0.0275032290 0 0
-0.0237827340 0.0262015870 0 0
-0.0245833040 0.0246305970 0 0
-0.0254149200 0.0229289890 0 0
-0.0262262160 0.0212478960 0 0
-0.0269703640 0.0197358140 0 0
-0.0276127350 0.0185209860 0 0
-0.0281358570 0.0176950000 0 0
-0.0285387770 0.0173006760 0 0
-0.0288314970 0.0173269300 0 0
-0.0290279170 0.0177121680 0 0
-0.0291407390 0.0183549190 0 0
-0.0291805820 0.0191288010 0 0
-0.0291592890 0.0198998440 0 0
-0.0290943600 0.0205442460 0 0
-0.0290109130 0.0209630770 0 0
-0.0289394420 0.0210913250 0 0
-0.0289096840 0.0209015600 0 0
-0.0289429370 0.0204037020 0 0
-0.0290461130 0.0196424260 0 0
-0.0292094110 0.0186937070 0 0
-0.0294079850 0.0176603470 0 0
-0.0296073620 0.0166644230 0 0
-0.0297707300 0.0158356880 0 0
-0.0298646040 0.0152972170 0 0
-0.0298606580 0.0151497860 0 0
-0.0297353010 0.0154573030 0 0
-0.0294705190 0.0162372640 0 0
-0.0290574790 0.0174588870 0 0
-0.0285016270 0.0190482500 0 0
-0.0278271820 0.0208981610 0 0
-0.0270785240 0.0228800580 0 0
-0.0263160230 0.0248551840 0 0
-0.0256066310 0.0266834510 0 0
-0.0250126120 0.0282309180 0 0
-0.0245822970 0.0293785470 0 0
-0.0243447370 0.0300336450 0 1
-0.0243081020 0.0301419190 0 1
-0.0244610120 0.0296960810 0 0
-0.0247757220 0.0287387730 0 0
-0.0252122100 0.0273600310 0 0
-0.0257229450 0.0256895850 0 0
-0.0262584940 0.0238845020 0 0
-0.0267732930 0.0221144850 0 0
-0.0272302290 0.0205468590 0 0
-0.0276026950 0.0193311250 0 0
-0.0278741050 0.0185836430 0 0
-0.0280363720 0.0183755910 0 0
-0.0280891260 0.0187265760 0 0
-0.0280402250 0.0196028050 0 0
-0.0279069160 0.0209177980 0 0
-0.0277162660 0.0225359310 0 0
-0.0275035460 0.0242811270 0 0
-0.0273079690 0.0259524030 0 0
-0.0271662680 0.0273463690 0 0
-0.0271059540 0.0282846040 0 0
-0.0271407950 0.0286402510 0 0
-0.0272700340 0.0283566220 0 0
-0.0274810590 0.0274541800 0 0
-0.0277540430 0.0260264820 0 0
-0.0280669170 0.0242267920 0 0
-0.0283990930 0.0222472640 0 0
-0.0287326090 0.0202939690 0 0
-0.0290511590 0.0185621610 0 0
-0.0293393450 0.0172152550 0 0
-0.0295833460 0.0163689250 0 0
-0.0297714330 0.0160815710 0 0
-0.0298926800 0.0163531390 0 0
-0.0299347850 0.0171319900 0 0
-0.0298835430 0.0183260020 0 0
-0.0297254270 0.0198132450 0 0
-0.0294526060 0.0214499640 0 0
-0.0290680650 0.0230778420 0 0
-0.0285879640 0.0245347740 0 0
-0.0280399140 0.0256708840 0 0
-0.0274582520 0.0263672540 0 0
-0.0268782070 0.0265517370 0 0
-0.0263303510 0.0262058550 0 0
-0.0258366760 0.0253609930 0 0
-0.0254091590 0.0240880110 0 0
-0.0250501770 0.0224860730 0 0
-0.0247536160 0.0206743220 0 0
-0.0245062680 0.0187873080 0 0
-0.0242894870 0.0169724870 0 0
-0.0240814720 0.0153859780 0 0
-0.0238605940 0.0141825430 0 0
-0.0236095900 0.0134982130 0 0
-0.0233194670 0.0134290940 0 0
-0.0229918960 0.0140139670 0 0
-0.0226397510 0.0152262900 0 0
-0.0222859890 0.0169755570 0 0
-0.0219608440 0.0191156960 0 0
-0.0216974530 0.0214592540 0 0
-0.0215272560 0.0237958510 0 0
-0.0214770270 0.0259118350 0 0
-0.0215681610 0.0276087870 0 0
-0.0218164430 0.0287212070 0 0
-0.0222297660 0.0291343030 0 0
-0.0228038380 0.0288005330 0 0
-0.0235191680 0.0277509720 0 0
-0.0243420280 0.0260975260 0 0
-0.0252288850 0.0240244350 0 0
-0.0261321960 0.0217695140 0 0
-0.0270061060 0.0195965550 0 0
-0.0278111470 0.0177629300 0 0
-0.0285172090 0.0164893500 0 0
-0.0291044720 0.0159375470 0 0
-0.0295627920 0.0161967740 0 0
-0.0298905280 0.0172765510 0 0
-0.0300937720 0.0191040220 -1 0
-0.0301862060 0.0215278650 -1 0
-0.0301888450 0.0243327160 -1 0
-0.0301288580 0.0272647280 -1 0
-0.0300374000 0.0300626330 -1 1
-0.0299467270 0.0324865080 0 1
-0.0298872640 0.0343403600 0 1
-0.0298854140 0.0354891440 0 1
-0.0299622890 0.0358712740 0 1
-0.0301329020 0.0355052810 -1 1
-0.0304052570 0.0344870710 -1 1
-0.0307790000 0.0329745370 -1 1
-0.0312439600 0.0311609630 -1 1
-0.0317801140 0.0292450440 -1 0
-0.0323605050 0.0274072070 -1 0
-0.0329565140 0.0257970380 -1 0
-0.0335427330 0.0245293020 -1 0
-0.0340991750 0.0236819370 -1 0
-0.0346104830 0.0232913410 -1 0
-0.0350633320 0.0233464930 -1 0
-0.0354444970 0.0237876240 -1 0
-0.0357419550 0.0245134340 -1 0
-0.0359488310 0.0253959220 -1 0
-0.0360677600 0.0262984260 -1 0
-0.0361131850 0.0270923280 -1 0
-0.0361098180 0.0276707170 -1 0
-0.0360871750 0.0279593310 -1 0
-0.0360723150 0.0279236760 -1 0
-0.0360835540 0.0275701750 -1 0
-0.0361266730 0.0269412290 -1 0
-0.0361935800 0.0261063290 -1 0
-0.0362626640 0.0251516290 -1 0
-0.0363011440 0.0241694800 -1 0
-0.0362706130 0.0232493020 -1 0
-0.0361349450 0.0224715830 -1 0
-0.0358673340 0.0219050960 -1 0
-0.0354542600 0.0216048830 -1 0
-0.0348967990 0.0216090560 -1 0
-0.0342106600 0.0219352540 -1 0
-0.0334252120 0.0225785310 -1 0
-0.0325805950 0.0235101180 -1 0
-0.0317227540 0.0246752460 -1 0
-0.0308981440 0.0259918960 -1 0
-0.0301498050 0.0273552880 -1 0
-0.0295142110 0.0286485210 0 0
-0.0290173640 0.0297550630 0 0
-0.0286708940 0.0305704130 0 1
-0.0284707610 0.0310124490 0 1
-0.0283996250 0.0310287470 0 1
-0.0284312440 0.0306002360 0 1
-0.0285343200 0.0297441240 0 0
-0.0286744770 0.0285183300 0 0
-0.0288153980 0.0270244100 0 0
-0.0289212240 0.0254033390 0 0
-0.0289610720 0.0238219430 0 0
-0.0289145700 0.0224533340 0 0
-0.0287761870 0.0214562190 0 0
-0.0285560310 0.0209554860 0 0
-0.0282765630 0.0210254950 0 0
-0.0279671390 0.0216785940 0 0
-0.0276586620 0.0228610770 0 0
-0.0273792560 0.0244573970 0 0
-0.0271508080 0.0263026060 0 0
-0.0269861570 0.0282019160 0 0
-0.0268875820 0.0299537880 0 0
-0.0268482540 0.0313717250 0 1
-0.0268569970 0.0323015000 0 1
-0.0269035460 0.0326333220 0 1
-0.0269803880 0.0323108820 0 1
-0.0270802190 0.0313391210 0 1
-0.0271915850 0.0297892030 0 0
-0.0272959290 0.0277963640 0 0
-0.0273681780 0.0255471000 0 0
-0.0273815680 0.0232564640 0 0
-0.0273151600 0.0211408750 0 0
-0.0271604260 0.0193922610 0 0
-0.0269233230 0.0181573370 0 0
-0.0266211990 0.0175253050 0 0
-0.0262769490 0.0175259120 0 0
-0.0259134250 0.0181364900 0 0
-0.0255499590 0.0192935830 0 0
-0.0252018000 0.0209043590 0 0
-0.0248822470 0.0228551960 0 0
-0.0246057560 0.0250171450 0 0
-0.0243897830 0.0272486430 0 0
-0.0242539660 0.0293974300 0 0
-0.0242167860 0.0313062520 0 1
-0.0242911510 0.0328257590 0 1
-0.0244805870 0.0338325860 0 1
-0.0247772710 0.0342473320 0 1
-0.0251630790 0.0340484350 0 1
-0.0256141360 0.0332794740 0 1
-0.0261069170 0.0320477810 0 1
-0.0266223250 0.0305131360 0 1
-0.0271458770 0.0288677140 0 0
-0.0276651540 0.0273112450 0 0
-0.0281667330 0.0260267290 0 0
-0.0286342630 0.0251609870 0 0
-0.0290486040 0.0248119420 0 0
-0.0293902460 0.0250219840 0 0
-0.0296432910 0.0257758070 0 0
-0.0297994160 0.0270030430 0 0
-0.0298603040 0.0285866390 0 0
-0.0298383520 0.0303754520 0 1
-0.0297560780 0.0321981210 0 1
-0.0296433690 0.0338768900 0 1
-0.0295315070 0.0352418190 0 1
-0.0294457280 0.0361457570 0 1
-0.0293999440 0.0364793350 0 1
-0.0293954550 0.0361841580 0 1
-0.0294229440 0.0352616820 0 1
-0.0294665660 0.0337753590 0 1
-0.0295092710 0.0318455510 0 1
-0.0295375740 0.0296385750 0 0
-0.0295432960 0.0273511300 0 0
-0.0295220530 0.0251903330 0 0
-0.0294710490 0.0233502510 0 0
-0.0293882470 0.0219884610 0 0
-0.0292728330 0.0212078900 0 0
-0.0291262670 0.0210474730 0 0
-0.0289542360 0.0214821670 0 0
-0.0287691360 0.0224304490 0 0
-0.0285902810 0.0237661940 0 0
-0.0284395900 0.0253326890 0 0
-0.0283348320 0.0269583100 0 0
-0.0282846950 0.0284730010 0 0
-0.0282876580 0.0297234850 0 0
-0.0283338200 0.0305853290 0 1
-0.0284080390 0.0309712040 0 1
-0.0284932530 0.0308361090 0 1
-0.0285733350 0.0301810630 0 1
-0.0286345450 0.0290558320 0 0
-0.0286651680 0.0275592360 0 0
-0.0286546290 0.0258339950 0 0
-0.0285940020 0.0240537380 0 0
-0.0284779660 0.0224031750 0 0
-0.0283061410 0.0210556100 0 0
-0.0280816500 0.0201525040 0 0
-0.0278072130 0.0197879780 0 0
-0.0274820190 0.0199991300 0 0
-0.0271027890 0.0207622000 0 0
-0.0266692900 0.0219945880 0 0
-0.0261910240 0.0235625850 0 0
-0.0256912830 0.0252945530 0 0
-0.0252067860 0.0269989370 0 0
-0.0247825470 0.0284860830 0 0
-0.0244628400 0.0295917640 0 0
-0.0242813400 0.0301984750 0 1
-0.0242540470 0.0302494490 0 1
-0.0243762650 0.0297518320 0 0
-0.0246234250 0.0287690350 0 0
-0.0249558970 0.0274056170 0 0
-0.0253270550 0.0257898490 0 0
-0.0256915110 0.0240594440 0 0
-0.0260098830 0.0223533320 0 0
-0.0262493320 0.0208072090 0 0
-0.0263824390 0.0195471390 0 0
-0.0263872960 0.0186786050 0 0
-0.0262499020 0.0182739510 0 0
-0.0259683290 0.0183622880 0 0
-0.0255570120 0.0189243350 0 0
-0.0250484420 0.0198944480 0 0
-0.0244903950 0.0211710210 0 0
-0.0239396300 0.0226321620 0 0
-0.0234546040 0.0241505310 0 0
-0.0230886500 0.0256036240 0 0
-0.0228836980 0.0268802010 0 0
-0.0228646100 0.0278853600 0 0
-0.0230350430 0.0285460040 0 0
-0.0233766810 0.0288171590 0 0
-0.0238530360 0.0286882610 0 0
-0.0244170830 0.0281879680 0 0
-0.0250199390 0.0273857750 0 0
-0.0256170850 0.0263886450 0 0
-0.0261703000 0.0253313870 0 0
-0.0266472830 0.0243607070 0 0
-0.0270226850 0.0236149020 0 0
-0.0272814310 0.0232036660 0 0
-0.0274213530 0.0231925480 0 0
-0.0274524670 0.0235940180 0 0
-0.0273939200 0.0243650920 0 0
-0.0272714710 0.0254109500 0 0
-0.0271161890 0.0265943000 0 0
-0.0269625460 0.0277510520 0 0
-0.0268446830 0.0287115710 0 0
-0.0267920000 0.0293237800 0 0
-0.0268257770 0.0294742550 0 0
-0.0269573960 0.0291049350 0 0
-0.0271875260 0.0282218660 0 0
-0.0275056420 0.0268919900 0 0
-0.0278902090 0.0252290610 0 0
-0.0283106220 0.0233757980 0 0
-0.0287310300 0.0214884690 0 0
-0.0291144760 0.0197241600 0 0
-0.0294262170 0.0182279230 0 0
-0.0296373920 0.0171185680 0 0
-0.0297299230 0.0164748720 0 0
-0.0297008520 0.0163262220 0 0
-0.0295630410 0.0166513500 0 0
-0.0293411030 0.0173852850 0 0
-0.0290645890 0.0184308590 0 0
-0.0287619950 0.0196710730 0 0
-0.0284577510 0.0209811520 0 0
-0.0281718650 0.0222399820 0 0
-0.0279204840 0.0233397090 0 0
-0.0277159500 0.0241924340 0 0
-0.0275660220 0.0247342700 0 0
-0.0274730240 0.0249278820 0 0
-0.0274340660 0.0247645170 0 0
-0.0274429170 0.0242660240 0 0
-0.0274926450 0.0234858420 0 0
-0.0275769400 0.0225064270 0 0
-0.0276884240 0.0214315450 0 0
-0.0278146720 0.0203746100 0 0
-0.0279348510 0.0194464210 0 0
-0.0280199270 0.0187457700 0 0
-0.0280376030 0.0183539220 0 0
-0.0279604140 0.0183309970 0 0
-0.0277731560 0.0187113140 0 0
-0.0274760790 0.0194963210 0 0
-0.0270833860 0.0206468070 0 0
-0.0266196130 0.0220785610 0 0
-0.0261163100 0.0236661970 0 0
-0.0256092290 0.0252572770 0 0
-0.0251351090 0.0266939440 0 0
-0.0247277870 0.0278355400 0 0
-0.0244141070 0.0285761660 0 0
-0.0242107680 0.0288539470 0 0
-0.0241230660 0.0286518710 0 0
-0.0241454790 0.0279932100 0 0
-0.0242632220 0.0269364240 0 0
-0.0244536930 0.0255722100 0 0
-0.0246869300 0.0240206840 0 0
-0.0249255980 0.0224246650 0 0
-0.0251265980 0.0209376260 0 0
-0.0252460840 0.0197085750 0 0
-0.0252478000 0.0188664790 0 0
-0.0251126560 0.0185053630 0 0
-0.0248460980 0.0186717360 0 0
-0.0244806610 0.0193570770 0 0
-0.0240738750 0.0204973960 0 0
-0.0237025950 0.0219800020 0 0
-0.0234539500 0.0236559830 0 0
-0.0234134020 0.0253560740 0 0
-0.0236514260 0.0269071400 0 0
-0.0242103890 0.0281475730 0 0
-0.0250939240 0.0289423410 0 0
-0.0262628010 0.0291980320 0 0
-0.0276402100 0.0288750590 0 0
-0.0291248670 0.0279938480 0 0
-0.0306066150 0.0266342970 -1 0
-0.0319796810 0.0249287100 -1 0
-0.0331517080 0.0230484450 -1 0
-0.0340488360 0.0211860550 -1 0
-0.0346180100 0.0195352980 -1 0
-0.0348279950 0.0182702660 -1 0
-0.0346704320 0.0175245210 -1 0
-0.0341612000 0.0173726810 -1 0
-0.0333405730 0.0178188790 -1 0
-0.0322697830 0.0187963230 -1 0
-0.0310234990 0.0201785030 -1 0
-0.0296807220 0.0217983760 0 0
-0.0283172960 0.0234708110 0 0
-0.0270014380 0.0250144780 0 0
-0.0257914500 0.0262698400 0 0
-0.0247338710 0.0271109950 0 0
-0.0238613490 0.0274526630 0 0
-0.0231911100 0.0272562340 0 0
-0.0227249450 0.0265362330 0 0
-0.0224506600 0.0253637400 0 0
-0.0223444070 0.0238621320 0 0
-0.0223730780 0.0221939150 0 0
-0.0224956300 0.0205412100 0 0
-0.0226632920 0.0190831430 0 0
-0.0228209960 0.0179731130 0 0
-0.0229127820 0.0173204850 0 0
-0.0228910210 0.0171817300 0 0
-0.0227258960 0.0175619370 0 0
-0.0224110060 0.0184223480 0 0
-0.0219633760 0.0196891990 0 0
-0.0214187670 0.0212623050 0 0
-0.0208244450 0.0230225800 0 0
-0.0202318580 0.0248372190 0 0
-0.0196902900 0.0265633120 0 0
-0.0192410800 0.0280532890 0 0
-0.0189131250 0.0291658950 0 0
-0.0187216880 0.0297829040 0 0
-0.0186703620 0.0298263420 0 0
-0.0187536920 0.0292699110 0 0
-0.0189587260 0.0281419390 0 0
-0.0192654730 0.0265193570 0 0
-0.0196467810 0.0245139220 0 0
-0.0200683580 0.0222561400 0 0
-0.0204901070 0.0198833630 0 0
-0.0208697570 0.0175335300 0 0
-0.0211682890 0.0153415750 0 0
-0.0213556130 0.0134348920 0 0
-0.0214155760 0.0119255320 0 0
-0.0213492380 0.0108993380 0 0
-0.0211745400 0.0104055050 0 0
-0.0209217660 0.0104503980 0 0
-0.0206271780 0.0109959550 0 0
-0.0203278770 0.0119612460 0 0
-0.0200587170 0.0132283180 0 0
-0.0198502580 0.0146544920 0 0
-0.0197268480 0.0160904370 0 0
-0.0197048480 0.0174010300 0 0
-0.0197912500 0.0184852330 0 0
-0.0199822530 0.0192897580 0 0
-0.0202612640 0.0198108960 0 0
-0.0205973050 0.0200834770 0 0
-0.0209464480 0.0201635750 0 0
-0.0212584780 0.0201139870 0 0
-0.0214880430 0.0199966520 0 0
-0.0216063870 0.0198709300 0 0
-0.0216085480 0.0197944940 0 0
-0.0215129160 0.0198226320 0 0
-0.0213536190 0.0200030450 0 0
-0.0211691490 0.0203667500 0 0
-0.0209923720 0.0209181580 0 0
-0.0208461570 0.0216279300 0 0
-0.0207448780 0.0224317670 0 0
-0.0206986800 0.0232365720 0 0
-0.0207171860 0.0239325130 0 0
-0.0208108380 0.0244079610 0 0
-0.0209891940 0.0245647010 0 0
-0.0212570770 0.0243306720 0 0
-0.0216113800 0.0236677800 0 0
-0.0220411150 0.0225750100 0 0
-0.0225300380 0.0210893030 0 0
-0.0230589020 0.0192853520 0 0
-0.0236060600 0.0172730030 0 0
-0.0241481080 0.0151906660 0 0
-0.0246620430 0.0131945320 0 0
-0.0251280380 0.0114450820 0 0
-0.0255314120 0.0100931360 0 0
-0.0258638500 0.0092662600 0 0
-0.0261238660 0.0090550670 0 0
-0.0263154650 0.0095002370 0 0
-0.0264453350 0.0105830080 0 0
-0.0265216920 0.0122227810 0 0
-0.0265566280 0.0142841200 0 0
-0.0265691010 0.0165914410 0 0
-0.0265843280 0.0189467710 0 0
-0.0266290290 0.0211469970 0 0
-0.0267253870 0.0230002080 0 0
-0.0268865140 0.0243423980 0 0
-0.0271145830 0.0250548420 0 0
-0.0274016040 0.0250796700 0 0
-0.0277319110 0.0244295110 0 0
-0.0280843680 0.0231883220 0 0
-0.0284328090 0.0215034940 0 0
-0.0287457160 0.0195706400 0 0
-0.0289877670 0.0176118880 0 0
-0.0291244270 0.0158495030 0 0
-0.0291282570 0.0144795460 0 0
-0.0289848570 0.0136507340 0 0
-0.0286964060 0.0134510840 0 0
-0.0282810800 0.0139021460 0 0
-0.0277684990 0.0149594970 0 0
-0.0271938730 0.0165189190 0 0
-0.0265936710 0.0184285530 0 0
-0.0260035840 0.0205063050 0 0
-0.0254573010 0.0225596190 0 0
-0.0249842750 0.0244039130 0 0
-0.0246065840 0.0258776240 0 0
-0.0243363300 0.0268542030 0 0
-0.0241745670 0.0272522950 0 0
-0.0241120970 0.0270434100 0 0
-0.0241323650 0.0262547980 0 0
-0.0242157950 0.0249670590 0 0
-0.0243436740 0.0233076910 0 0
-0.0244997730 0.0214403780 0 0
-0.0246695900 0.0195485440 0 0
-0.0248386880 0.0178137050 0 0
-0.0249918030 0.0163931760 0 0
-0.0251132860 0.0154038310 0 0
-0.0251884800 0.0149156480 0 0
-0.0252052440 0.0149526540 0 0
-0.0251552500 0.0154956800 0 0
-0.0250354260 0.0164842890 0 0
-0.0248492470 0.0178200710 0 0
-0.0246070460 0.0193742190 0 0
-0.0243258380 0.0209985010 0 0
-0.0240297350 0.0225369520 0 0
-0.0237500420 0.0238386270 0 0
-0.0235225730 0.0247721960 0 0
-0.0233808510 0.0252394530 0 0
-0.0233466160 0.0251843720 0 0
-0.0234218470 0.0245973820 0 0
-0.0235867680 0.0235153050 0 0
-0.0238046080 0.0220175150 0 0
-0.0240301780 0.0202207240 0 0
-0.0242192250 0.0182743870 0 0
-0.0243367080 0.0163547320 0 0
-0.0243624310 0.0146522830 0 0
-0.0242930640 0.0133501280 0 0
-0.0241408330 0.0125971290 0 0
-0.0239297450 0.0124851200 0 0
-0.0236905700 0.0130362000 0 0
-0.0234562650 0.0141997630 0 0
-0.0232591460 0.0158563450 0 0
-0.0231296930 0.0178280150 0 0
-0.0230953550 0.0198977510 0 0
-0.0231772570 0.0218378010 0 0
-0.0233844410 0.0234412700 0 0
-0.0237086950 0.0245489340 0 0
-0.0241246640 0.0250669200 0 0
-0.0245964250 0.0249747340 0 0
-0.0250864190 0.0243224000 0 0
-0.0255616580 0.0232153600 0 0
-0.0259955330 0.0217904480 0 0
-0.0263668880 0.0201909520 0 0
-0.0266588350 0.0185488520 0 0
-0.0268588920 0.0169783750 0 0
-0.0269608430 0.0155782630 0 0
-0.0269674220 0.0144346340 0 0
-0.0268913820 0.0136182340 0 0
-0.0267531260 0.0131774260 0 0
-0.0265763280 0.0131320740 0 0
-0.0263846380 0.0134716430 0 0
-0.0262003320 0.0141577430 0 0
-0.0260428660 0.0151291470 0 0
-0.0259261720 0.0163071510 0 0
-0.0258568760 0.0176003410 0 0
-0.0258359030 0.0189089030 0 0
-0.0258622670 0.0201293270 0 0
-0.0259356920 0.0211612870 0 0
-0.0260565380 0.0219182580 0 0
-0.0262234670 0.0223412770 0 0
-0.0264300210 0.0224120860 0 0
-0.0266620830 0.0221601140 0 0
-0.0268980310 0.0216599690 0 0
-0.0271120950 0.0210209330 0 0
-0.0272801670 0.0203717080 0 0
-0.0273857140 0.0198423440 0 0
-0.0274231880 0.0195460850 0 0
-0.0273981690 0.0195659450 0 0
-0.0273246550 0.0199492900 0 0
-0.0272203030 0.0207088600 0 0
-0.0271017070 0.0218250120 0 0
-0.0269821310 0.0232447910 0 0
-0.0268720990 0.0248791190 0 0
-0.0267813360 0.0266037640 0 0
-0.0267200430 0.0282671830 0 0
-0.0266984980 0.0297042320 0 0
-0.0267252610 0.0307548050 0 1
-0.0268047780 0.0312863210 0 1
-0.0269353810 0.0312156870 0 1
-0.0271085570 0.0305251940 0 1
-0.0273092410 0.0292687420 0 0
-0.0275161650 0.0275662420 0 0
-0.0277021090 0.0255861780 0 0
-0.0278352030 0.0235207340 0 0
-0.0278827110 0.0215599800 0 0
-0.0278170820 0.0198698780 0 0
-0.0276218470 0.0185772230 0 0
-0.0272942970 0.0177630330 0 0
-0.0268441950 0.0174627050 0 0
-0.0262906030 0.0176691890 0 0
-0.0256593650 0.0183359220 0 0
-0.0249816380 0.0193789510 0 0
-0.0242920840 0.0206807680 0 0
-0.0236263120 0.0220983740 0 0
-0.0230189590 0.0234750820 0 0
-0.0225029400 0.0246545560 0 0
-0.0221080840 0.0254966830 0 0
-0.0218573270 0.0258937320 0 0
-0.0217611840 0.0257826940 0 0
-0.0218132570 0.0251513210 0 0
-0.0219893280 0.0240405780 0 0
-0.0222507440 0.0225462960 0 0
-0.0225511240 0.0208169030 0 0
-0.0228446680 0.0190420140 0 0
-0.0230937160 0.0174309480 0 0
-0.0232729120 0.0161839890 0 0
-0.0233686340 0.0154610940 0 0
-0.0233751990 0.0153555170 0 0
-0.0232920370 0.0158805780 0 0
-0.0231254060 0.0169734720 0 0
-0.0228935010 0.0185124070 0 0
-0.0226297040 0.0203384560 0 0
-0.0223798230 0.0222748980 0 0
-0.0221938970 0.0241425800 0 0
-0.0221162060 0.0257739280 0 0
-0.0221768190 0.0270269110 0 0
-0.0223864370 0.0277970310 0 0
-0.0227353460 0.0280252900 0 0
-0.0231962590 0.0277018480 0 0
-0.0237298280 0.0268647540 0 0
-0.0242915850 0.0255926400 0 0
-0.0248394550 0.0239934490 0 0
-0.0253400340 0.0221938920 0 0
-0.0257708950 0.0203319170 0 0
-0.0261180360 0.0185512700 0 0
-0.0263710500 0.0169963350 0 0
-0.0265198820 0.0158045550 0 0
-0.0265551350 0.0150942050 0 0
-0.0264710720 0.0149489090 0 0
-0.0262691280 0.0154036180 0 0
-0.0259601320 0.0164363590 0 0
-0.0255641820 0.0179671750 0 0
-0.0251082580 0.0198633390 0 0
-0.0246229390 0.0219492770 0 0
-0.0241394530 0.0240208940 0 0
-0.0236872470 0.0258655020 0 0
-0.0232919360 0.0272870770 0 0
-0.0229733780 0.0281326050 0 0
-0.0227432730 0.0283131110 0 0
-0.0226026130 0.0278147540 0 0
-0.0225408240 0.0266989670 0 0
-0.0225379510 0.0250928750 0 0
-0.0225691850 0.0231720020 0 0
-0.0226094530 0.0211389450 0 0
-0.0226367610 0.0192019410 0 0
-0.0226347480 0.0175542130 0 0
-0.0225945910 0.0163541430 0 0
-0.0225153000 0.0157092920 0 0
-0.0224019510 0.0156676410 0 0
-0.0222626830 0.0162162840 0 0
-0.0221061410 0.0172860960 0 0
-0.0219407520 0.0187610340 0 0
-0.0217759440 0.0204906790 0 0
-0.0216241190 0.0223052840 0 0
-0.0215020590 0.0240324690 0 0
-0.0214307690 0.0255131350 0 0
-0.0214334320 0.0266149050 0 0
-0.0215320910 0.0272438350 0 0
-0.0217438120 0.0273547610 0 0
-0.0220760600 0.0269584660 0 0
-0.0225212710 0.0261228620 0 0
-0.0230528830 0.0249660240 0 0
-0.0236262500 0.0236416070 0 0
-0.0241851050 0.0223202880 0 0
-0.0246702830 0.0211712490 0 0
-0.0250270610 0.0203458080 0 0
-0.0252107020 0.0199633200 0 0
-0.0251912000 0.0200992660 0 0
-0.0249567670 0.0207769970 0 0
-0.0245154470 0.0219654270 0 0
-0.0238952480 0.0235836340 0 0
-0.0231422540 0.0255113020 0 0
-0.0223149820 0.0276026770 0 0
-0.0214747620 0.0297015470 0 0
-0.0206751550 0.0316554140 0 1
-0.0199546430 0.0333274290 0 1
-0.0193347200 0.0346043830 0 1
-0.0188223170 0.0354003200 0 1
-0.0184139520 0.0356591340 0 1
-0.0180995460 0.0353605530 0 1
-0.0178655110 0.0345288250 0 1
-0.0176979200 0.0332385970 0 1
-0.0175861110 0.0316126370 0 1
-0.0175257340 0.0298097560 0 0
-0.0175204780 0.0280056810 0 0
-0.0175827990 0.0263713010 0 0
-0.0177332980 0.0250512050 0 0
-0.0179972850 0.0241454820 0 0
-0.0183983050 0.0236996400 0 0
-0.0189508030 0.0237056550 0 0
-0.0196547260 0.0241115290 0 0
-0.0204937430 0.0248337460 0 0
-0.0214374280 0.0257686080 0 0
-0.0224467420 0.0268006650 0 0
-0.0234807340 0.0278084710 0 0
-0.0245016750 0.0286707650 0 0
-0.0254769940 0.0292760910 0 0
-0.0263782980 0.0295346350 0 0
-0.0271793810 0.0293884060 0 0
-0.0278557020 0.0288179920 0 0
-0.0283862640 0.0278464350 0 0
-0.0287559670 0.0265400300 0 0
-0.0289556630 0.0250042400 0 0
-0.0289801000 0.0233734530 0 0
-0.0288268820 0.0217953160 0 0
-0.0284983660 0.0204124000 0 0
-0.0280049520 0.0193449900 0 0
-0.0273674220 0.0186780300 0 0
-0.0266177320 0.0184532160 0 0
-0.0257985190 0.0186661290 0 0
-0.0249611950 0.0192686930 0 0
-0.0241619740 0.0201772160 0 0
-0.0234559530 0.0212841600 0 0
-0.0228908730 0.0224699700 0 0
-0.0225023340 0.0236127420 0 0
-0.0223106750 0.0245962660 0 0
-0.0223191360 0.0253177240 0 0
-0.0225138650 0.0256954760 0 0
-0.0228661000 0.0256763940 0 0
-0.0233352630 0.0252425560 0 0
-0.0238719190 0.0244180660 0 0
-0.0244213860 0.0232747490 0 0
-0.0249292500 0.0219318710 0 0
-0.0253484130 0.0205459540 0 0
-0.0256450920 0.0192919490 0 0
-0.0258011300 0.0183409720 0 0
-0.0258127300 0.0178392240 0 0
-0.0256879390 0.0178903350 0 0
-0.0254444940 0.0185422850 0 0
-0.0251078870 0.0197802700 0 0
-0.0247085340 0.0215269930 0 0
-0.0242777040 0.0236507210 0 0
-0.0238441570 0.0259791420 0 0
-0.0234338520 0.0283154070 0 0
-0.0230720980 0.0304535270 0 1
-0.0227855110 0.0321929020 0 1
-0.0226020270 0.0333540090 0 1
-0.0225488480 0.0337969670 0 1
-0.0226489810 0.0334414460 0 1
-0.0229170450 0.0322831880 0 1
-0.0233550370 0.0304012930 0 1
-0.0239496620 0.0279522350 0 0
-0.0246730640 0.0251506510 0 0
-0.0254866340 0.0222412470 0 0
-0.0263456090 0.0194687260 0 0
-0.0272027030 0.0170526120 0 0
-0.0280107450 0.0151701340 0 0
-0.0287259910 0.0139458460 0 0
-0.0293135310 0.0134456260 0 0
-0.0297532690 0.0136745090 0 0
-0.0300429390 0.0145785480 -1 0
-0.0301966840 0.0160504050 -1 0
-0.0302407110 0.0179385970 -1 0
-0.0302080830 0.0200603350 -1 0
-0.0301336690 0.0222165500 -1 0
-0.0300496160 0.0242081040 -1 0
-0.0299816380 0.0258536370 0 0
-0.0299464500 0.0270080250 0 0
-0.0299505010 0.0275781840 0 0
-0.0299898850 0.0275333930 0 0
-0.0300508110 0.0269089420 -1 0
-0.0301104490 0.0258029440 -1 0
-0.0301387950 0.0243667580 -1 0
-0.0301018640 0.0227895490 -1 0
-0.0299659180 0.0212775450 0 0
-0.0297031350 0.0200297130 0 0
-0.0292986280 0.0192134680 0 0
-0.0287565200 0.0189442900 0 0
-0.0281020510 0.0192717120 0 0
-0.0273786030 0.0201732780 0 0
-0.0266408640 0.0215573700 0 0
-0.0259463270 0.0232742400 0 0
-0.0253471320 0.0251340120 0 0
-0.0248839320 0.0269306190 0 0
-0.0245828720 0.0284688730 0 0
-0.0244553860 0.0295892380 0 0
-0.0244994820 0.0301850690 0 1
-0.0247014570 0.0302108910 0 1
-0.0250374250 0.0296834320 0 0
-0.0254745730 0.0286771160 0 0
-0.0259726560 0.0273146730 0 0
-0.0264867110 0.0257531400 0 0
-0.0269714250 0.0241660670 0 0
-0.0273861750 0.0227249000 0 0
-0.0276987140 0.0215837600 0 0
-0.0278864010 0.0208693290 0 0
-0.0279364130 0.0206735970 0 0
-0.0278473430 0.0210458250 0 0
-0.0276312800 0.0219828590 0 0
-0.0273122780 0.0234219860 0 0
-0.0269199940 0.0252431240 0 0
-0.0264824090 0.0272830920 0 0
-0.0260217780 0.0293578240 0 0
-0.0255548870 0.0312856880 0 1
-0.0250965570 0.0329068260 0 1
-0.0246639640 0.0340964830 0 1
-0.0242786480 0.0347734890 0 1
-0.0239645950 0.0349055200 0 1
-0.0237432930 0.0345107220 0 1
-0.0236277750 0.0336550390 0 1
-0.0236177470 0.0324457670 0 1
-0.0236979340 0.0310204780 0 1
-0.0238413530 0.0295297750 0 0
-0.0240170200 0.0281164790 0 0
-0.0241979360 0.0268980170 0 0
-0.0243643510 0.0259570770 0 0
-0.0245018810 0.0253404230 0 0
-0.0245990750 0.0250625110 0 0
-0.0246480730 0.0251107270 0 0
-0.0246470140 0.0254503260 0 0
-0.0246011860 0.0260282850 0 0
-0.0245222140 0.0267765970 0 0
-0.0244263110 0.0276156400 0 0
-0.0243325150 0.0284570990 0 0
-0.0242611790 0.0292066750 0 0
-0.0242323260 0.0297692580 0 0
-0.0242635010 0.0300587840 0 1
-0.0243673320 0.0300118620 0 1
-0.0245491030 0.0296014970 0 0
-0.0248044880 0.0288455880 0 0
-0.0251180510 0.0278055240 0 0
-0.0254634290 0.0265746950 0 0
-0.0258053890 0.0252619350 0 0
-0.0261033180 0.0239765390 0 0
-0.0263161590 0.0228186070 0 0
-0.0264089720 0.0218739750 0 0
-0.0263602320 0.0212109800 0 0
-0.0261677870 0.0208772420 0 0
-0.0258512050 0.0208956100 0 0
-0.0254492010 0.0212590630 0 0
-0.0250128890 0.0219255050 0 0
-0.0245976100 0.0228152820 0 0
-0.0242558780 0.0238145960 0 0
-0.0240316980 0.0247856870 0 0
-0.0239557830 0.0255821240 0 0
-0.0240421460 0.0260664490 0 0
-0.0242866170 0.0261276900 0 0
-0.0246672890 0.0256970250 0 0
-0.0251470670 0.0247600710 0 0
-0.0256785100 0.0233641590 0 0
-0.0262102680 0.0216186060 0 0
-0.0266940960 0.0196857410 0 0
-0.0270914990 0.0177622220 0 0
-0.0273790670 0.0160546930 0 0
-0.0275513650 0.0147563610 0 0
-0.0276208370 0.0140280990 0 0
-0.0276149920 0.0139836720 0 0
-0.0275708650 0.0146790880 0 0
-0.0275265340 0.0161077750 0 0
-0.0275115360 0.0182020650 0 0
-0.0275401490 0.0208394330 0 0
-0.0276104420 0.0238517550 0 0
-0.0277089390 0.0270354730 0 0
-0.0278183310 0.0301612930 0 1
-0.0279251040 0.0329854560 0 1
-0.0280242620 0.0352673750 0 1
-0.0281195780 0.0367958930 0 1
-0.0282202800 0.0374202410 0 1
-0.0283366870 0.0370770170 0 1
-0.0284762290 0.0358041520 0 1
-0.0286401240 0.0337365950 0 1
-0.0288214750 0.0310847400 0 1
-0.0290054390 0.0281027580 0 0
-0.0291711480 0.0250563040 0 0
-0.0292948860 0.0221955190 0 0
-0.0293536900 0.0197336180 0 0
-0.0293281120 0.0178300980 0 0
-0.0292040130 0.0165799080 0 0
-0.0289742390 0.0160096890 0 0
-0.0286404180 0.0160802180 0 0
-0.0282140530 0.0166948570 0 0
-0.0277160090 0.0177144140 0 0
-0.0271744640 0.0189760540 0 0
-0.0266221280 0.0203124940 0 0
-0.0260933490 0.0215694780 0 0
-0.0256214870 0.0226202750 0 0
-0.0252368530 0.0233756660 0 0
-0.0249650270 0.0237892180 0 0
-0.0248248100 0.0238587000 0 0
-0.0248253630 0.0236234940 0 0
-0.0249633030 0.0231579930 0 0
-0.0252214080 0.0225628490 0 0
-0.0255698220 0.0219560420 0 0
-0.0259689720 0.0214636680 0 0
-0.0263726160 0.0212097490 0 0
-0.0267307930 0.0213051830 0 0
-0.0269941770 0.0218352540 0 0
-0.0271208850 0.0228447640 0 0
-0.0270846200 0.0243235480 0 0
-0.0268812730 0.0261989270 0 0
-0.0265310500 0.0283402780 0 0
-0.0260751790 0.0305760470 0 1
-0.0255686320 0.0327185790 0 1
-0.0250707250 0.0345891710 0 1
-0.0246348370 0.0360369060 0 1
-0.0242996370 0.0369494040 0 1
-0.0240853020 0.0372583500 0 1
-0.0239955740 0.0369434940 0 1
-0.0240230580 0.0360350040 0 1
-0.0241544910 0.0346112520 0 1
-0.0243738760 0.0327908350 0 1
-0.0246631950 0.0307206770 0 1
-0.0250023280 0.0285629690 0 0
-0.0253697680 0.0264824910 0 0
-0.0257440460 0.0246348440 0 0
-0.0261050010 0.0231565630 0 0
-0.0264344860 0.0221577090 0 0
-0.0267163670 0.0217151560 0 0
-0.0269359950 0.0218642330 0 0
-0.0270802780 0.0225903470 0 0
-0.0271393190 0.0238255410 0 0
-0.0271090130 0.0254527510 0 0
-0.0269933970 0.0273170250 0 0
-0.0268060900 0.0292422300 0 0
-0.0265701090 0.0310505880 0 1
-0.0263149820 0.0325808290 0 1
-0.0260708550 0.0337021610 0 1
-0.0258613910 0.0343231760 0 1
-0.0256982420 0.0343949070 0 1
-0.0255789180 0.0339088030 0 1
-0.0254882910 0.0328934760 0 1
-0.0254027760 0.0314140370 0 1
-0.0252955820 0.0295733210 0 0
-0.0251416350 0.0275098020 0 0
-0.0249213230 0.0253874290 0 0
-0.0246226970 0.0233774620 0 0
-0.0242420780 0.0216371780 0 0
-0.0237836650 0.0202919260 0 0
-0.0232588450 0.0194247490 0 0
-0.0226854180 0.0190735730 0 0
-0.0220862660 0.0192321410 0 0
-0.0214871920 0.0198506780 0 0
-0.0209144530 0.0208361440 0 0
-0.0203928550 0.0220557950 0 0
-0.0199449010 0.0233479400 0 0
-0.0195906150 0.0245408510 0 0
-0.0193465640 0.0254771820 0 0
-0.0192229510 0.0260383470 0 0
-0.0192201190 0.0261616210 0 0
-0.0193272640 0.0258447400 0 0
-0.0195243040 0.0251388880 0 0
-0.0197852820 0.0241359090 0 0
-0.0200815400 0.0229555340 0 0
-0.0203841420 0.0217352920 0 0
-0.0206657540 0.0206226100 0 0
-0.0209024410 0.0197666950 0 0
-0.0210759730 0.0193069390 0 0
-0.0211764980 0.0193561510 0 0
-0.0212041620 0.0199813150 0 0
-0.0211684560 0.0211878940 0 0
-0.0210858750 0.0229131930 0 0
-0.0209775370 0.0250315540 0 0
-0.0208679680 0.0273707180 0 0
-0.0207851040 0.0297353520 0 0
-0.0207599930 0.0319319280 0 1
-0.0208244630 0.0337905330 0 1
-0.0210067710 0.0351821000 0 1
-0.0213267780 0.0360303560 0 1
-0.0217924380 0.0363165000 0 1
-0.0223987260 0.0360758790 0 1
-0.0231281800 0.0353892460 0 1
-0.0239510300 0.0343713390 0 1
-0.0248247300 0.0331570710 0 1
-0.0256955770 0.0318853900 0 1
-0.0265043630 0.0306832430 0 1
-0.0271945270 0.0296529460 0 0
-0.0277200860 0.0288646430 0 0
-0.0280524220 0.0283540190 0 0
-0.0281849880 0.0281250230 0 0
-0.0281340180 0.0281557780 0 0
-0.0279348090 0.0284041070 0 0
-0.0276356950 0.0288105390 0 0
-0.0272917140 0.0293002130 0 0
-0.0269585700 0.0297863410 0 0
-0.0266872800 0.0301761820 0 1
-0.0265200830 0.0303794390 0 1
-0.0264873140 0.0303186520 0 1
-0.0266047120 0.0299404300 0 0
-0.0268713040 0.0292256810 0 0
-0.0272683370 0.0281964310 0 0
-0.0277597720 0.0269172310 0 0
-0.0282950380 0.0254902530 0 0
-0.0288142880 0.0240443170 0 0
-0.0292555000 0.0227201070 0 0
-0.0295622790 0.0216552150 0 0
-0.0296911450 0.0209710710 0 0
-0.0296165800 0.0207614420 0 0
-0.0293323730 0.0210822170 0 0
-0.0288501060 0.0219437220 0 0
-0.0281973870 0.0233072630 0 0
-0.0274166830 0.0250867730 0 0
-0.0265628430 0.0271557250 0 0
-0.0256973880 0.0293584260 0 0
-0.0248803650 0.0315235700 0 1
-0.0241628050 0.0334778860 0 1
-0.0235817730 0.0350590230 0 1
-0.0231573580 0.0361284570 0 1
-0.0228902960 0.0365852820 0 1
-0.0227609090 0.0363794480 0 1
-0.0227313650 0.0355212450 0 1
-0.0227519850 0.0340840110 0 1
-0.0227698980 0.0321978030 0 1
-0.0227374910 0.0300340100 0 1
-0.0226188010 0.0277849560 0 0
-0.0223927750 0.0256440290 0 0
-0.0220531990 0.0237888500 0 0
-0.0216063580 0.0223668010 0 0
-0.0210678060 0.0214824240 0 0
-0.0204592480 0.0211879770 0 0
-0.0198063400 0.0214791030 0 0
-0.0191379130 0.0222970580 0 0
-0.0184862260 0.0235378010 0 0
-0.0178868070 0.0250667210 0 0
-0.0173764260 0.0267358360 0 0
-0.0169895610 0.0283991080 0 0
-0.0167548700 0.0299232100 0 0
-0.0166920870 0.0311946550 0 1
-0.0168089090 0.0321259240 0 1
-0.0170983770 0.0326619370 0 1
-0.0175384570 0.0327855210 0 1
-0.0180947620 0.0325190150 0 1
-0.0187254250 0.0319204660 0 1
-0.0193859590 0.0310756050 0 1
-0.0200327360 0.0300883100 0 1
-0.0206254730 0.0290719960 0 0
-0.0211298580 0.0281424060 0 0
-0.0215203220 0.0274098580 0 0
-0.0217816460 0.0269694820 0 0
-0.0219085840 0.0268909810 0 0
-0.0219047790 0.0272109500 0 0
-0.0217826280 0.0279296040 0 0
-0.0215638620 0.0290112180 0 0
-0.0212796500 0.0303864290 0 1
-0.0209695110 0.0319562490 0 1
-0.0206778950 0.0335991090 0 1
-0.0204473760 0.0351812930 0 1
-0.0203099220 0.0365695970 0 1
-0.0202802020 0.0376438330 0 1
-0.0203539150 0.0383072530 0 1
-0.0205110970 0.0384945970 0 1
-0.0207224870 0.0381782530 0 1
-0.0209567090 0.0373734440 0 1
-0.0211863030 0.0361425440 0 1
-0.0213914190 0.0345948730 0 1
-0.0215610390 0.0328765340 0 1
-0.0216922560 0.0311499620 0 1
-0.0217881320 0.0295697280 0 0
-0.0218545180 0.0282620580 0 0
-0.0218968130 0.0273120470 0 0
-0.0219187590 0.0267603070 0 0
-0.0219244470 0.0266083920 0 0
-0.0219215210 0.0268281360 0 0
-0.0219225940 0.0273691900 0 0
-0.0219447450 0.0281625480 0 0
-0.0220088410 0.0291214050 0 0
-0.0221387240 0.0301421520 0 1
-0.0223583240 0.0311088600 0 1
-0.0226854700 0.0319040140 0 1
-0.0231239670 0.0324252050 0 1
-0.0236579130 0.0326032500 0 1
-0.0242521580 0.0324158710 0 1
-0.0248598540 0.0318933070 0 1
-0.0254337340 0.0311149300 0 1
-0.0259356060 0.0301979830 0 1
-0.0263406820 0.0292811330 0 0
-0.0266371170 0.0285059850 0 0
-0.0268227540 0.0279988270 0 0
-0.0269013300 0.0278541950 0 0
-0.0268802680 0.0281220740 0 0
-0.0267705220 0.0287999830 0 0
-0.0265870730 0.0298297860 0 0
-0.0263486540 0.0310992820 0 1
-0.0260762510 0.0324499820 0 1
-0.0257907020 0.0336926290 0 1
-0.0255103780 0.0346304820 0 1
-0.0252501290 0.0350879070 0 1
-0.0250219350 0.0349393230 0 1
-0.0248364500 0.0341321910 0 1
-0.0247040350 0.0326987020 0 1
-0.0246349490 0.0307536570 0 1
-0.0246392460 0.0284791910 0 0
-0.0247258650 0.0260994140 0 0
-0.0248995050 0.0238498550 0 0
-0.0251554240 0.0219470680 0 0
-0.0254750240 0.0205634740 0 0
-0.0258256230 0.0198114850 0 0
-0.0261657000 0.0197384780 0 0
-0.0264538960 0.0203309700 0 0
-0.0266584490 0.0215244470 0 0
-0.0267639670 0.0232156030 0 0
-0.0267737070 0.0252751780 0 0
-0.0267068580 0.0275598640 0 0
-0.0265917630 0.0299215310 0 0
-0.0264570880 0.0322129870 0 1
-0.0263239270 0.0342911480 0 1
-0.0262017580 0.0360198210 0 1
-0.0260887840 0.0372754380 0 1
-0.0259748070 0.0379577980 0 1
-0.0258451340 0.0380039860 0 1
-0.0256850400 0.0374013110 0 1
-0.0254835640 0.0361958070 0 1
-0.0252348090 0.0344942300 0 1
-0.0249363000 0.0324574750 0 1
-0.0245859670 0.0302842610 0 1
-0.0241800950 0.0281877340 0 0
-0.0237136720 0.0263708100 0 0
-0.0231827370 0.0250047650 0 0
-0.0225873110 0.0242130260 0 0
-0.0219336410 0.0240607030 0 0
-0.0212354020 0.0245489530 0 0
-0.0205143830 0.0256139500 0 0
-0.0198009690 0.0271331380 0 0
-0.0191333870 0.0289407440 0 0
-0.0185546000 0.0308494450 0 1
-0.0181074360 0.0326726230 0 1
-0.0178295610 0.0342436960 0 1
-0.0177489220 0.0354312480 0 1
-0.0178790680 0.0361493010 0 1
-0.0182145910 0.0363621720 0 1
-0.0187285180 0.0360840680 0 1
-0.0193734850 0.0353749660 0 1
-0.0200870320 0.0343341710 0 1
-0.0207997000 0.0330910160 0 1
-0.0214434730 0.0317917870 0 1
-0.0219588430 0.0305847800 0 1
-0.0223003820 0.0296073150 0 0
-0.0224413970 0.0289755390 0 0
-0.0223774860 0.0287740320 0 0
-0.0221278360 0.0290447760 0 0
-0.0217334150 0.0297798390 0 0
-0.0212518890 0.0309209330 0 1
-0.0207495390 0.0323651230 0 1
-0.0202915790 0.0339747310 0 1
-0.0199332680 0.0355893620 0 1
-0.0197134510 0.0370381780 0 1
-0.0196510130 0.0381525100 0 1
-0.0197447570 0.0387809590 0 1
-0.0199767240 0.0388081440 0 1
-0.0203174650 0.0381746090 0 1
-0.0207311320 0.0368920720 0 1
-0.0211790490 0.0350477200 0 1
-0.0216219070 0.0327946080 0 1
-0.0220217490 0.0303306560 0 1
-0.0223446380 0.0278726490 0 0
-0.0225633190 0.0256319560 0 0
-0.0226585440 0.0237958340 0 0
-0.0226190660 0.0225142440 0 0
-0.0224415470 0.0218901440 0 0
-0.0221312680 0.0219724380 0 0
-0.0217039100 0.0227526080 0 0
-0.0211879610 0.0241655880 0 0
-0.0206256620 0.0260942950 0 0
-0.0200699390 0.0283780660 0 0
-0.0195769810 0.0308258200 0 1
-0.0191971060 0.0332327620 0 1
-0.0189671320 0.0353986900 0 1
-0.0189060830 0.0371470680 0 1
-0.0190146240 0.0383434680 0 1
-0.0192772400 0.0389101960 0 1
-0.0196652950 0.0388336010 0 1
-0.0201400760 0.0381619040 0 1
-0.0206567850 0.0369947640 0 1
-0.0211700510 0.0354688920 0 1
-0.0216392000 0.0337430930 0 1
-0.0220305730 0.0319833040 0 1
-0.0223168240 0.0303470920 0 1
-0.0224764330 0.0289674820 0 0
-0.0224962000 0.0279380670 0 0
-0.0223759240 0.0273040230 0 0
-0.0221316600 0.0270622350 0 0
-0.0217945780 0.0271686480 0 0
-0.0214056270 0.0275492380 0 0
-0.0210084210 0.0281129300 0 0
-0.0206426690 0.0287644440 0 0
-0.0203395380 0.0294144580 0 0
-0.0201196150 0.0299872080 0 0
-0.0199931810 0.0304265030 0 1
-0.0199617240 0.0306983290 0 1
-0.0200193130 0.0307887210 0 1
-0.0201526210 0.0306996550 0 1
-0.0203401800 0.0304469650 0 1
-0.0205534730 0.0300620550 0 1
-0.0207611830 0.0295964390 0 0
-0.0209343550 0.0291250850 0 0
-0.0210493790 0.0287436930 0 0
-0.0210882860 0.0285582710 0 0
-0.0210387710 0.0286693740 0 0
-0.0208961070 0.0291550910 0 0
-0.0206657350 0.0300559890 0 1
-0.0203633730 0.0313633000 0 1
-0.0200121560 0.0330124860 0 1
-0.0196395830 0.0348866640 0 1
-0.0192765280 0.0368315250 0 1
-0.0189574370 0.0386764970 0 1
-0.0187193260 0.0402542910 0 1
-0.0185985070 0.0414154860 0 1
-0.0186255150 0.0420402120 0 1
-0.0188191720 0.0420500250 0 1
-0.0191810640 0.0414205270 0 1
-0.0196924750 0.0401915230 0 1
-0.0203158080 0.0384695170 0 1
-0.0210006960 0.0364194770 0 1
-0.0216923680 0.0342476340 0 1
-0.0223390110 0.0321792060 0 1
-0.0228970020 0.0304332200 0 1
-0.0233348580 0.0291960790 0 0
-0.0236361400 0.0285983230 0 0
-0.0238005340 0.0287006370 0 0
-0.0238428620 0.0294917860 0 0
-0.0237899500 0.0308957000 0 1
-0.0236751090 0.0327837070 0 1
-0.0235311180 0.0349904400 0 1
-0.0233842680 0.0373317440 0 1
-0.0232515320 0.0396214030 0 1
-0.0231410020 0.0416851900 0 1
-0.0230549530 0.0433726160 0 1
-0.0229945780 0.0445659130 0 1
-0.0229643290 0.0451859840 0 1
-0.0229733710 0.0451967500 0 1
-0.0230335790 0.0446086360 0 1
-0.0231556770 0.0434798630 0 1
-0.0233455400 0.0419140090 0 1
-0.0236022180 0.0400532790 0 1
-0.0239184770 0.0380678040 0 1
-0.0242830960 0.0361416430 0 1
-0.0246829650 0.0344559880 0 1
-0.0251034850 0.0331702940 0 1
-0.0255276250 0.0324031010 0 1
-0.0259355610 0.0322155060 0 1
-0.0263062950 0.0326016700 0 1
-0.0266202880 0.0334904010 0 1
-0.0268612200 0.0347574950 0 1
-0.0270166620 0.0362440880 0 1
-0.0270788240 0.0377760690 0 1
-0.0270456960 0.0391823810 0 1
-0.0269220040 0.0403116680 0 1
-0.0267197110 0.0410460780 0 1
-0.0264580090 0.0413102980 0 1
-0.0261621300 0.0410753760 0 1
-0.0258597500 0.0403588110 0 1
-0.0255753130 0.0392216790 0 1
-0.0253245540 0.0377623590 0 1
-0.0251113380 0.0361077900 0 1
-0.0249276710 0.0344040530 0 1
-0.0247568830 0.0328060170 0 1
-0.0245788990 0.0314644100 0 1
-0.0243758270 0.0305104740 0 1
-0.0241363950 0.0300404150 0 1
-0.0238583610 0.0301019480 0 1
-0.0235484250 0.0306852870 0 1
-0.0232198240 0.0317219290 0 1
-0.0228887170 0.0330940940 0 1
-0.0225710920 0.0346533430 0 1
-0.0222812610 0.0362427550 0 1
-0.0220315710 0.0377173230 0 1
-0.0218321070 0.0389597430 0 1
-0.0216897230 0.0398897540 0 1
-0.0216069990 0.0404656430 0 1
-0.0215816980 0.0406795380 0 1
-0.0216065100 0.0405514250 0 1
-0.0216695800 0.0401253060 0 1
-0.0217569430 0.0394664110 0 1
-0.0218562500 0.0386572250 0 1
-0.0219593530 0.0377921510 0 1
-0.0220624200 0.0369712830 0 1
-0.0221642210 0.0362929170 0 1
-0.0222633780 0.0358440840 0 1
-0.0223550150 0.0356890230 0 1
-0.0224286670 0.0358576980 0 1
-0.0224698860 0.0363391620 0 1
-0.0224661350 0.0370836780 0 1
-0.0224147840 0.0380121900 0 1
-0.0223284890 0.0390286160 0 1
-0.0222333200 0.0400317990 0 1
-0.0221599920 0.0409255120 0 1
-0.0221340750 0.0416249040 0 1
-0.0221708670 0.0420592820 0 1
-0.0222760430 0.0421742710 0 1
-0.0224492230 0.0419370770 0 1
-0.0226864830 0.0413448350 0 1
-0.0229799850 0.0404316510 0 1
-0.0233163840 0.0392703620 0 1
-0.0236769520 0.0379683570 0 1
-0.0240399010 0.0366580740 0 1
-0.0243830270 0.0354821430 0 1
-0.0246855350 0.0345739530 0 1
-0.0249299500 0.0340365070 0 1
-0.0251049310 0.0339245150 0 1
-0.0252080440 0.0342352280 0 1
-0.0252465810 0.0349110360 0 1
-0.0252358970 0.0358527490 0 1
-0.0251966370 0.0369392050 0 1
-0.0251522620 0.0380469120 0 1
-0.0251269370 0.0390635260 0 1
-0.0251434860 0.0398932350 0 1
-0.0252212250 0.0404576590 0 1
-0.0253732530 0.0406969070 0 1
-0.0256030870 0.0405723100 0 1
-0.0259016080 0.0400696370 0 1
-0.0262457310 0.0392009730 0 1
-0.0265993250 0.0380042570 0 1
-0.0269159100 0.0365409430 0 1
-0.0271433170 0.0348934870 0 1
-0.0272314820 0.0331640620 0 1
-0.0271429860 0.0314735850 0 1
-0.0268623460 0.0299573390 0 0
-0.0263996360 0.0287533810 0 0
-0.0257878200 0.0279840960 0 0
-0.0250762720 0.0277360580 0 0
-0.0243227410 0.0280445570 0 0
-0.0235847860 0.0288868940 0 0
-0.0229113690 0.0301847800 0 1
-0.0223360670 0.0318134830 0 1
-0.0218739640 0.0336153160 0 1
-0.0215236770 0.0354158430 0 1
-0.0212740370 0.0370414270 0 1
-0.0211127030 0.0383375350 0 1
-0.0210324140 0.0391868880 0 1
-0.0210321500 0.0395237620 0 1
-0.0211143610 0.0393400220 0 1
-0.0212817510 0.0386824140 0 1
-0.0215357010 0.0376434000 0 1
-0.0218751750 0.0363476510 0 1
-0.0222937440 0.0349377320 0 1
-0.0227753240 0.0335628120 0 1
-0.0232922300 0.0323696180 0 1
-0.0238080400 0.0314919170 0 1
-0.0242846850 0.0310379420 0 1
-0.0246910380 0.0310779380 0 1
-0.0250092990 0.0316337720 0 1
-0.0252366050 0.0326731380 0 1
-0.0253820990 0.0341111840 0 1
-0.0254616690 0.0358194670 0 1
-0.0254930270 0.0376390300 0 1
-0.0254930570 0.0393953490 0 1
-0.0254774130 0.0409148560 0 1
-0.0254604280 0.0420425120 0 1
-0.0254539090 0.0426585700 0 1
-0.0254651980 0.0426918780 0 1
-0.0254952450 0.0421273700 0 1
-0.0255364090 0.0410071240 0 1
-0.0255704850 0.0394255010 0 1
-0.0255694170 0.0375192770 0 1
-0.0255006240 0.0354550800 0 1
-0.0253359280 0.0334162610 0 1
-0.0250603930 0.0315884840 0 1
-0.0246773700 0.0301429610 0 1
-0.0242081020 0.0292198400 0 0
-0.0236865780 0.0289151740 0 0
-0.0231517760 0.0292714910 0 0
-0.0226400220 0.0302703900 0 1
-0.0221796960 0.0318286840 0 1
-0.0217891210 0.0338023190 0 1
-0.0214768570 0.0360000050 0 1
-0.0212430660 0.0382042960 0 1
-0.0210817860 0.0401964240 0 1
-0.0209844780 0.0417815630 0 1
-0.0209435430 0.0428107960 0 1
-0.0209533380 0.0431963690 0 1
-0.0210080510 0.0429189410 0 1
-0.0210985870 0.0420275130 0 1
-0.0212112000 0.0406333280 0 1
-0.0213284950 0.0388982180 0 1
-0.0214313680 0.0370175200 0 1
-0.0215004280 0.0351989920 0 1
-0.0215168260 0.0336403960 0 1
-0.0214637250 0.0325081470 0 1
-0.0213294870 0.0319196840 0 1
-0.0211120210 0.0319327440 0 1
-0.0208221260 0.0325428860 0 1
-0.0204840070 0.0336865710 0 1
-0.0201318760 0.0352460460 0 1
-0.0198028750 0.0370562770 0 1
-0.0195293440 0.0389174480 0 1
-0.0193349360 0.0406143090 0 1
-0.0192357440 0.0419396620 0 1
-0.0192428370 0.0427184740 0 1
-0.0193617740 0.0428291570 0 1
-0.0195888210 0.0422172780 0 1
-0.0199074770 0.0408989460 0 1
-0.0202884670 0.0389560940 0 1
-0.0206933570 0.0365273800 0 1
-0.0210802820 0.0337957070 0 1
-0.0214102650 0.0309713360 0 1
-0.0216528030 0.0282713240 0 0
-0.0217895280 0.0258996480 0 0
-0.0218153010 0.0240319310 0 0
-0.0217372650 0.0228035080 0 0
-0.0215731930 0.0222982820 0 0
-0.0213499370 0.0225404470 0 0
-0.0211009810 0.0234928710 0 0
-0.0208616500 0.0250609840 0 0
-0.0206626250 0.0270988600 0 0
-0.0205244650 0.0294183180 0 0
-0.0204555040 0.0318040790 0 1
-0.0204537310 0.0340357820 0 1
-0.0205111840 0.0359144530 0 1
-0.0206179760 0.0372883140 0 1
-0.0207642470 0.0380715940 0 1
-0.0209407890 0.0382517580 0 1
-0.0211396200 0.0378848860 0 1
-0.0213542140 0.0370823260 0 1
-0.0215782500 0.0359924690 0 1
-0.0218027270 0.0347806100 0 1
-0.0220129150 0.0336090790 0 1
-0.0221873390 0.0326202070 0 1
-0.0223002850 0.0319249480 0 1
-0.0223279610 0.0315974370 0 1
-0.0222560880 0.0316725390 0 1
-0.0220848840 0.0321435890 0 1
-0.0218289760 0.0329608330 0 1
-0.0215134680 0.0340338140 0 1
-0.0211694450 0.0352397570 0 1
-0.0208310960 0.0364365620 0 1
-0.0205339420 0.0374772510 0 1
-0.0203119760 0.0382234860 0 1
-0.0201928550 0.0385575110 0 1
-0.0201928010 0.0383937180 0 1
-0.0203138120 0.0376912610 0 1
-0.0205440650 0.0364669220 0 1
-0.0208598540 0.0348041270 0 1
-0.0212270830 0.0328525310 0 1
-0.0216024330 0.0308144550 0 1
-0.0219362160 0.0289193810 0 0
-0.0221784660 0.0273924150 0 0
-0.0222868830 0.0264239360 0 0
-0.0222331680 0.0261456250 0 0
-0.0220056130 0.0266154420 0 0
-0.0216086610 0.0278124260 0 0
-0.0210616010 0.0296407550 0 0
-0.0203977560 0.0319407100 0 1
-0.0196640490 0.0345043310 0 1
-0.0189194950 0.0370960640 0 1
-0.0182302310 0.0394781660 0 1
-0.0176595390 0.0414363510 0 1
-0.0172555610 0.0428004230 0 1
-0.0170425350 0.0434585850 0 1
-0.0170191330 0.0433662720 0 1
-0.0171627440 0.0425494510 0 1
-0.0174364960 0.0411012090 0 1
-0.0177965270 0.0391708750 0 1
-0.0181980630 0.0369459680 0 1
-0.0185997680 0.0346287470 0 1
-0.0189666480 0.0324126570 0 1
-0.0192716670 0.0304659880 0 1
-0.0194965050 0.0289248780 0 0
-0.0196320450 0.0278905230 0 0
-0.0196779440 0.0274248370 0 0
-0.0196404240 0.0275439270 0 0
-0.0195296620 0.0282130140 0 0
-0.0193588000 0.0293470050 0 0
-0.0191441970 0.0308186820 0 1
-0.0189049420 0.0324732690 0 1
-0.0186608590 0.0341457750 0 1
-0.0184301420 0.0356776940 0 1
-0.0182276090 0.0369316260 0 1
-0.0180633360 0.0378027480 0 1
-0.0179417370 0.0382255050 0 1
-0.0178616480 0.0381759880 0 1
-0.0178170870 0.0376725970 0 1
-0.0177980180 0.0367753320 0 1
-0.0177918500 0.0355816090 0 1
-0.0177861530 0.0342183560 0 1
-0.0177715000 0.0328319270 0 1
-0.0177436650 0.0315758310 0 1
-0.0177054200 0.0305957630 0 1
-0.0176679450 0.0300136400 0 1
-0.0176513360 0.0299140100 0 0
-0.0176830360 0.0303356340 0 1
-0.0177925530 0.0312687930 0 1
-0.0180028750 0.0326565400 0 1
-0.0183226630 0.0343981710 0 1
-0.0187439280 0.0363558580 0 1
-0.0192458770 0.0383663970 0 1
-0.0198013440 0.0402574390 0 1
-0.0203818980 0.0418644350 0 1
-0.0209599540 0.0430444880 0 1
-0.0215082690 0.0436856830 0 1
-0.0219988350 0.0437136280 0 1
-0.0224033560 0.0430991290 0 1
-0.0226957360 0.0418691980 0 1
-0.0228550550 0.0401181330 0 1
-0.0228671540 0.0380110970 0 1
-0.0227240170 0.0357735950 0 1
-0.0224219520 0.0336658540 0 1
-0.0219606560 0.0319469460 0 1
-0.0213445530 0.0308369890 0 1
-0.0205858680 0.0304862720 0 1
-0.0197076470 0.0309567870 0 1
-0.0187454020 0.0322175250 0 1
-0.0177471870 0.0341532100 0 1
-0.0167713250 0.0365836670 0 1
-0.0158804740 0.0392870580 0 1
-0.0151329740 0.0420210810 0 1
-0.0145745800 0.0445419010 0 1
-0.0142328040 0.0466233770 0 1
-0.0141146790 0.0480769890 0 1
-0.0142082160 0.0487699570 0 1
-0.0144868430 0.0486384050 0 1
-0.0149150760 0.0476930560 0 1
-0.0154538190 0.0460161240 0 1
-0.0160646550 0.0437501060 0 1
-0.0167127180 0.0410816330 0 1
-0.0173678520 0.0382239400 0 1
-0.0180042940 0.0353997560 0 1
-0.0185995790 0.0328246370 0 1
-0.0191335670 0.0306905250 0 1
-0.0195882140 0.0291504520 0 0
-0.0199477360 0.0283047580 0 0
-0.0201989880 0.0281878500 0 0
-0.0203331940 0.0287579690 0 0
-0.0203495850 0.0298975940 0 0
-0.0202594100 0.0314294270 0 1
-0.0200877680 0.0331443700 0 1
-0.0198715410 0.0348336410 0 1
-0.0196533210 0.0363179140 0 1
-0.0194733480 0.0374674570 0 1
-0.0193628680 0.0382100660 0 1
-0.0193412450 0.0385290570 0 1
-0.0194164780 0.0384567070 0 1
-0.0195871110 0.0380665200 0 1
-0.0198439310 0.0374637090 0 1
-0.0201712030 0.0367723230 0 1
-0.0205478430 0.0361200210 0 1
-0.0209480910 0.0356233480 0 1
-0.0213403210 0.0353757880 0 1
-0.0216849890 0.0354398610 0 1
-0.0219360600 0.0358432930 0 1
-0.0220490120 0.0365779090 0 1
-0.0219934460 0.0375999430 0 1
-0.0217641600 0.0388327040 0 1
-0.0213849060 0.0401734040 0 1
-0.0209037350 0.0415030520 0 1
-0.0203831510 0.0426962160 0 1
-0.0198889410 0.0436301200 0 1
-0.0194800380 0.0441953580 0 1
-0.0192004530 0.0443086170 0 1
-0.0190743080 0.0439236780 0 1
-0.0191052420 0.0430364430 0 1
-0.0192798880 0.0416836670 0 1
-0.0195732730 0.0399385210 0 1
-0.0199540680 0.0379057520 0 1
-0.0203884430 0.0357175100 0 1
-0.0208422310 0.0335292250 0 1
-0.0212822510 0.0315125540 0 1
-0.0216777060 0.0298420410 0 0
-0.0220014200 0.0286756730 0 0
-0.0222304770 0.0281336370 0 0
-0.0223470110 0.0282808750 0 0
-0.0223402530 0.0291172510 0 0
-0.0222094720 0.0305759730 0 1
-0.0219657680 0.0325296190 0 1
-0.0216311930 0.0348033090 0 1
-0.0212360210 0.0371935540 0 1
-0.0208158910 0.0394901610 0 1
-0.0204092320 0.0414987300 0 1
-0.0200545520 0.0430607110 0 1
-0.0197874270 0.0440671720 0 1
-0.0196365830 0.0444644040 0 1
-0.0196185500 0.0442530250 0 1
-0.0197325530 0.0434836980 0 1
-0.0199589410 0.0422513530 0 1
-0.0202628250 0.0406884480 0 1
-0.0206011930 0.0389571570 0 1
-0.0209300960 0.0372387850 0 1
-0.0212097160 0.0357174730 0 1
-0.0214074840 0.0345576360 0 1
-0.0215001960 0.0338792200 0 1
-0.0214755510 0.0337379330 0 1
-0.0213339250 0.0341170280 0 1
-0.0210912050 0.0349331780 0 1
-0.0207806940 0.0360530850 0 1
-0.0204497760 0.0373140080 0 1
-0.0201503220 0.0385426170 0 1
-0.0199275850 0.0395700180 0 1
-0.0198132060 0.0402436010 0 1
-0.0198237290 0.0404381320 0 1
-0.0199620900 0.0400680060 0 1
-0.0202191710 0.0391003960 0 1
-0.0205744310 0.0375675090 0 1
-0.0209961840 0.0355745680 0 1
-0.0214428730 0.0332979990 0 1
-0.0218667990 0.0309692430 0 1
-0.0222201010 0.0288453010 0 0
-0.0224610120 0.0271728130 0 0
-0.0225590300 0.0261542190 0 0
-0.0224989840 0.0259226510 0 0
-0.0222833890 0.0265287090 0 0
-0.0219312840 0.0279396540 0 0
-0.0214729080 0.0300494830 0 1
-0.0209426830 0.0326958710 0 1
-0.0203742230 0.0356792650 0 1
-0.0197988750 0.0387811280 0 1
-0.0192460020 0.0417808840 0 1
-0.0187425980 0.0444723760 0 1
-0.0183122840 0.0466794730 0 1
-0.0179750840 0.0482684850 0 1
-0.0177473450 0.0491555810 0 1
-0.0176404200 0.0493097270 0 1
-0.0176585340 0.0487529730 0 1
-0.0177972350 0.0475584400 0 1
-0.0180428770 0.0458442030 0 1
-0.0183729050 0.0437626190 0 1
-0.0187571630 0.0414876370 0 1
-0.0191607100 0.0392018480 0 1
-0.0195477010 0.0370825190 0 1
-0.0198853300 0.0352862080 0 1
-0.0201474020 0.0339339200 0 1
-0.0203174230 0.0330999760 0 1
-0.0203904280 0.0328074170 0 1
-0.0203727720 0.0330305190 0 1
-0.0202808150 0.0337013350 0 1
-0.0201399670 0.0347164980 0 1
-0.0199838260 0.0359442820 0 1
-0.0198518850 0.0372345360 0 1
-0.0197847020 0.0384330600 0 1
-0.0198167640 0.0393992630 0 1
-0.0199689210 0.0400232370 0 1
-0.0202427780 0.0402380590 0 1
-0.0206187160 0.0400254950 0 1
-0.0210589360 0.0394152330 0 1
-0.0215159180 0.0384780510 0 1
-0.0219436230 0.0373144640 0 1
-0.0223062850 0.0360428050 0 1
-0.0225820380 0.0347899430 0 1
-0.0227632900 0.0336836230 0 1
-0.0228563080 0.0328431720 0 1
-0.0228794140 0.0323670020 0 1
-0.0228585400 0.0323187010 0 1
-0.0228213590 0.0327156550 0 1
-0.0227924920 0.0335227940 0 1
-0.0227910790 0.0346521660 0 1
-0.0228303920 0.0359691570 0 1
-0.0229185320 0.0373058590 0 1
-0.0230592430 0.0384803330 0 1
-0.0232530430 0.0393185180 0 1
-0.0234990990 0.0396745440 0 1
-0.0237964550 0.0394469910 0 1
-0.0241425810 0.0385912920 0 1
-0.0245299580 0.0371288130 0 1
-0.0249437760 0.0351510880 0 1
-0.0253625060 0.0328160800 0 1
-0.0257605380 0.0303338020 0 1
-0.0261115240 0.0279413020 0 0
-0.0263917890 0.0258714680 0 0
-0.0265837900 0.0243233710 0 0
-0.0266793230 0.0234410060 0 0
-0.0266812000 0.0233029650 0 0
-0.0266023900 0.0239211210 0 0
-0.0264632730 0.0252448980 0 0
-0.0262883370 0.0271693870 0 0
-0.0261032130 0.0295467130 0 0
-0.0259324350 0.0321992250 0 1
-0.0257979400 0.0349332310 0 1
-0.0257182350 0.0375536740 0 1
-0.0257078280 0.0398804300 0 1
-0.0257756660 0.0417650240 0 1
-0.0259221010 0.0431043640 0 1
-0.0261363930 0.0438472950 0 1
-0.0263971110 0.0439917810 0 1
-0.0266750620 0.0435756880 0 1
-0.0269364780 0.0426679040 0 1
-0.0271452530 0.0413640610 0 1
-0.0272652420 0.0397851520 0 1
-0.0272638660 0.0380740530 0 1
-0.0271163880 0.0363853760 0 1
-0.0268093780 0.0348675930 0 1
-0.0263429480 0.0336415830 0 1
-0.0257316560 0.0327825840 0 1
-0.0250032180 0.0323106290 0 1
-0.0241948980 0.0321911950 0 1
-0.0233493140 0.0323452990 0 1
-0.0225116000 0.0326653360 0 1
-0.0217280320 0.0330311110 0 1
-0.0210440620 0.0333224000 0 1
-0.0205002330 0.0334288360 0 1
-0.0201268190 0.0332599500 0 1
-0.0199385810 0.0327563560 0 1
-0.0199305960 0.0319003090 0 1
-0.0200772500 0.0307230120 0 1
-0.0203364460 0.0293059540 0 0
-0.0206582680 0.0277742210 0 0
-0.0209945610 0.0262820140 0 0
-0.0213055010 0.0249928570 0 0
-0.0215612450 0.0240584220 0 0
-0.0217398700 0.0236001450 0 0
-0.0218248050 0.0236957490 0 0
-0.0218041670 0.0243708720 0 0
-0.0216719110 0.0255959550 0 0
-0.0214294190 0.0272878780 0 0
-0.0210865800 0.0293144830 0 0
-0.0206619010 0.0315014670 0 1
-0.0201816220 0.0336431770 0 1
-0.0196788140 0.0355188690 0 1
-0.0191928380 0.0369150400 0 1
-0.0187672070 0.0376528650 0 1
-0.0184438700 0.0376165160 0 1
-0.0182553280 0.0367752720 0 1
-0.0182182500 0.0351928780 0 1
-0.0183306230 0.0330218520 0 1
-0.0185721340 0.0304847820 0 1
-0.0189075310 0.0278463850 0 0
-0.0192931540 0.0253805670 0 0
-0.0196850480 0.0233380540 0 0
-0.0200453900 0.0219203340 0 0
-0.0203451200 0.0212622100 0 0
-0.0205634250 0.0214218650 0 0
-0.0206865530 0.0223784120 0 0
-0.0207080970 0.0240389790 0 0
-0.0206307990 0.0262547640 0 0
-0.0204683100 0.0288407190 0 0
-0.0202450920 0.0315930880 0 1
-0.0199938130 0.0343033400 0 1
-0.0197513130 0.0367707600 0 1
-0.0195541170 0.0388149940 0 1
-0.0194332460 0.0402870570 0 1
-0.0194089230 0.0410780940 0 1
-0.0194873570 0.0411272440 0 1
-0.0196607230 0.0404284720 0 1
-0.0199091690 0.0390338700 0 1
-0.0202034910 0.0370523710 0 1
-0.0205084310 0.0346443820 0 1
-0.0207868260 0.0320116810 0 1
-0.0210042810 0.0293813850 0 0
-0.0211338150 0.0269845480 0 0
-0.0211598470 0.0250323490 0 0
-0.0210807490 0.0236937400 0 0
-0.0209089160 0.0230769490 0 0
-0.0206675300 0.0232162370 0 0
-0.0203848310 0.0240663020 0 0
-0.0200885050 0.0255063720 0 0
-0.0198024980 0.0273539330 0 0
-0.0195466640 0.0293863100 0 0
-0.0193381260 0.0313671570 0 1
-0.0191927850 0.0330742150 0 1
-0.0191257150 0.0343242900 0 1
-0.0191498710 0.0349912400 0 1
-0.0192734040 0.0350142290 0 1
-0.0194963220 0.0343970240 0 1
-0.0198074790 0.0332018590 0 1
-0.0201835280 0.0315408390 0 1
-0.0205912320 0.0295649080 0 0
-0.0209931300 0.0274488190 0 0
-0.0213550600 0.0253731460 0 0
-0.0216526020 0.0235075780 0 0
-0.0218737650 0.0219986160 0 0
-0.0220179610 0.0209610410 0 0
-0.0220930600 0.0204714690 0 0
-0.0221118200 0.0205636130 0 0
-0.0220888760 0.0212251880 0 0
-0.0220396170 0.0223959060 0 0
-0.0219805180 0.0239677950 0 0
-0.0219289870 0.0257918020 0 0
-0.0219021430 0.0276933320 0 0
-0.0219155840 0.0294938250 0 0
-0.0219824320 0.0310322060 0 1
-0.0221119800 0.0321818850 0 1
-0.0223079100 0.0328617730 0 1
-0.0225666350 0.0330404360 0 1
-0.0228763540 0.0327333850 0 1
-0.0232178790 0.0319961380 0 1
-0.0235679510 0.0309164000 0 1
-0.0239039300 0.0296064380 0 0
-0.0242073830 0.0281946360 0 0
-0.0244651360 0.0268149240 0 0
-0.0246684990 0.0255939590 0 0
-0.0248124170 0.0246378670 0 0
-0.0248952970 0.0240214230 0 0
-0.0249185460 0.0237825310 0 0
-0.0248852460 0.0239227730 0 0
-0.0247991030 0.0244117620 0 0
-0.0246647910 0.0251920140 0 0
-0.0244890020 0.0261828590 0 0
-0.0242810660 0.0272843350 0 0
-0.0240527190 0.0283827190 0 0
-0.0238168440 0.0293586790 0 0
-0.0235852660 0.0300991130 0 1
-0.0233667460 0.0305126360 0 1
-0.0231663960 0.0305454730 0 1
-0.0229862470 0.0301931840 0 1
-0.0228257570 0.0295053260 0 0
-0.0226816640 0.0285815950 0 0
-0.0225475040 0.0275592780 0 0
-0.0224135110 0.0265941020 0 0
-0.0222677610 0.0258387610 0 0
-0.0220989890 0.0254236490 0 0
-0.0219009200 0.0254426110 0 0
-0.0216769570 0.0259446880 0 0
-0.0214431470 0.0269311000 0 0
-0.0212273180 0.0283552570 0 0
-0.0210637030 0.0301243300 0 1
-0.0209844440 0.0321039270 0 1
-0.0210109500 0.0341289710 0 1
-0.0211485070 0.0360209270 0 1
-0.0213865300 0.0376073720 0 1
-0.0217044410 0.0387396960 0 1
-0.0220801300 0.0393072090 0 1
-0.0224960560 0.0392474840 0 1
-0.0229395330 0.0385529710 0 1
-0.0233985810 0.0372733770 0 1
-0.0238582180 0.0355125310 0 1
-0.0242997850 0.0334186900 0 1
-0.0247018150 0.0311689750 0 1
-0.0250407540 0.0289506280 0 0
-0.0252921210 0.0269426730 0 0
-0.0254335580 0.0253007730 0 0
-0.0254499060 0.0241455310 0 0
-0.0253384510 0.0235534280 0 0
-0.0251114380 0.0235509200 0 0
-0.0247944500 0.0241120540 0 0
-0.0244218950 0.0251587500 0 0
-0.0240317730 0.0265645910 0 0
-0.0236612100 0.0281649990 0 0
-0.0233436120 0.0297744190 0 0
-0.0231072450 0.0312068590 0 1
-0.0229739210 0.0322949760 0 1
-0.0229568540 0.0329054360 0 1
-0.0230583940 0.0329505180 0 1
-0.0232690780 0.0323963570 0 1
-0.0235685210 0.0312673810 0 1
-0.0239273410 0.0296453170 0 0
-0.0243095270 0.0276612870 0 0
-0.0246755180 0.0254817690 0 0
-0.0249862900 0.0232913430 0 0
-0.0252077540 0.0212755090 0 0
-0.0253145810 0.0196052890 0 0
-0.0252931160 0.0184233680 0 0
-0.0251432220 0.0178310580 0 0
-0.0248789290 0.0178765990 0 0
-0.0245276590 0.0185478880 0 0
-0.0241274670 0.0197739370 0 0
-0.0237220700 0.0214355250 0 0
-0.0233545610 0.0233798640 0 0
-0.0230610880 0.0254336300 0 0
-0.0228658020 0.0274135230 0 0
-0.0227788180 0.0291379360 0 0
-0.0227982930 0.0304429480 0 1
-0.0229150510 0.0312018770 0 1
-0.0231164790 0.0313441340 0 1
-0.0233882290 0.0308680610 0 1
-0.0237147370 0.0298436970 0 0
-0.0240794950 0.0284047120 0 0
-0.0244650440 0.0267318100 0 0
-0.0248525030 0.0250305060 0 0
-0.0252213290 0.0235057410 0 0
-0.0255503000 0.0223367890 0 0
-0.0258194200 0.0216570780 0 0
-0.0260111550 0.0215422980 0 0
-0.0261108280 0.0220066020 0 0
-0.0261081400 0.0230043880 0 0
-0.0260007110 0.0244360550 0 0
-0.0257978100 0.0261581540 0 0
-0.0255214840 0.0279982580 0 0
-0.0252036720 0.0297727170 0 0
-0.0248802020 0.0313038990 0 1
-0.0245841860 0.0324343210 0 1
-0.0243410950 0.0330374210 0 1
-0.0241661910 0.0330267710 0 1
-0.0240634260 0.0323653640 0 1
-0.0240247190 0.0310736710 0 1
-0.0240303190 0.0292327590 0 0
-0.0240518530 0.0269804590 0 0
-0.0240576690 0.0245015580 0 0
-0.0240182900 0.0220133740 0 0
-0.0239102760 0.0197472990 0 0
-0.0237179800 0.0179272620 0 0
-0.0234337590 0.0167465840 0 0
-0.0230578720 0.0163441160 0 0
-0.0225987630 0.0167811590 0 0
-0.0220734600 0.0180248710 0 0
-0.0215074330 0.0199464610 0 0
-0.0209332400 0.0223379050 0 0
-0.0203879250 0.0249435050 0 0
-0.0199095120 0.0274989840 0 0
-0.0195328190 0.0297697150 0 0
-0.0192845540 0.0315793410 0 1
-0.0191777960 0.0328226620 0 1
-0.0192072770 0.0334632440 0 1
-0.0193485640 0.0335220300 0 1
-0.0195634010 0.0330636320 0 1
-0.0198098130 0.0321835570 0 1
-0.0200523660 0.0309964610 0 1
-0.0202676520 0.0296246260 0 0
-0.0204432220 0.0281882240 0 0
-0.0205727270 0.0268011590 0 0
-0.0206517520 0.0255730090 0 0
-0.0206762790 0.0246109890 0 0
-0.0206427680 0.0240144650 0 0
-0.0205490850 0.0238609180 0 0
-0.0203970170 0.0241901250 0 0
-0.0201964080 0.0249945280 0 0
-0.0199681050 0.0262182910 0 0
-0.0197419980 0.0277624620 0 0
-0.0195498600 0.0294937060 0 0
-0.0194168760 0.0312565370 0 1
-0.0193562070 0.0328886320 0 1
-0.0193683630 0.0342365120 0 1
-0.0194444300 0.0351697210 0 1
-0.0195704790 0.0355943360 0 1
-0.0197302600 0.0354655610 0 1
-0.0199057640 0.0347965300 0 1
-0.0200781140 0.0336607060 0 1
-0.0202303280 0.0321867990 0 1
-0.0203496880 0.0305459720 0 1
-0.0204269860 0.0289318680 0 0
-0.0204540370 0.0275351160 0 0
-0.0204227050 0.0265161670 0 0
-0.0203259010 0.0259833790 0 0
-0.0201591130 0.0259823340 0 0
-0.0199224080 0.0264963000 0 0
-0.0196232860 0.0274532170 0 0
-0.0192789890 0.0287363870 0 0
-0.0189162410 0.0301991260 0 1
-0.0185676150 0.0316825860 0 1
-0.0182651620 0.0330327420 0 1
-0.0180333030 0.0341120210 0 1
-0.0178843170 0.0348046940 0 1
-0.0178186720 0.0350199490 0 1
-0.0178291740 0.0346975050 0 1
-0.0179056870 0.0338173500 0 1
-0.0180377920 0.0324108660 0 1
-0.0182149980 0.0305679210 0 1
-0.0184258300 0.0284350200 0 0
-0.0186573050 0.0262032940 0 0
-0.0188960620 0.0240889850 0 0
-0.0191318150 0.0223105000 0 0
-0.0193613660 0.0210655520 0 0
-0.0195896230 0.0205104660 0 0
-0.0198265510 0.0207426590 0 0
-0.0200824540 0.0217870930 0 0
-0.0203643930 0.0235876500 0 0
-0.0206750470 0.0260055330 0 0
-0.0210142540 0.0288276230 0 0
-0.0213823020 0.0317862470 0 1
-0.0217826510 0.0345887640 0 1
-0.0222217220 0.0369523500 0 1
-0.0227053840 0.0386376390 0 1
-0.0232342450 0.0394750370 0 1
-0.0238004390 0.0393801490 0 1
-0.0243870170 0.0383589660 0 1
-0.0249693030 0.0365056810 0 1
-0.0255172970 0.0339943800 0 1
-0.0259986600 0.0310640080 0 1
-0.0263821120 0.0279965660 0 0
-0.0266408950 0.0250900330 0 0
-0.0267553710 0.0226285030 0 0
-0.0267140420 0.0208526130 0 0
-0.0265132520 0.0199337300 0 0
-0.0261564520 0.0199557040 0 0
-0.0256540160 0.0209071960 0 0
-0.0250241810 0.0226848500 0 0
-0.0242945210 0.0251052090 0 0
-0.0235027670 0.0279239370 0 0
-0.0226965450 0.0308618440 0 1
-0.0219319990 0.0336355620 0 1
-0.0212700380 0.0359883080 0 1
-0.0207683950 0.0377156060 0 1
-0.0204705930 0.0386828220 0 1
-0.0203964590 0.0388344180 0 1
-0.0205384330 0.0381953840 0 1
-0.0208641400 0.0368639660 0 1
-0.0213227930 0.0349959030 0 1
-0.0218527980 0.0327836800 0 1
-0.0223894870 0.0304357680 0 1
-0.0228732700 0.0281586020 0 0
-0.0232580420 0.0261407240 0 0
-0.0235175960 0.0245380310 0 0
-0.0236473320 0.0234611220 0 0
-0.0236615840 0.0229666380 0 0
-0.0235894560 0.0230532570 0 0
-0.0234705050 0.0236624580 0 0
-0.0233491600 0.0246848360 0 0
-0.0232672430 0.0259725440 0 0
-0.0232560060 0.0273570960 0 0
-0.0233302550 0.0286700720 0 0
-0.0234869230 0.0297630410 0 0
-0.0237087980 0.0305226520 0 1
-0.0239712430 0.0308782660 0 1
-0.0242481450 0.0308028220 0 1
-0.0245141420 0.0303102900 0 1
-0.0247432450 0.0294521400 0 0
-0.0249073420 0.0283132660 0 0
-0.0249781930 0.0270071840 0 0
-0.0249327150 0.0256697830 0 0
-0.0247580810 0.0244499960 0 0
-0.0244538540 0.0234964320 0 0
-0.0240315420 0.0229406520 0 0
-0.0235138280 0.0228790520 0 0
-0.0229340930 0.0233565640 0 0
-0.0223344540 0.0243563880 0 0
-0.0217611980 0.0257988610 0 0
-0.0212586410 0.0275497390 0 0
-0.0208629050 0.0294361110 0 0
-0.0205967640 0.0312671690 0 1
-0.0204670120 0.0328562050 0 1
-0.0204653080 0.0340402410 0 1
-0.0205718220 0.0346952830 0 1
-0.0207599780 0.0347475670 0 1
-0.0210007440 0.0341819010 0 1
-0.0212654960 0.0330454350 0 1
-0.0215274310 0.0314438400 0 1
-0.0217624110 0.0295299880 0 0
-0.0219500010 0.0274880740 0 0
-0.0220748030 0.0255153620 0 0
-0.0221278160 0.0238024380 0 0
-0.0221075550 0.0225136500 0 0
-0.0220208890 0.0217705090 0 0
-0.0218835890 0.0216405540 0 0
-0.0217201120 0.0221327980 0 0
-0.0215613830 0.0231991260 0 0
-0.0214397630 0.0247392420 0 0
-0.0213821950 0.0266078830 0 0
-0.0214040930 0.0286264010 0 0
-0.0215062120 0.0305998740 0 1
-0.0216754300 0.0323355580 0 1
-0.0218890130 0.0336585780 0 1
-0.0221210810 0.0344265240 0 1
-0.0223495540 0.0345458880 0 1
-0.0225619650 0.0339880250 0 1
-0.0227585080 0.0327985330 0 1
-0.0229506150 0.0310957780 0 1
-0.0231546020 0.0290582920 0 0
-0.0233828680 0.0269033030 0 0
-0.0236373460 0.0248600110 0 0
-0.0239085610 0.0231422400 0 0
-0.0241798100 0.0219252470 0 0
-0.0244335920 0.0213306440 0 0
-0.0246575060 0.0214202660 0 0
-0.0248476170 0.0221955740 0 0
-0.0250086590 0.0235991120 0 0
-0.0251523150 0.0255179370 0 0
-0.0252954730 0.0277906780 0 0
-0.0254588320 0.0302198470 0 1
-0.0256644730 0.0325896490 0 1
-0.0259316500 0.0346868700 0 1
-0.0262725010 0.0363210590 0 1
-0.0266899120 0.0373421080 0 1
-0.0271776120 0.0376553070 0 1
-0.0277210030 0.0372330560 0 1
-0.0282976430 0.0361203330 0 1
-0.0288772690 0.0344303540 0 1
-0.0294224820 0.0323292860 0 1
-0.0298917390 0.0300144880 0 1
-0.0302451200 0.0276941450 -1 0
-0.0304515320 0.0255723830 -1 0
-0.0304946650 0.0238370060 -1 0
-0.0303749220 0.0226452430 -1 0
-0.0301069010 0.0221070640 -1 0
-0.0297153850 0.0222698040 0 0
-0.0292332990 0.0231082760 0 0
-0.0287015350 0.0245228780 0 0
-0.0281673500 0.0263471340 0 0
-0.0276794480 0.0283655020 0 0
-0.0272813810 0.0303404070 0 1
-0.0270061530 0.0320441290 0 1
-0.0268733050 0.0332882780 0 1
-0.0268880230 0.0339439960 0 1
-0.0270417000 0.0339504770 0 1
-0.0273140530 0.0333136580 0 1
-0.0276766960 0.0320981610 0 1
-0.0280972600 0.0304152400 0 1
-0.0285428040 0.0284097080 0 0
-0.0289818670 0.0262485650 0 0
-0.0293853020 0.0241116470 0 0
-0.0297262290 0.0221817550 0 0
-0.0299797150 0.0206316490 0 0
-0.0301232800 0.0196073290 -1 0
-0.0301387510 0.0192094070 -1 0
-0.0300150520 0.0194774740 -1 0
-0.0297514350 0.0203840060 0 0
-0.0293601990 0.0218408390 0 0
-0.0288673670 0.0237139890 0 0
-0.0283107610 0.0258401140 0 0
-0.0277363790 0.0280421410 0 0
-0.0271937490 0.0301448350 0 1
-0.0267302600 0.0319895080 0 1
-0.0263851790 0.0334447920 0 1
-0.0261849480 0.0344121230 0 1
-0.0261408710 0.0348293980 0 1
-0.0262492030 0.0346772390 0 1
-0.0264928560 0.0339865950 0 1
-0.0268442320 0.0328419520 0 1
-0.0272687790 0.0313764970 0 1
-0.0277284650 0.0297589910 0 0
-0.0281849280 0.0281732830 0 0
-0.0286031950 0.0267934650 0 0
-0.0289557360 0.0257613150 0 0
-0.0292248280 0.0251725440 0 0
-0.0294022560 0.0250729020 0 0
-0.0294878690 0.0254600440 0 0
-0.0294886900 0.0262867250 0 0
-0.0294179080 0.0274641020 0 0
-0.0292925900 0.0288674560 0 0
-0.0291306520 0.0303472660 0 1
-0.0289481820 0.0317454040 0 1
-0.0287578570 0.0329132180 0 1
-0.0285693230 0.0337280370 0 1
-0.0283913430 0.0341059230 0 1
-0.0282334780 0.0340095370 0 1
-0.0281055950 0.0334505060 0 1
-0.0280157090 0.0324861830 0 1
-0.0279672450 0.0312117110 0 1
-0.0279562090 0.0297491240 0 0
-0.0279695150 0.0282356410 0 0
-0.0279859920 0.0268123740 0 0
-0.0279797100 0.0256136390 0 0
-0.0279236810 0.0247574300 0 0
-0.0277922380 0.0243373720 0 0
-0.0275620010 0.0244154410 0 0
-0.0272136280 0.0250148040 0 0
-0.0267367060 0.0261134360 0 0
-0.0261364050 0.0276406860 0 0
-0.0254373840 0.0294798640 0 0
-0.0246819620 0.0314786710 0 1
-0.0239232240 0.0334661530 0 1
-0.0232161760 0.0352722720 0 1
-0.0226104780 0.0367459750 0 1
-0.0221461850 0.0377695370 0 1
-0.0218510350 0.0382691450 0 1
-0.0217376690 0.0382227170 0 1
-0.0218010050 0.0376646140 0 1
-0.0220173190 0.0366844820 0 1
-0.0223467640 0.0354174550 0 1
-0.0227397120 0.0340268520 0 1
-0.0231450940 0.0326840900 0 1
-0.0235178900 0.0315491310 0 1
-0.0238241090 0.0307517620 0 1
-0.0240432130 0.0303750930 0 1
-0.0241686210 0.0304456650 0 1
-0.0242066600 0.0309332420 0 1
-0.0241741980 0.0317593880 0 1
-0.0240954070 0.0328116140 0 1
-0.0239981460 0.0339594180 0 1
-0.0239101670 0.0350687930 0 1
-0.0238551430 0.0360131200 0 1
-0.0238489790 0.0366808570 0 1
-0.0238974260 0.0369819140 0 1
-0.0239962430 0.0368534200 0 1
-0.0241340420 0.0362647330 0 1
-0.0242959720 0.0352227210 0 1
-0.0244655520 0.0337778700 0 1
-0.0246236170 0.0320282940 0 1
-0.0247466610 0.0301166750 0 1
-0.0248079530 0.0282174330 0 0
-0.0247821710 0.0265157970 0 0
-0.0246513030 0.0251829920 0 0
-0.0244093810 0.0243522440 0 0
-0.0240645150 0.0241002270 0 0
-0.0236376680 0.0244374730 0 0
-0.0231593150 0.0253080530 0 0
-0.0226661670 0.0265969160 0 0
-0.0221987550 0.0281448550 0 0
-0.0217988420 0.0297711150 0 0
-0.0215053880 0.0312992380 0 1
-0.0213490920 0.0325788540 0 1
-0.0213472100 0.0334991660 0 1
-0.0215009010 0.0339938160 0 1
-0.0217958830 0.0340387880 0 1
-0.0222051100 0.0336472980 0 1
-0.0226915890 0.0328668130 0 1
-0.0232108800 0.0317796590 0 1
-0.0237144410 0.0305028290 0 1
-0.0241548870 0.0291815530 0 0
-0.0244924940 0.0279762750 0 0
-0.0247009440 0.0270470950 0 0
-0.0247703490 0.0265385600 0 0
-0.0247065490 0.0265644050 0 0
-0.0245271440 0.0271921540 0 0
-0.0242561500 0.0284300310 0 0
-0.0239193820 0.0302195800 0 1
-0.0235413610 0.0324368990 0 1
-0.0231437610 0.0349040100 0 1
-0.0227452480 0.0374090320 0 1
-0.0223623660 0.0397309350 0 1
-0.0220110070 0.0416639600 0 1
-0.0217080430 0.0430380700 0 1
-0.0214720960 0.0437337630 0 1
-0.0213223250 0.0436910830 0 1
-0.0212753640 0.0429134110 0 1
-0.0213413780 0.0414666640 0 1
-0.0215199700 0.0394735980 0 1
-0.0217975940 0.0371016230 0 1
-0.0221490510 0.0345432860 0 1
-0.0225434770 0.0319931330 0 1
-0.0229516330 0.0296279670 0 0
-0.0233510350 0.0275948720 0 0
-0.0237283660 0.0260066650 0 0
-0.0240799060 0.0249423390 0 0
-0.0244098180 0.0244487340 0 0
-0.0247262810 0.0245395220 0 0
-0.0250370440 0.0251911660 0 0
-0.0253464460 0.0263386080 0 0
-0.0256547740 0.0278730180 0 0
-0.0259594120 0.0296436170 0 0
-0.0262570590 0.0314668220 0 1
-0.0265460280 0.0331448080 0 1
-0.0268267140 0.0344907520 0 1
-0.0270988360 0.0353541130 0 1
-0.0273565630 0.0356406260 0 1
-0.0275851420 0.0353255390 0 1
-0.0277626380 0.0344592270 0 1
-0.0278672350 0.0331624970 0 1
-0.0278861030 0.0316104910 0 1
-0.0278201900 0.0300086140 0 1
-0.0276826930 0.0285660790 0 0
-0.0274936010 0.0274716110 0 0
-0.0272738290 0.0268741090 0 0
-0.0270409380 0.0268692150 0 0
-0.0268070330 0.0274920730 0 0
-0.0265788110 0.0287160400 0 0
-0.0263595320 0.0304552740 0 1
-0.0261522010 0.0325695500 0 1
-0.0259623190 0.0348729850 0 1
-0.0257987520 0.0371497710 0 1
-0.0256725870 0.0391774380 0 1
-0.0255948670 0.0407538700 0 1
-0.0255742400 0.0417214000 0 1
-0.0256150770 0.0419823440 0 1
-0.0257161290 0.0415051660 0 1
-0.0258696630 0.0403245980 0 1
-0.0260610560 0.0385382680 0 1
-0.0262688840 0.0362987930 0 1
-0.0264657220 0.0337992610 0 1
-0.0266201870 0.0312524900 0 1
-0.0267004220 0.0288670940 0 0
-0.0266786700 0.0268245350 0 0
-0.0265361060 0.0252612250 0 0
-0.0262667910 0.0242584500 0 0
-0.0258796260 0.0238404450 0 0
-0.0253980730 0.0239788830 0 0
-0.0248579390 0.0246009840 0 0
-0.0243029720 0.0255986000 0 0
-0.0237778190 0.0268371590 0 0
-0.0233200860 0.0281648750 0 0
-0.0229552060 0.0294222820 0 0
-0.0226955220 0.0304518130 0 1
-0.0225415250 0.0311092830 0 1
-0.0224833160 0.0312799240 0 1
-0.0225028160 0.0308977720 0 1
-0.0225777380 0.0299626910 0 0
-0.0226866840 0.0285490280 0 0
-0.0228134950 0.0268022930 0 0
-0.0229493240 0.0249235890 0 0
-0.0230922770 0.0231449830 0 0
-0.0232453120 0.0217001350 0 0
-0.0234134470 0.0207943610 0 0
-0.0236010220 0.0205793270 0 0
-0.0238095460 0.0211369830 0 0
-0.0240369840 0.0224737200 0 0
-0.0242792960 0.0245220350 0 0
-0.0245340310 0.0271468390 0 0
-0.0248039510 0.0301572140 0 1
-0.0250976300 0.0333252010 0 1
-0.0254256770 0.0364083010 0 1
-0.0257949360 0.0391705350 0 1
-0.0262045800 0.0414010860 0 1
-0.0266457420 0.0429311030 0 1
-0.0271030420 0.0436472150 0 1
-0.0275557650 0.0435006370 0 1
-0.0279788490 0.0425120620 0 1
-0.0283450530 0.0407718210 0 1
-0.0286280780 0.0384342590 0 1
-0.0288053380 0.0357057730 0 1
-0.0288598810 0.0328265350 0 1
-0.0287818430 0.0300468150 0 1
-0.0285696940 0.0276001430 0 0
-0.0282314280 0.0256767570 0 0
-0.0277855410 0.0244016370 0 0
-0.0272608690 0.0238214560 0 0
-0.0266941490 0.0239029460 0 0
-0.0261256920 0.0245428760 0 0
-0.0255951320 0.0255879970 0 0
-0.0251384810 0.0268610560 0 0
-0.0247858250 0.0281864470 0 0
-0.0245586390 0.0294085460 0 0
-0.0244674630 0.0303997010 0 1
-0.0245116050 0.0310613510 0 1
-0.0246810600 0.0313243710 0 1
-0.0249591440 0.0311516950 0 1
-0.0253244240 0.0305426040 0 1
-0.0257516500 0.0295362560 0 0
-0.0262123620 0.0282114080 0 0
-0.0266757180 0.0266810950 0 0
-0.0271089220 0.0250834400 0 0
-0.0274764840 0.0235697100 0 0
-0.0277396420 0.0222899370 0 0
-0.0278581670 0.0213773100 0 0
-0.0277949980 0.0209340890 0 0
-0.0275219110 0.0210217920 0 0
-0.0270244620 0.0216556060 0 0
-0.0263057940 0.0228015670 0 0
-0.0253896940 0.0243777060 0 0
-0.0243229070 0.0262614000 0 0
-0.0231761750 0.0283012540 0 0
-0.0220426840 0.0303298490 0 1
-0.0210320620 0.0321761040 0 1
-0.0202593060 0.0336776700 0 1
-0.0198308040 0.0346925970 0 1
-0.0198310750 0.0351086700 0 1
-0.0203129850 0.0348505490 0 1
-0.0212921380 0.0338873030 0 1
-0.0227447170 0.0322412540 0 1
-0.0246084830 0.0299948370 0 0
-0.0267877650 0.0272902760 0 0
-0.0291631390 0.0243181810 0 0
-0.0316052050 0.0212946720 -1 0
-0.0339903320 0.0184308740 -1 0
-0.0362151810 0.0159014300 -1 0
-0.0382075350 0.0138191030 -1 0
-0.0399330370 0.0122198910 -1 0
-0.0413978430 0.0110592820 -1 0
-0.0426457120 0.0102193540 -1 0
-0.0437482890 0.0095266480 -1 0
-0.0447903590 0.0087783720 -1 0
-0.0458543820 0.0077714640 -1 0
-0.0470083370 0.0063281030 -1 0
-0.0482984440 0.0043131140 -1 0
-0.0497462110 0.0016427000 -1 0
-0.0513486840 -0.0017121730 -1 0
-0.0530809780 -0.0057238820 -1 0
-0.0549004620 -0.0103066420 -1 0
-0.0567525460 -0.0153179740 -1 0
-0.0585780280 -0.0205670460 -1 0
-0.0603211800 -0.0258314680 -1 0
-0.0619373550 -0.0308809350 -1 -1
-0.0633994620 -0.0355042440 -1 -1
-0.0647026140 -0.0395349720 -1 -1
-0.0658656570 -0.0428704180 -1 -1
-0.0669287520 -0.0454804880 -1 -1
-0.0679475120 -0.0474061880 -1 -1
-0.0689850630 -0.0487489550 -1 -1
-0.0701035700 -0.0496535330 -1 -1
-0.0713560600 -0.0502889370 -1 -1
-0.0727783670 -0.0508318240 -1 -1
-0.0743818340 -0.0514535360 -1 -1
-0.0761492250 -0.0523086850 -1 -1
-0.0780358760 -0.0535227050 -1 -1
-0.0799752950 -0.0551785020 -1 -1
-0.0818865690 -0.0573050530 -1 -1
-0.0836823420 -0.0598709740 -1 -1
-0.0852784410 -0.0627845470 -1 -1
-0.0866047950 -0.0659002420 -1 -1
-0.0876141760 -0.0690309550 -1 -1
-0.0882863180 -0.0719651200 -1 -1
-0.0886279060 -0.0744881470 -1 -1
-0.0886691970 -0.0764063930 -1 -1
-0.0884576420 -0.0775699050 -1 -1
-0.0880500610 -0.0778906040 -1 -1
-0.0875056800 -0.0773549740 -1 -1
-0.0868811830 -0.0760301320 -1 -1
-0.0862278060 -0.0740598370 -1 -1
-0.0855899240 -0.0716484250 -1 -1
-0.0850046150 -0.0690361330 -1 -1
-0.0845018140 -0.0664720040 -1 -1
-0.0841045940 -0.0641879620 -1 -1
-0.0838289340 -0.0623749480 -1 -1
-0.0836826400 -0.0611632000 -1 -1
-0.0836638210 -0.0606109820 -1 -1
-0.0837594910 -0.0607048200 -1 -1
-0.0839448090 -0.0613697430 -1 -1
-0.0841836770 -0.0624841150 -1 -1
-0.0844315580 -0.0638936800 -1 -1
-0.0846411510 -0.0654229110 -1 -1
-0.0847704830 -0.0668859880 -1 -1
-0.0847909310 -0.0681006510 -1 -1
-0.0846917080 -0.0689047790 -1 -1
-0.0844795110 -0.0691725370 -1 -1
-0.0841751890 -0.0688274070 -1 -1
-0.0838101600 -0.0678509920 -1 -1
-0.0834232700 -0.0662872210 -1 -1
-0.0830565900 -0.0642411410 -1 -1
-0.0827489800 -0.0618706500 -1 -1
-0.0825285830 -0.0593704130 -1 -1
-0.0824075270 -0.0569502060 -1 -1
-0.0823818710 -0.0548123620 -1 -1
-0.0824365740 -0.0531333600 -1 -1
-0.0825519150 -0.0520520110 -1 -1
-0.0827077810 -0.0516620940 -1 -1
-0.0828844420 -0.0520053000 -1 -1
-0.0830607910 -0.0530632140 -1 -1
-0.0832125870 -0.0547509310 -1 -1
-0.0833130620 -0.0569168800 -1 -1
-0.0833362030 -0.0593520470 -1 -1
-0.0832615250 -0.0618080520 -1 -1
-0.0830789140 -0.0640214010 -1 -1
-0.0827918850 -0.0657413160 -1 -1
-0.0824176110 -0.0667578600 -1 -1
-0.0819833140 -0.0669264140 -1 -1
-0.0815199710 -0.0661854150 -1 -1
-0.0810551310 -0.0645655230 -1 -1
-0.0806077850 -0.0621892720 -1 -1
-0.0801875290 -0.0592600960 -1 -1
-0.0797972960 -0.0560396840 -1 -1
-0.0794369810 -0.0528157150 -1 -1
-0.0791060110 -0.0498665520 -1 -1
-0.0788044590 -0.0474305210 -1 -1
-0.0785327620 -0.0456847270 -1 -1
-0.0782907010 -0.0447350890 -1 -1
-0.0780768240 -0.0446162110 -1 -1
-0.0778887880 -0.0452967520 -1 -1
-0.0777237480 -0.0466860190 -1 -1
-0.0775779740 -0.0486410220 -1 -1
-0.0774463440 -0.0509756820 -1 -1
-0.0773227600 -0.0534743850 -1 -1
-0.0772010370 -0.0559115820 -1 -1
-0.0770750250 -0.0580760650 -1 -1
-0.0769381360 -0.0597947080 -1 -1
-0.0767842000 -0.0609501680 -1 -1
-0.0766107440 -0.0614899990 -1 -1
-0.0764235780 -0.0614270780 -1 -1
-0.0762399270 -0.0608324220 -1 -1
-0.0760873240 -0.0598223590 -1 -1
-0.0759977410 -0.0585431190 -1 -1
-0.0760000820 -0.0571558410 -1 -1
-0.0761151720 -0.0558235450 -1 -1
-0.0763545000 -0.0547002220 -1 -1
-0.0767206560 -0.0539207710 -1 -1
-0.0772064810 -0.0535896370 -1 -1
-0.0777922300 -0.0537676620 -1 -1
-0.0784433500 -0.0544594610 -1 -1
-0.0791123990 -0.0556050090 -1 -1
-0.0797457310 -0.0570794360 -1 -1
-0.0802920290 -0.0587040780 -1 -1
-0.0807092170 -0.0602677350 -1 -1
-0.0809685700 -0.0615528160 -1 -1
-0.0810569700 -0.0623609700 -1 -1
-0.0809782440 -0.0625352970 -1 -1
-0.0807534180 -0.0619779810 -1 -1
-0.0804189660 -0.0606635770 -1 -1
-0.0800222090 -0.0586481680 -1 -1
-0.0796144240 -0.0560715890 -1 -1
-0.0792436130 -0.0531478670 -1 -1
-0.0789486160 -0.0501420500 -1 -1
-0.0787553090 -0.0473371320 -1 -1
-0.0786756220 -0.0449976540 -1 -1
-0.0787097670 -0.0433365000 -1 -1
-0.0788504990 -0.0424906950 -1 -1
-0.0790873830 -0.0425106000 -1 -1
-0.0794094860 -0.0433630990 -1 -1
-0.0798058690 -0.0449444720 -1 -1
-0.0802641510 -0.0470967960 -1 -1
-0.0807676150 -0.0496246370 -1 -1
-0.0812916170 -0.0523118260 -1 -1
-0.0818013590 -0.0549376750 -1 -1
-0.0822532990 -0.0572910660 -1 -1
-0.0826005920 -0.0591832320 -1 -1
-0.0828009410 -0.0604627380 -1 -1
-0.0828242990 -0.0610329370 -1 -1
-0.0826580520 -0.0608666050 -1 -1
-0.0823089190 -0.0600126050 -1 -1
-0.0818021740 -0.0585929270 -1 -1
-0.0811786920 -0.0567898200 -1 -1
-0.0804896440 -0.0548233850 -1 -1
-0.0797888900 -0.0529230360 -1 -1
-0.0791246030 -0.0512989160 -1 -1
-0.0785328480 -0.0501181660 -1 -1
-0.0780349890 -0.0494884080 -1 -1
-0.0776384810 -0.0494495310 -1 -1
-0.0773393540 -0.0499731460 -1 -1
-0.0771251940 -0.0509676570 -1 -1
-0.0769782580 -0.0522882070 -1 -1
-0.0768780210 -0.0537520010 -1 -1
-0.0768023110 -0.0551575320 -1 -1
-0.0767272450 -0.0563050280 -1 -1
-0.0766274950 -0.0570170770 -1 -1
-0.0764785810 -0.0571589190 -1 -1
-0.0762613100 -0.0566554680 -1 -1
-0.0759664680 -0.0555001040 -1 -1
-0.0755975880 -0.0537527160 -1 -1
-0.0751708280 -0.0515298880 -1 -1
-0.0747121580 -0.0489925030 -1 -1
-0.0742527860 -0.0463334250 -1 -1
-0.0738242390 -0.0437644610 -1 -1
-0.0734544240 -0.0415004140 -1 -1
-0.0731653810 -0.0397391400 -1 -1
-0.0729723680 -0.0386389880 -1 -1
-0.0728830630 -0.0382979280 -1 -1
-0.0728963590 -0.0387407440 -1 -1
-0.0730014840 -0.0399187450 -1 -1
-0.0731782380 -0.0417208370 -1 -1
-0.0733982540 -0.0439908620 -1 -1
-0.0736270430 -0.0465455320 -1 -1
-0.0738264420 -0.0491888620 -1 -1
-0.0739570260 -0.0517232110 -1 -1
-0.0739807400 -0.0539605600 -1 -1
-0.0738647260 -0.0557361650 -1 -1
-0.0735866090 -0.0569235730 -1 -1
-0.0731402340 -0.0574486780 -1 -1
-0.0725400260 -0.0572994280 -1 -1
-0.0718221560 -0.0565275620 -1 -1
-0.0710420700 -0.0552415350 -1 -1
-0.0702697330 -0.0535930980 -1 -1
-0.0695839510 -0.0517607900 -1 -1
-0.0690657310 -0.0499328560 -1 -1
-0.0687902100 -0.0482913600 -1 -1
-0.0688180540 -0.0469980380 -1 -1
-0.0691879900 -0.0461811400 -1 -1
-0.0699116420 -0.0459234790 -1 -1
-0.0709711110 -0.0462542120 -1 -1
-0.0723191610 -0.0471465840 -1 -1
-0.0738815070 -0.0485213360 -1 -1
-0.0755612100 -0.0502550560 -1 -1
-0.0772457960 -0.0521940470 -1 -1
-0.0788173030 -0.0541728250 -1 -1
-0.0801640070 -0.0560327940 -1 -1
-0.0811920990 -0.0576362150 -1 -1
-0.0818358760 -0.0588746570 -1 -1
-0.0820649140 -0.0596746160 -1 -1
-0.0818866890 -0.0600020880 -1 -1
-0.0813440810 -0.0598654080 -1 -1
-0.0805086270 -0.0593151550 -1 -1
-0.0794714030 -0.0584409430 -1 -1
-0.0783333430 -0.0573651310 -1 -1
-0.0771958740 -0.0562329180 -1 -1
-0.0761519380 -0.0551989400 -1 -1
-0.0752775350 -0.0544116210 -1 -1
-0.0746248190 -0.0539965900 -1 -1
-0.0742180340 -0.0540408300 -1 -1
-0.0740528240 -0.0545804430 -1 -1
-0.0740991730 -0.0555949650 -1 -1
-0.0743079990 -0.0570099800 -1 -1
-0.0746199900 -0.0587074240 -1 -1
-0.0749742280 -0.0605394330 -1 -1
-0.0753148700 -0.0623412440 -1 -1
-0.0755953250 -0.0639433340 -1 -1
-0.0757806540 -0.0651851890 -1 -1
-0.0758494860 -0.0659302990 -1 -1
-0.0757958870 -0.0660804430 -1 -1
-0.0756299820 -0.0655887750 -1 -1
-0.0753752620 -0.0644709000 -1 -1
-0.0750620560 -0.0628102770 -1 -1
-0.0747198850 -0.0607536280 -1 -1
-0.0743725230 -0.0584957410 -1 -1
-0.0740373010 -0.0562572650 -1 -1
-0.0737273410 -0.0542601440 -1 -1
-0.0734541540 -0.0527042970 -1 -1
-0.0732283580 -0.0517484600 -1 -1
-0.0730581910 -0.0514966630 -1 -1
-0.0729470600 -0.0519892370 -1 -1
-0.0728915190 -0.0531973040 -1 -1
-0.0728806950 -0.0550226120 -1 -1
-0.0728978030 -0.0573048250 -1 -1
-0.0729235440 -0.0598355400 -1 -1
-0.0729401050 -0.0623778740 -1 -1
-0.0729341750 -0.0646913000 -1 -1
-0.0728981900 -0.0665591050 -1 -1
-0.0728297970 -0.0678129180 -1 -1
-0.0727298400 -0.0683500630 -1 -1
-0.0725998080 -0.0681434560 -1 -1
-0.0724403610 -0.0672454320 -1 -1
-0.0722518020 -0.0657847850 -1 -1
-0.0720357650 -0.0639544530 -1 -1
-0.0717972700 -0.0619889510 -1 -1
-0.0715468880 -0.0601344210 -1 -1
-0.0713021560 -0.0586170070 -1 -1
-0.0710863600 -0.0576157620 -1 -1
-0.0709237880 -0.0572448430 -1 -1
-0.0708335280 -0.0575466590 -1 -1
-0.0708252680 -0.0584940740 -1 -1
-0.0708983590 -0.0599978260 -1 -1
-0.0710428020 -0.0619165700 -1 -1
-0.0712408000 -0.0640695990 -1 -1
-0.0714688240 -0.0662528180 -1 -1
-0.0717004280 -0.0682568190 -1 -1
-0.0719094390 -0.0698855890 -1 -1
-0.0720732430 -0.0709753570 -1 -1
-0.0721762180 -0.0714117280 -1 -1
-0.0722125070 -0.0711418070 -1 -1
-0.0721865060 -0.0701795500 -1 -1
-0.0721105260 -0.0686039700 -1 -1
-0.0720009270 -0.0665498820 -1 -1
-0.0718744390 -0.0641929850 -1 -1
-0.0717451510 -0.0617333970 -1 -1
-0.0716220120 -0.0593799010 -1 -1
-0.0715074170 -0.0573336400 -1 -1
-0.0713981740 -0.0557701150 -1 -1
-0.0712889020 -0.0548215080 -1 -1
-0.0711758190 -0.0545629690 -1 -1
-0.0710585290 -0.0550059050 -1 -1
-0.0709388950 -0.0560994140 -1 -1
-0.0708178510 -0.0577379410 -1 -1
-0.0706920760 -0.0597722530 -1 -1
-0.0705525280 -0.0620225140 -1 -1
-0.0703854520 -0.0642928440 -1 -1
-0.0701747520 -0.0663860650 -1 -1
-0.0699042220 -0.0681182450 -1 -1
-0.0695595700 -0.0693343740 -1 -1
-0.0691311500 -0.0699255430 -1 -1
-0.0686173830 -0.0698444860 -1 -1
-0.0680271660 -0.0691143310 -1 -1
-0.0673794630 -0.0678270250 -1 -1
-0.0667002330 -0.0661311920 -1 -1
-0.0660185980 -0.0642130780 -1 -1
-0.0653636970 -0.0622767300 -1 -1
-0.0647615870 -0.0605263220 -1 -1
-0.0642312090 -0.0591483090 -1 -1
-0.0637806070 -0.0582923260 -1 -1
-0.0634056520 -0.0580549340 -1 -1
-0.0630916310 -0.0584711330 -1 -1
-0.0628166200 -0.0595150680 -1 -1
-0.0625557650 -0.0611072010 -1 -1
-0.0622852490 -0.0631235600 -1 -1
-0.0619843300 -0.0654054530 -1 -1
-0.0616354750 -0.0677708920 -1 -1
-0.0612243960 -0.0700275220 -1 -1
-0.0607411600 -0.0719856910 -1 -1
-0.0601822210 -0.0734722460 -1 -1
-0.0595527450 -0.0743461510 -1 -1
-0.0588678160 -0.0745137550 -1 -1
-0.0581509820 -0.0739391060 -1 -1
-0.0574306270 -0.0726465460 -1 -1
-0.0567364570 -0.0707175780 -1 -1
-0.0560973870 -0.0682868880 -1 -1
-0.0555401980 -0.0655384990 -1 -1
-0.0550879040 -0.0626965420 -1 -1
-0.0547575230 -0.0600056040 -1 -1
-0.0545578410 -0.0577024210 -1 -1
-0.0544880010 -0.0559859020 -1 -1
-0.0545375870 -0.0549923560 -1 -1
-0.0546884520 -0.0547798760 -1 -1
-0.0549179090 -0.0553230500 -1 -1
-0.0552023460 -0.0565177820 -1 -1
-0.0555203210 -0.0581946450 -1 -1
-0.0558546570 -0.0601380760 -1 -1
-0.0561931400 -0.0621092460 -1 -1
-0.0565276970 -0.0638719540 -1 -1
-0.0568529410 -0.0652193280 -1 -1
-0.0571652120 -0.0659961740 -1 -1
-0.0574620900 -0.0661132870 -1 -1
-0.0577419870 -0.0655549110 -1 -1
-0.0580039620 -0.0643818520 -1 -1
-0.0582477200 -0.0627293830 -1 -1
-0.0584731500 -0.0607959630 -1 -1
-0.0586795640 -0.0588207260 -1 -1
-0.0588659830 -0.0570537680 -1 -1
-0.0590329630 -0.0557264260 -1 -1
-0.0591841580 -0.0550253710 -1 -1
-0.0593255590 -0.0550708500 -1 -1
-0.0594627420 -0.0559006320 -1 -1
-0.0595984150 -0.0574627700 -1 -1
-0.0597318960 -0.0596190960 -1 -1
-0.0598596610 -0.0621586840 -1 -1
-0.0599751740 -0.0648186690 -1 -1
-0.0600677870 -0.0673105990 -1 -1
-0.0601220690 -0.0693519410 -1 -1
-0.0601192220 -0.0707001420 -1 -1
-0.0600417090 -0.0711830290 -1 -1
-0.0598800640 -0.0707194080 -1 -1
-0.0596382510 -0.0693269060 -1 -1
-0.0593349370 -0.0671170650 -1 -1
-0.0590015850 -0.0642802660 -1 -1
-0.0586792210 -0.0610637950 -1 -1
-0.0584136720 -0.0577447300 -1 -1
-0.0582485680 -0.0545993000 -1 -1
-0.0582174820 -0.0518731320 -1 -1
-0.0583380890 -0.0497578920 -1 -1
-0.0586101610 -0.0483774750 -1 -1
-0.0590171080 -0.0477837700 -1 -1
-0.0595298710 -0.0479597010 -1 -1
-0.0601121450 -0.0488267110 -1 -1
-0.0607255910 -0.0502557950 -1 -1
-0.0613334590 -0.0520821890 -1 -1
-0.0619023420 -0.0541218430 -1 -1
-0.0624030780 -0.0561865430 -1 -1
-0.0628114590 -0.0580964880 -1 -1
-0.0631088950 -0.0596916500 -1 -1
-0.0632830940 -0.0608431680 -1 -1
-0.0633285570 -0.0614636190 -1 -1
-0.0632469600 -0.0615138330 -1 -1
-0.0630477330 -0.0610056980 -1 -1
-0.0627485640 -0.0600019340 -1 -1
-0.0623751180 -0.0586124600 -1 -1
-0.0619599860 -0.0569860470 -1 -1
-0.0615406500 -0.0552978420 -1 -1
-0.0611552470 -0.0537344740 -1 -1
-0.0608364190 -0.0524767920 -1 -1
-0.0606061370 -0.0516797660 -1 -1
-0.0604739670 -0.0514514940 -1 -1
-0.0604378070 -0.0518354030 -1 -1
-0.0604842910 -0.0527997400 -1 -1
-0.0605876370 -0.0542377500 -1 -1
-0.0607085330 -0.0559805990 -1 -1
-0.0607958380 -0.0578213160 -1 -1
-0.0607927780 -0.0595434850 -1 -1
-0.0606467660 -0.0609478220 -1 -1
-0.0603199950 -0.0618735190 -1 -1
-0.0597978500 -0.0622139800 -1 -1
-0.0590928340 -0.0619260250 -1 -1
-0.0582425430 -0.0610313320 -1 -1
-0.0573023970 -0.0596108930 -1 -1
-0.0563363760 -0.0577944900 -1 -1
-0.0554088930 -0.0557462450 -1 -1
-0.0545791030 -0.0536472680 -1 -1
-0.0538972710 -0.0516779140 -1 -1
-0.0534023130 -0.0500029110 -1 -1
-0.0531203030 -0.0487612150 -1 -1
-0.0530641670 -0.0480592030 -1 -1
-0.0532345430 -0.0479641530 -1 -1
-0.0536215950 -0.0484968650 -1 -1
-0.0542069330 -0.0496250770 -1 -1
-0.0549642790 -0.0512607450 -1 -1
-0.0558584000 -0.0532642210 -1 -1
-0.0568437350 -0.0554561170 -1 -1
-0.0578651120 -0.0576349300 -1 -1
-0.0588619280 -0.0595979180 -1 -1
-0.0597750210 -0.0611627480 -1 -1
-0.0605540260 -0.0621866660 -1 -1
-0.0611633730 -0.0625809390 -1 -1
-0.0615861780 -0.0623215760 -1 -1
-0.0618255720 -0.0614573690 -1 -1
-0.0619033180 -0.0601120010 -1 -1
-0.0618561130 -0.0584746040 -1 -1
-0.0617300680 -0.0567759540 -1 -1
-0.0615738050 -0.0552535490 -1 -1
-0.0614310970 -0.0541142810 -1 -1
-0.0613346290 -0.0535043910 -1 -1
-0.0613025210 -0.0534933370 -1 -1
-0.0613381750 -0.0540732710 -1 -1
-0.0614327090 -0.0551707830 -1 -1
-0.0615688340 -0.0566643840 -1 -1
-0.0617251960 -0.0584010100 -1 -1
-0.0618801090 -0.0602080850 -1 -1
-0.0620133260 -0.0619027480 -1 -1
-0.0621053540 -0.0633026360 -1 -1
-0.0621359600 -0.0642405260 -1 -1
-0.0620843880 -0.0645807490 -1 -1
-0.0619323180 -0.0642335750 -1 -1
-0.0616683150 -0.0631654450 -1 -1
-0.0612914640 -0.0614039230 -1 -1
-0.0608127460 -0.0590361730 -1 -1
-0.0602544540 -0.0562012380 -1 -1
-0.0596486070 -0.0530780470 -1 -1
-0.0590344770 -0.0498709300 -1 -1
-0.0584544630 -0.0467937430 -1 -1
-0.0579480090 -0.0440539210 -1 -1
-0.0575446440 -0.0418376980 -1 -1
-0.0572583260 -0.0402965760 -1 -1
-0.0570853220 -0.0395347030 -1 -1
-0.0570061900 -0.0395978360 -1 -1
-0.0569906660 -0.0404658050 -1 -1
-0.0570041190 -0.0420505650 -1 -1
-0.0570147210 -0.0442011400 -1 -1
-0.0569997230 -0.0467156250 -1 -1
-0.0569486470 -0.0493593780 -1 -1
-0.0568628990 -0.0518877940 -1 -1
-0.0567533480 -0.0540707820 -1 -1
-0.0566377200 -0.0557161450 -1 -1
-0.0565383750 -0.0566909670 -1 -1
-0.0564799220 -0.0569391490 -1 -1
-0.0564861930 -0.0564894810 -1 -1
-0.0565769010 -0.0554491480 -1 -1
-0.0567648520 -0.0539837580 -1 -1
-0.0570544620 -0.0522909100 -1 -1
-0.0574418290 -0.0505758720 -1 -1
-0.0579159760 -0.0490340800 -1 -1
-0.0584602810 -0.0478389120 -1 -1
-0.0590529850 -0.0471307170 -1 -1
-0.0596666980 -0.0470053800 -1 -1
-0.0602681940 -0.0475034880 -1 -1
-0.0608195230 -0.0486025170 -1 -1
-0.0612802400 -0.0502149590 -1 -1
-0.0616103870 -0.0521938240 -1 -1
-0.0617745950 -0.0543447800 -1 -1
-0.0617474250 -0.0564439440 -1 -1
-0.0615185750 -0.0582605650 -1 -1
-0.0610959890 -0.0595823700 -1 -1
-0.0605062530 -0.0602396940 -1 -1
-0.0597927080 -0.0601249670 -1 -1
-0.0590113780 -0.0592054590 -1 -1
-0.0582247320 -0.0575277680 -1 -1
-0.0574938980 -0.0552135920 -1 -1
-0.0568708280 -0.0524489540 -1 -1
-0.0563923360 -0.0494691920 -1 -1
-0.0560771110 -0.0465391210 -1 -1
-0.0559255550 -0.0439274160 -1 -1
-0.0559223470 -0.0418775650 -1 -1
-0.0560414800 -0.0405803180 -1 -1
-0.0562517630 -0.0401529300 -1 -1
-0.0565202100 -0.0406288350 -1 -1
-0.0568131670 -0.0419579220 -1 -1
-0.0570973910 -0.0440150840 -1 -1
-0.0573427760 -0.0466151520 -1 -1
-0.0575261680 -0.0495332920 -1 -1
-0.0576344550 -0.0525280240 -1 -1
-0.0576658110 -0.0553618690 -1 -1
-0.0576295180 -0.0578169390 -1 -1
-0.0575451960 -0.0597071920 -1 -1
-0.0574410740 -0.0608902370 -1 -1
-0.0573500220 -0.0612787780 -1 -1
-0.0573033820 -0.0608489360 -1 -1
-0.0573245850 -0.0596431090 -1 -1
-0.0574247330 -0.0577678060 -1 -1
-0.0576014130 -0.0553876920 -1 -1
-0.0578411280 -0.0527151340 -1 -1
-0.0581247250 -0.0499936800 -1 -1
-0.0584338650 -0.0474760450 -1 -1
-0.0587554460 -0.0453986380 -1 -1
-0.0590818720 -0.0439546700 -1 -1
-0.0594081700 -0.0432693590 -1 -1
-0.0597286090 -0.0433824320 -1 -1
-0.0600343870 -0.0442417940 -1 -1
-0.0603130330 -0.0457092700 -1 -1
-0.0605503640 -0.0475773050 -1 -1
-0.0607348100 -0.0495942980 -1 -1
-0.0608616650 -0.0514948550 -1 -1
-0.0609342480 -0.0530309810 -1 -1
-0.0609610090 -0.0540014820 -1 -1
-0.0609503620 -0.0542763340 -1 -1
-0.0609066300 -0.0538111570 -1 -1
-0.0608298960 -0.0526483180 -1 -1
-0.0607198160 -0.0509065620 -1 -1
-0.0605798720 -0.0487638120 -1 -1
-0.0604181100 -0.0464354060 -1 -1
-0.0602445070 -0.0441493070 -1 -1
-0.0600687670 -0.0421225430 -1 -1
-0.0599010300 -0.0405425250 -1 -1
-0.0597538150 -0.0395529000 -1 -1
-0.0596420360 -0.0392424100 -1 -1
-0.0595802630 -0.0396373090 -1 -1
-0.0595785810 -0.0406993660 -1 -1
-0.0596385360 -0.0423303380 -1 -1
-0.0597502110 -0.0443816600 -1 -1
-0.0598915180 -0.0466673970 -1 -1
-0.0600300410 -0.0489795150 -1 -1
-0.0601267940 -0.0511057040 -1 -1
-0.0601413110 -0.0528503460 -1 -1
-0.0600383010 -0.0540571600 -1 -1
-0.0597955450 -0.0546283120 -1 -1
-0.0594109060 -0.0545342220 -1 -1
-0.0589053530 -0.0538129770 -1 -1
-0.0583201650 -0.0525619670 -1 -1
-0.0577092590 -0.0509241970 -1 -1
-0.0571294750 -0.0490716040 -1 -1
-0.0566313640 -0.0471885150 -1 -1
-0.0562523050 -0.0454573970 -1 -1
-0.0560133640 -0.0440465750 -1 -1
-0.0559200040 -0.0430983040 -1 -1
-0.0559650770 -0.0427165920 -1 -1
-0.0561323840 -0.0429557130 -1 -1
-0.0563995530 -0.0438111110 -1 -1
-0.0567391620 -0.0452148850 -1 -1
-0.0571184990 -0.0470380010 -1 -1
-0.0575003730 -0.0491000160 -1 -1
-0.0578465720 -0.0511859490 -1 -1
-0.0581227540 -0.0530691870 -1 -1
-0.0583024620 -0.0545373590 -1 -1
-0.0583689760 -0.0554163190 -1 -1
-0.0583150320 -0.0555890320 -1 -1
-0.0581415320 -0.0550092570 -1 -1
-0.0578568710 -0.0537090130 -1 -1
-0.0574776300 -0.0517962590 -1 -1
-0.0570299580 -0.0494416260 -1 -1
-0.0565505530 -0.0468580910 -1 -1
-0.0560858950 -0.0442785540 -1 -1
-0.0556878160 -0.0419337040 -1 -1
-0.0554050080 -0.0400312750 -1 -1
-0.0552733170 -0.0387384380 -1 -1
-0.0553090190 -0.0381684880 -1 -1
-0.0555071190 -0.0383712220 -1 -1
-0.0558437340 -0.0393270320 -1 -1
-0.0562807580 -0.0409471230 -1 -1
-0.0567721980 -0.0430820470 -1 -1
-0.0572719110 -0.0455369830 -1 -1
-0.0577409150 -0.0480896110 -1 -1
-0.0581516660 -0.0505077760 -1 -1
-0.0584878290 -0.0525672160 -1 -1
-0.0587403990 -0.0540709820 -1 -1
-0.0589034780 -0.0548708220 -1 -1
-0.0589733480 -0.0548870390 -1 -1
-0.0589515200 -0.0541211120 -1 -1
-0.0588491840 -0.0526581460 -1 -1
-0.0586895780 -0.0506592240 -1 -1
-0.0585064260 -0.0483427820 -1 -1
-0.0583385090 -0.0459554200 -1 -1
-0.0582218470 -0.0437387160 -1 -1
-0.0581822450 -0.0419008340 -1 -1
-0.0582308080 -0.0405970090 -1 -1
-0.0583634030 -0.0399192080 -1 -1
-0.0585637070 -0.0398945450 -1 -1
-0.0588085060 -0.0404903200 -1 -1
-0.0590729940 -0.0416217500 -1 -1
-0.0593344560 -0.0431595430 -1 -1
-0.0595741050 -0.0449372230 -1 -1
-0.0597770440 -0.0467605460 -1 -1
-0.0599304800 -0.0484223440 -1 -1
-0.0600218810 -0.0497241450 -1 -1
-0.0600393840 -0.0505014410 -1 -1
-0.0599750180 -0.0506465510 -1 -1
-0.0598289860 -0.0501235680 -1 -1
-0.0596123270 -0.0489725660 -1 -1
-0.0593461130 -0.0473028080 -1 -1
-0.0590576240 -0.0452764860 -1 -1
-0.0587755390 -0.0430866540 -1 -1
-0.0585259350 -0.0409345970 -1 -1
-0.0583298060 -0.0390108760 -1 -1
-0.0582019810 -0.0374815100 -1 -1
-0.0581506990 -0.0364776460 -1 -1
-0.0581767300 -0.0360860770 -1 -1
-0.0582720930 -0.0363405760 -1 -1
-0.0584203040 -0.0372164140 -1 -1
-0.0585995640 -0.0386298980 -1 -1
-0.0587873760 -0.0404436340 -1 -1
-0.0589635030 -0.0424776600 -1 -1
-0.0591100290 -0.0445254020 -1 -1
-0.0592101150 -0.0463717660 -1 -1
-0.0592481580 -0.0478113400 -1 -1
-0.0592122840 -0.0486670950 -1 -1
-0.0590976110 -0.0488096950 -1 -1
-0.0589082100 -0.0481746650 -1 -1
-0.0586569430 -0.0467734110 -1 -1
-0.0583636080 -0.0446957560 -1 -1
-0.0580519060 -0.0421041970 -1 -1
-0.0577449720 -0.0392207360 -1 -1
-0.0574597610 -0.0363062060 -1 -1
-0.0572029460 -0.0336328910 -1 -1
-0.0569710830 -0.0314540160 -1 -1
-0.0567548750 -0.0299751820 -1 0
-0.0565447840 -0.0293322970 -1 0
-0.0563348420 -0.0295787480 -1 0
-0.0561230830 -0.0306823300 -1 -1
-0.0559098770 -0.0325315450 -1 -1
-0.0556968130 -0.0349503170 -1 -1
-0.0554867980 -0.0377186870 -1 -1
-0.0552838550 -0.0405957360 -1 -1
-0.0550912270 -0.0433416210 -1 -1
-0.0549084810 -0.0457372710 -1 -1
-0.0547302720 -0.0476005620 -1 -1
-0.0545485880 -0.0487979680 -1 -1
-0.0543575970 -0.0492524940 -1 -1
-0.0541586860 -0.0489490790 -1 -1
-0.0539633340 -0.0479366810 -1 -1
-0.0537921000 -0.0463258670 -1 -1
-0.0536699100 -0.0442822260 -1 -1
-0.0536199200 -0.0420154220 -1 -1
-0.0536585210 -0.0397620070 -1 -1
-0.0537926950 -0.0377618820 -1 -1
-0.0540193840 -0.0362321340 -1 -1
-0.0543261770 -0.0353429080 -1 -1
-0.0546926600 -0.0351980680 -1 -1
-0.0550917960 -0.0358227500 -1 -1
-0.0554913660 -0.0371604170 -1 -1
-0.0558564820 -0.0390803820 -1 -1
-0.0561538270 -0.0413934610 -1 -1
-0.0563570920 -0.0438720580 -1 -1
-0.0564521470 -0.0462718530 -1 -1
-0.0564402210 -0.0483532260 -1 -1
-0.0563380120 -0.0499017800 -1 -1
-0.0561744250 -0.0507483270 -1 -1
-0.0559843470 -0.0507875030 -1 -1
-0.0558012330 -0.0499916630 -1 -1
-0.0556514520 -0.0484160810 -1 -1
-0.0555521690 -0.0461936820 -1 -1
-0.0555126060 -0.0435210130 -1 -1
-0.0555372870 -0.0406389230 -1 -1
-0.0556291590 -0.0378103320 -1 -1
-0.0557910710 -0.0352958930 -1 -1
-0.0560255940 -0.0333290640 -1 -1
-0.0563333960 -0.0320928470 -1 -1
-0.0567099010 -0.0316994240 -1 -1
-0.0571416440 -0.0321744680 -1 -1
-0.0576051930 -0.0334506640 -1 -1
-0.0580696990 -0.0353743860 -1 -1
-0.0585011890 -0.0377246730 -1 -1
-0.0588667010 -0.0402401730 -1 -1
-0.0591381160 -0.0426491980 -1 -1
-0.0592961310 -0.0446990980 -1 -1
-0.0593335890 -0.0461822210 -1 -1
-0.0592566210 -0.0469554150 -1 -1
-0.0590828430 -0.0469502800 -1 -1
-0.0588372840 -0.0461748160 -1 -1
-0.0585475660 -0.0447096640 -1 -1
-0.0582399900 -0.0427005790 -1 -1
-0.0579376280 -0.0403457990 -1 -1
-0.0576602750 -0.0378769240 -1 -1
-0.0574249710 -0.0355344840 -1 -1
-0.0572453510 -0.0335413650 -1 -1
-0.0571290680 -0.0320776070 -1 -1
-0.0570745600 -0.0312600590 -1 -1
-0.0570692680 -0.0311303520 -1 -1
-0.0570907780 -0.0316539640 -1 -1
-0.0571112170 -0.0327308990 -1 -1
-0.0571033650 -0.0342146260 -1 -1
-0.0570454990 -0.0359330860 -1 -1
-0.0569230590 -0.0377066770 -1 -1
-0.0567283710 -0.0393623300 -1 -1
-0.0564613670 -0.0407452930 -1 -1
-0.0561322990 -0.0417289230 -1 -1
-0.0557640520 -0.0422216130 -1 -1
-0.0553911570 -0.0421713740 -1 -1
-0.0550554520 -0.0415698720 -1 -1
-0.0548005170 -0.0404558910 -1 -1
-0.0546662130 -0.0389161630 -1 -1
-0.0546831510 -0.0370825420 -1 -1
-0.0548671430 -0.0351258910 -1 -1
-0.0552152410 -0.0332453960 -1 -1
-0.0557059530 -0.0316502670 -1 -1
-0.0563046610 -0.0305340990 -1 -1
-0.0569718240 -0.0300481940 -1 -1
-0.0576695960 -0.0302807460 -1 -1
-0.0583638720 -0.0312444890 -1 -1
-0.0590224680 -0.0328732980 -1 -1
-0.0596133650 -0.0350285490 -1 -1
-0.0601061400 -0.0375147220 -1 -1
-0.0604757800 -0.0401013200 -1 -1
-0.0607061380 -0.0425475320 -1 -1
-0.0607917260 -0.0446266430 -1 -1
-0.0607385180 -0.0461473690 -1 -1
-0.0605642120 -0.0469702530 -1 -1
-0.0602970360 -0.0470186360 -1 -1
-0.0599724010 -0.0462842840 -1 -1
-0.0596283490 -0.0448277040 -1 -1
-0.0593010670 -0.0427727470 -1 -1
-0.0590204410 -0.0402944000 -1 -1
-0.0588055000 -0.0376001300 -1 -1
-0.0586612480 -0.0349080190 -1 -1
-0.0585787200 -0.0324260090 -1 -1
-0.0585383610 -0.0303356870 -1 -1
-0.0585152660 -0.0287809150 -1 0
-0.0584847770 -0.0278585670 -1 0
-0.0584270840 -0.0276104150 -1 0
-0.0583295230 -0.0280189090 -1 0
-0.0581860440 -0.0290083390 -1 0
-0.0579947020 -0.0304500580 -1 -1
-0.0577544550 -0.0321708490 -1 -1
-0.0574619720 -0.0339652710 -1 -1
-0.0571093470 -0.0356133740 -1 -1
-0.0566846600 -0.0369041890 -1 -1
-0.0561765690 -0.0376631660 -1 -1
-0.0555812200 -0.0377792060 -1 -1
-0.0549075580 -0.0372245990 -1 -1
-0.0541780990 -0.0360609870 -1 -1
-0.0534255780 -0.0344284930 -1 -1
-0.0526881660 -0.0325217380 -1 -1
-0.0520051430 -0.0305608030 -1 -1
-0.0514133240 -0.0287642690 -1 0
-0.0509439490 -0.0273279160 -1 0
-0.0506198510 -0.0264099380 -1 0
-0.0504532090 -0.0261212780 -1 0
-0.0504440540 -0.0265181040 -1 0
-0.0505792040 -0.0275951250 -1 0
-0.0508317560 -0.0292817880 -1 0
-0.0511626290 -0.0314445070 -1 -1
-0.0515256010 -0.0338969080 -1 -1
-0.0518747790 -0.0364178800 -1 -1
-0.0521711600 -0.0387746350 -1 -1
-0.0523862240 -0.0407470620 -1 -1
-0.0525034180 -0.0421502460 -1 -1
-0.0525186580 -0.0428526040 -1 -1
-0.0524393350 -0.0427885340 -1 -1
-0.0522813920 -0.0419656220 -1 -1
-0.0520656380 -0.0404653530 -1 -1
-0.0518144920 -0.0384357590 -1 -1
-0.0515494840 -0.0360764280 -1 -1
-0.0512896500 -0.0336180770 -1 -1
-0.0510510000 -0.0312992220 -1 -1
-0.0508466180 -0.0293420760 -1 0
-0.0506867350 -0.0279293620 -1 0
-0.0505785840 -0.0271837630 -1 0
-0.0505264420 -0.0271523800 -1 0
-0.0505319590 -0.0277993350 -1 0
-0.0505942250 -0.0290097410 -1 0
-0.0507092880 -0.0306065730 -1 -1
-0.0508694770 -0.0323780030 -1 -1
-0.0510628700 -0.0341079490 -1 -1
-0.0512733480 -0.0356012480 -1 -1
-0.0514820140 -0.0366992330 -1 -1
-0.0516702400 -0.0372875320 -1 -1
-0.0518230270 -0.0372994130 -1 -1
-0.0519311150 -0.0367162220 -1 -1
-0.0519917230 -0.0355663740 -1 -1
-0.0520085780 -0.0339247200 -1 -1
-0.0519915930 -0.0319117490 -1 -1
-0.0519561500 -0.0296899310 -1 0
-0.0519217520 -0.0274552550 -1 0
-0.0519103930 -0.0254227300 -1 0
-0.0519449620 -0.0238043620 -1 0
-0.0520469090 -0.0227808170 -1 0
-0.0522330290 -0.0224733180 -1 0
-0.0525134600 -0.0229234610 -1 0
-0.0528918790 -0.0240853040 -1 0
-0.0533656750 -0.0258312110 -1 0
-0.0539238750 -0.0279704340 -1 0
-0.0545437270 -0.0302757690 -1 -1
-0.0551889610 -0.0325116090 -1 -1
-0.0558120340 -0.0344582830 -1 -1
-0.0563604270 -0.0359303250 -1 -1
-0.0567850520 -0.0367887280 -1 -1
-0.0570485020 -0.0369490440 -1 -1
-0.0571316070 -0.0363871320 -1 -1
-0.0570371840 -0.0351427000 -1 -1
-0.0567896060 -0.0333196920 -1 -1
-0.0564289540 -0.0310819370 -1 -1
-0.0560006430 -0.0286421280 -1 0
-0.0555444960 -0.0262430370 -1 0
-0.0550878200 -0.0241323300 -1 0
-0.0546445030 -0.0225351250 -1 0
-0.0542191190 -0.0216292780 -1 0
-0.0538133160 -0.0215266410 -1 0
-0.0534310970 -0.0222618850 -1 0
-0.0530801830 -0.0237904080 -1 0
-0.0527691070 -0.0259958340 -1 0
-0.0525028210 -0.0287046640 -1 0
-0.0522806030 -0.0317033960 -1 -1
-0.0520975090 -0.0347545160 -1 -1
-0.0519469730 -0.0376110450 -1 -1
-0.0518219250 -0.0400320740 -1 -1
-0.0517149130 -0.0418014330 -1 -1
-0.0516191750 -0.0427483660 -1 -1
-0.0515307530 -0.0427660260 -1 -1
-0.0514501210 -0.0418244790 -1 -1
-0.0513826220 -0.0399783490 -1 -1
-0.0513381640 -0.0373698080 -1 -1
-0.0513302650 -0.0342243640 -1 -1
-0.0513736560 -0.0308348720 -1 -1
-0.0514801730 -0.0275317830 -1 0
-0.0516543580 -0.0246427240 -1 0
-0.0518908910 -0.0224488320 -1 0
-0.0521744970 -0.0211466740 -1 0
-0.0524816310 -0.0208224930 -1 0
-0.0527831930 -0.0214426860 -1 0
-0.0530481660 -0.0228627720 -1 0
-0.0532479590 -0.0248533010 -1 0
-0.0533604750 -0.0271355120 -1 0
-0.0533724710 -0.0294175570 -1 0
-0.0532795260 -0.0314260050 -1 -1
-0.0530848270 -0.0329318540 -1 -1
-0.0527988790 -0.0337708670 -1 -1
-0.0524406500 -0.0338563030 -1 -1
-0.0520388130 -0.0331823300 -1 -1
-0.0516314490 -0.0318193440 -1 -1
-0.0512632590 -0.0299041440 -1 0
-0.0509801920 -0.0276261890 -1 0
-0.0508229050 -0.0252097230 -1 0
-0.0508212980 -0.0228924640 -1 0
-0.0509912430 -0.0209025550 -1 0
-0.0513332500 -0.0194352650 -1 0
-0.0518328480 -0.0186315600 -1 0
-0.0524624930 -0.0185627240 -1 0
-0.0531841710 -0.0192255950 -1 0
-0.0539523910 -0.0205499880 -1 0
-0.0547183260 -0.0224152460 -1 0
-0.0554346730 -0.0246688430 -1 0
-0.0560595490 -0.0271400910 -1 0
-0.0565587780 -0.0296476420 -1 0
-0.0569069320 -0.0320052060 -1 -1
-0.0570873460 -0.0340301180 -1 -1
-0.0570916440 -0.0355564300 -1 -1
-0.0569194130 -0.0364524380 -1 -1
-0.0565779600 -0.0366398680 -1 -1
-0.0560818250 -0.0361083570 -1 -1
-0.0554523320 -0.0349201150 -1 -1
-0.0547175060 -0.0332046170 -1 -1
-0.0539118690 -0.0311453500 -1 -1
-0.0530753240 -0.0289600190 -1 0
-0.0522503920 -0.0268759050 -1 0
-0.0514777540 -0.0251038170 -1 0
-0.0507914350 -0.0238150850 -1 0
-0.0502155940 -0.0231250340 -1 0
-0.0497639460 -0.0230836990 -1 0
-0.0494413510 -0.0236721990 -1 0
-0.0492458760 -0.0248042370 -1 0
-0.0491695370 -0.0263347980 -1 0
-0.0491975850 -0.0280768080 -1 0
-0.0493078620 -0.0298228160 -1 0
-0.0494715340 -0.0313677300 -1 -1
-0.0496554870 -0.0325296990 -1 -1
-0.0498262750 -0.0331669910 -1 -1
-0.0499554440 -0.0331896440 -1 -1
-0.0500254010 -0.0325662270 -1 -1
-0.0500344030 -0.0313269390 -1 -1
-0.0499986290 -0.0295632260 -1 0
-0.0499490250 -0.0274219560 -1 0
-0.0499227460 -0.0250928860 -1 0
-0.0499528190 -0.0227911300 -1 0
-0.0500606710 -0.0207365110 -1 0
-0.0502534640 -0.0191302190 -1 0
-0.0505250000 -0.0181310800 -1 0
-0.0508582680 -0.0178367290 -1 0
-0.0512285700 -0.0182743160 -1 0
-0.0516068330 -0.0194011110 -1 0
-0.0519630280 -0.0211121080 -1 0
-0.0522695310 -0.0232519060 -1 0
-0.0525035880 -0.0256298750 -1 0
-0.0526478370 -0.0280382730 -1 0
-0.0526892100 -0.0302725230 -1 -1
-0.0526178260 -0.0321519790 -1 -1
-0.0524270050 -0.0335382090 -1 -1
-0.0521146270 -0.0343473010 -1 -1
-0.0516856970 -0.0345550480 -1 -1
-0.0511550640 -0.0341958990 -1 -1
-0.0505482900 -0.0333555740 -1 -1
-0.0498998460 -0.0321573150 -1 -1
-0.0492497050 -0.0307449430 -1 -1
-0.0486393820 -0.0292668600 -1 0
-0.0481074220 -0.0278624330 -1 0
-0.0476844180 -0.0266504640 -1 0
-0.0473887150 -0.0257201030 -1 0
-0.0472242410 -0.0251250610 -1 0
-0.0471810480 -0.0248810040 -1 0
-0.0472381870 -0.0249659740 -1 0
-0.0473678810 -0.0253247790 -1 0
-0.0475399560 -0.0258772730 -1 0
-0.0477260160 -0.0265278430 -1 0
-0.0479026550 -0.0271734540 -1 0
-0.0480526020 -0.0277098910 -1 0
-0.0481634470 -0.0280376050 -1 0
-0.0482253640 -0.0280688160 -1 0
-0.0482304760 -0.0277361740 -1 0
-0.0481753300 -0.0270019370 -1 0
-0.0480647910 -0.0258665020 -1 0
-0.0479143300 -0.0243751400 -1 0
-0.0477497980 -0.0226210030 -1 0
-0.0476054640 -0.0207415080 -1 0
-0.0475201960 -0.0189057880 -1 0
-0.0475314290 -0.0172942800 -1 0
-0.0476680090 -0.0160748520 -1 0
-0.0479439690 -0.0153800400 -1 0
-0.0483548410 -0.0152893800 -1 0
-0.0488776270 -0.0158209030 -1 0
-0.0494745290 -0.0169332140 -1 0
-0.0500992070 -0.0185349400 -1 0
-0.0507038270 -0.0204965970 -1 0
-0.0512451480 -0.0226620740 -1 0
-0.0516882000 -0.0248592900 -1 0
-0.0520073620 -0.0269104140 -1 0
-0.0521860450 -0.0286430700 -1 0
-0.0522167260 -0.0299044170 -1 0
-0.0521020640 -0.0305775590 -1 -1
-0.0518562010 -0.0305969830 -1 -1
-0.0515043670 -0.0299596380 -1 0
-0.0510796350 -0.0287292650 -1 0
-0.0506177500 -0.0270324970 -1 0
-0.0501522370 -0.0250470890 -1 0
-0.0497114240 -0.0229837570 -1 0
-0.0493173670 -0.0210631740 -1 0
-0.0489856640 -0.0194907590 -1 0
-0.0487249370 -0.0184332330 -1 0
-0.0485359050 -0.0180008280 -1 0
-0.0484116420 -0.0182380410 -1 0
-0.0483403790 -0.0191237600 -1 0
-0.0483098300 -0.0205781000 -1 0
-0.0483103840 -0.0224720390 -1 0
-0.0483354430 -0.0246378260 -1 0
-0.0483794200 -0.0268802910 -1 0
-0.0484355940 -0.0289903530 -1 0
-0.0484959640 -0.0307622640 -1 -1
-0.0485530610 -0.0320144770 -1 -1
-0.0486017790 -0.0326114070 -1 -1
-0.0486401990 -0.0324819620 -1 -1
-0.0486701940 -0.0316304160 -1 -1
-0.0486984780 -0.0301363120 -1 -1
-0.0487371980 -0.0281440050 -1 0
-0.0488025350 -0.0258459420 -1 0
-0.0489108870 -0.0234631730 -1 0
-0.0490739320 -0.0212250500 -1 0
-0.0492945280 -0.0193491450 -1 0
-0.0495647680 -0.0180206930 -1 0
-0.0498665650 -0.0173714740 -1 0
-0.0501746490 -0.0174619060 -1 0
-0.0504612870 -0.0182719430 -1 0
-0.0507010600 -0.0197034940 -1 0
-0.0508739760 -0.0215936790 -1 0
-0.0509664810 -0.0237369950 -1 0
-0.0509711850 -0.0259130030 -1 0
-0.0508861980 -0.0279140440 -1 0
-0.0507147120 -0.0295676430 -1 0
-0.0504652980 -0.0307510490 -1 -1
-0.0501526940 -0.0313986800 -1 -1
-0.0497976720 -0.0315050060 -1 -1
-0.0494247710 -0.0311235520 -1 -1
-0.0490586210 -0.0303596030 -1 -1
-0.0487206390 -0.0293547090 -1 0
-0.0484269660 -0.0282664990 -1 0
-0.0481876450 -0.0272514940 -1 0
-0.0480074680 -0.0264547030 -1 0
-0.0478886580 -0.0260021410 -1 0
-0.0478338050 -0.0259912010 -1 0
-0.0478469340 -0.0264783950 -1 0
-0.0479318640 -0.0274669430 -1 0
-0.0480883860 -0.0288978470 -1 0
-0.0483079790 -0.0306496720 -1 -1
-0.0485717100 -0.0325505780 -1 -1
-0.0488519290 -0.0344010300 -1 -1
-0.0491167710 -0.0360009300 -1 -1
-0.0493352800 -0.0371733890 -1 -1
-0.0494819940 -0.0377803710 -1 -1
-0.0495404370 -0.0377309310 -1 -1
-0.0495049620 -0.0369853030 -1 -1
-0.0493807630 -0.0355571040 -1 -1
-0.0491821290 -0.0335145120 -1 -1
-0.0489293590 -0.0309799690 -1 -1
-0.0486455630 -0.0281258070 -1 0
-0.0483544460 -0.0251625160 -1 0
-0.0480792360 -0.0223193200 -1 0
-0.0478423360 -0.0198203290 -1 0
-0.0476650660 -0.0178606060 -1 0
-0.0475664810 -0.0165858200 -1 0
-0.0475605420 -0.0160778150 -1 0
-0.0476525330 -0.0163472590 -1 0
-0.0478365520 -0.0173334250 -1 0
-0.0480950000 -0.0189106870 -1 0
-0.0484000050 -0.0209015130 -1 0
-0.0487168330 -0.0230947330 -1 0
-0.0490090450 -0.0252660490 -1 0
-0.0492443460 -0.0271977770 -1 0
-0.0493997990 -0.0286965840 -1 0
-0.0494653890 -0.0296091710 -1 0
-0.0494451710 -0.0298354470 -1 0
-0.0493556640 -0.0293378350 -1 0
-0.0492220450 -0.0281457200 -1 0
-0.0490735200 -0.0263550120 -1 0
-0.0489395880 -0.0241229250 -1 0
-0.0488479290 -0.0216575060 -1 0
-0.0488230450 -0.0192014210 -1 0
-0.0488844910 -0.0170103770 -1 0
-0.0490444650 -0.0153271640 -1 0
-0.0493054790 -0.0143531510 -1 0
-0.0496591520 -0.0142207610 -1 0
-0.0500866430 -0.0149719380 -1 0
-0.0505603460 -0.0165476000 -1 0
-0.0510461010 -0.0187914700 -1 0
-0.0515056530 -0.0214680680 -1 0
-0.0518996340 -0.0242908430 -1 0
-0.0521911490 -0.0269558060 -1 0
-0.0523495400 -0.0291774110 -1 0
-0.0523535290 -0.0307226690 -1 -1
-0.0521927130 -0.0314371260 -1 -1
-0.0518673370 -0.0312575180 -1 -1
-0.0513875100 -0.0302112220 -1 -1
-0.0507730390 -0.0284065070 -1 0
-0.0500537790 -0.0260173240 -1 0
-0.0492694900 -0.0232643750 -1 0
-0.0484678110 -0.0203932070 -1 0
-0.0476992300 -0.0176511840 -1 0
-0.0470096900 -0.0152662990 -1 0
-0.0464338520 -0.0134297670 -1 0
-0.0459920570 -0.0122824980 -1 0
-0.0456915810 -0.0119055850 -1 0
-0.0455304580 -0.0123156660 -1 0
-0.0455014670 -0.0134651980 -1 0
-0.0455946060 -0.0152469650 -1 0
-0.0457974510 -0.0175033740 -1 0
-0.0460936210 -0.0200418500 -1 0
-0.0464609350 -0.0226549320 -1 0
