0.0402089950 0.2465714490 1 1
0.0422759030 0.2462765420 1 1
0.0441555710 0.2459437450 1 1
0.0457340680 0.2455509050 1 1
0.0469128840 0.2450846510 1 1
0.0476039990 0.2445386890 1 1
0.0477361270 0.2439126310 1 1
0.0472726090 0.2432127530 1 1
0.0462309040 0.2424540280 1 1
0.0446923330 0.2416624120 1 1
0.0427972180 0.2408765300 1 1
0.0407271970 0.2401467410 1 1
0.0386799750 0.2395296010 1 1
0.0368424590 0.2390787610 1 1
0.0353668180 0.2388362000 1 1
0.0343526340 0.2388270770 1 1
0.0338369690 0.2390577370 1 1
0.0337921340 0.2395135140 1 1
0.0341309830 0.2401550700 1 1
0.0347207610 0.2409168760 1 1
0.0354042680 0.2417125480 1 1
0.0360231950 0.2424472250 1 1
0.0364378310 0.2430324300 1 1
0.0365394910 0.2433984740 1 1
0.0362554760 0.2435017000 1 1
0.0355502570 0.2433264600 1 1
0.0344276380 0.2428833290 1 1
0.0329348300 0.2422051030 1 1
0.0311646890 0.2413414500 1 1
0.0292519080 0.2403529870 0 1
0.0273610510 0.2393055650 0 1
0.0256666790 0.2382650070 0 1
0.0243299010 0.2372926340 0 1
0.0234781220 0.2364419320 0 1
0.0231920000 0.2357561670 0 1
0.0234995690 0.2352662970 0 1
0.0243750950 0.2349891200 0 1
0.0257401560 0.2349271110 0 1
0.0274674700 0.2350715390 0 1
0.0293902110 0.2354070090 0 1
0.0313173860 0.2359131540 1 1
0.0330531480 0.2365621450 1 1
0.0344175180 0.2373151480 1 1
0.0352655290 0.2381220170 1 1
0.0355014450 0.2389261230 1 1
0.0350866710 0.2396725540 1 1
0.0340423770 0.2403159190 1 1
0.0324475810 0.2408251690 1 1
0.0304313090 0.2411855510 1 1
0.0281583530 0.2413990960 0 1
0.0258112580 0.2414844620 0 1
0.0235719780 0.2414760830 0 1
0.0216057500 0.2414218810 0 1
0.0200493730 0.2413783010 0 1
0.0190046180 0.2414024610 0 1
0.0185350330 0.2415430810 0 1
0.0186631890 0.2418328090 0 1
0.0193666460 0.2422841930 0 1
0.0205741160 0.2428901640 0 1
0.0221650650 0.2436275160 0 1
0.0239748620 0.2444607590 0 1
0.0258063790 0.2453452820 0 1
0.0274488660 0.2462307760 0 1
0.0287037370 0.2470663240 0 1
0.0294121930 0.2478075480 0 1
0.0294760660 0.2484244060 0 1
0.0288671790 0.2489070450 0 1
0.0276271580 0.2492675850 0 1
0.0258602520 0.2495373380 0 1
0.0237198650 0.2497606890 0 1
0.0213908150 0.2499880350 0 1
0.0190701540 0.2502698410 0 1
0.0169475820 0.2506519660 0 1
0.0151859090 0.2511709090 0 1
0.0139042810 0.2518480440 0 1
0.0131684070 0.2526838470 0 1
0.0129892450 0.2536546440 0 1
0.0133269890 0.2547145810 0 1
0.0140965400 0.2558040890 0 1
0.0151735390 0.2568631080 0 1
0.0164019340 0.2578443790 0 1
0.0176047750 0.2587219680 0 1
0.0185998430 0.2594931390 0 1
0.0192193800 0.2601747320 0 1
0.0193305260 0.2607959780 0 1
0.0188531040 0.2613894910 0 1
0.0177721910 0.2619826830 0 1
0.0161432720 0.2625920120 0 1
0.0140888800 0.2632217440 0 1
0.0117862400 0.2638671450 0 1
0.0094456500 0.2645201920 0 1
0.0072818890 0.2651755850 0 1
0.0054852310 0.2658358440 0 1
0.0041998510 0.2665144450 0 1
0.0035129000 0.2672355080 0 1
0.0034519440 0.2680293170 0 1
0.0039874580 0.2689246800 0 1
0.0050385570 0.2699403550 0 1
0.0064817650 0.2710781340 0 1
0.0081641410 0.2723200240 0 1
0.0099206370 0.2736306270 0 1
0.0115920090 0.2749635280 0 1
0.0130387980 0.2762691070 0 1
0.0141491080 0.2775015450 0 1
0.0148409330 0.2786240180 0 1
0.0150614490 0.2796119000 0 1
0.0147853270 0.2804542520 0 1
0.0140140180 0.2811543460 0 1
0.0127784970 0.2817296770 0 1
0.0111451480 0.2822108360 0 1
0.0092188640 0.2826383840 0 1
0.0071373220 0.2830581160 0 1
0.0050572200 0.2835166030 0 1
0.0031369310 0.2840582340 0 1
0.0015184430 0.2847224950 0 1
0.0003112080 0.2855392490 0 1
-0.0004191840 0.2865216380 0 1
-0.0006564320 0.2876591940 0 1
-0.0004331610 0.2889152670 0 1
0.0001748050 0.2902313520 0 1
0.0010572830 0.2915372030 0 1
0.0020784000 0.2927631230 0 1
0.0030850820 0.2938509290 0 1
0.0039188970 0.2947614730 0 1
0.0044327770 0.2954775260 0 1
0.0045096010 0.2960015760 0 1
0.0040777690 0.2963495020 0 1
0.0031200440 0.2965429410 0 1
0.0016748830 0.2966038650 0 1
-0.0001682270 0.2965537700 0 1
-0.0022776400 0.2964170000 0 1
-0.0044919930 0.2962249710 0 1
-0.0066360880 0.2960178040 0 1
-0.0085387740 0.2958420970 0 1
-0.0100497860 0.2957456490 0 1
-0.0110529560 0.2957705040 0 1
-0.0114754820 0.2959457810 0 1
-0.0112941510 0.2962822140 0 1
-0.0105385950 0.2967705190 0 1
-0.0092910880 0.2973841180 0 1
-0.0076830780 0.2980845000 0 1
-0.0058878280 0.2988269880 0 1
-0.0041073690 0.2995659510 0 1
-0.0025531470 0.3002592160 0 1
-0.0014225450 0.3008713690 0 1
-0.0008760120 0.3013758870 0 1
-0.0010201290 0.3017568300 0 1
-0.0018979070 0.3020109750 0 1
-0.0034826260 0.3021511070 0 1
-0.0056733450 0.3022104040 0 1
-0.0082963590 0.3022449850 0 1
-0.0111187260 0.3023293860 0 1
-0.0138760560 0.3025425700 0 1
-0.0163101880 0.3029483460 0 1
-0.0182070250 0.3035782470 0 1
-0.0194244010 0.3044247510 0 1
-0.0199046200 0.3054472330 0 1
-0.0196724720 0.3065855330 0 1
-0.0188238550 0.3077738280 0 1
-0.0175109160 0.3089510120 0 1
-0.0159263720 0.3100664970 0 1
-0.0142850760 0.3110812330 0 1
-0.0127998200 0.3119663420 0 1
-0.0116533030 0.3127031540 0 1
-0.0109747080 0.3132854340 0 1
-0.0108294280 0.3137212830 0 1
-0.0112225980 0.3140325710 0 1
-0.0121087510 0.3142516140 0 1
-0.0134001830 0.3144161980 0 1
-0.0149737810 0.3145648670 0 1
-0.0166799380 0.3147338390 0 1
-0.0183548910 0.3149555980 0 1
-0.0198355200 0.3152588930 0 1
-0.0209761050 0.3156702580 0 1
-0.0216664420 0.3162163160 0 1
-0.0218484020 0.3169243180 0 1
-0.0215259590 0.3178185270 0 1
-0.0207656210 0.3189129920 0 1
-0.0196878900 0.3202040450 0 1
-0.0184513840 0.3216660770 0 1
-0.0172310910 0.3232525050 0 1
-0.0161941510 0.3249015370 0 1
-0.0154786600 0.3265445800 0 1
-0.0151797750 0.3281148560 0 1
-0.0153443990 0.3295544520 0 1
-0.0159738300 0.3308191430 0 1
-0.0170319570 0.3318813660 0 1
-0.0184542960 0.3327317930 0 1
-0.0201535240 0.3333796770 0 1
-0.0220215920 0.3338522850 0 1
-0.0239324620 0.3341936320 0 1
-0.0257491680 0.3344616100 0 1
-0.0273356070 0.3347219660 0 1
-0.0285712750 0.3350390830 0 1
-0.0293664770 0.3354658510 0 1
-0.0296744310 0.3360358030 0 1
-0.0294966150 0.3367601270 0 1
-0.0288811820 0.3376300450 0 1
-0.0279180750 0.3386223640 0 1
-0.0267336890 0.3397052420 0 1
-0.0254832640 0.3408432640 0 1
-0.0243372520 0.3420023830 0 1
-0.0234615250 0.3431538430 0 1
-0.0229961100 0.3442753500 0 1
-0.0230389550 0.3453494450 0 1
-0.0236385080 0.3463606310 0 1
-0.0247930940 0.3472926750 0 1
-0.0264523230 0.3481271800 0 1
-0.0285188080 0.3488448410 0 1
-0.0308521110 0.3494305250 -1 1
-0.0332773750 0.3498808990 -1 1
-0.0355995170 0.3502104530 -1 1
-0.0376223570 0.3504522070 -1 1
-0.0391715540 0.3506530110 -1 1
-0.0401190270 0.3508661480 -1 1
-0.0404035160 0.3511440640 -1 1
-0.0400397710 0.3515326250 -1 1
-0.0391120710 0.3520660700 -1 1
-0.0377555490 0.3527617200 -1 1
-0.0361341260 0.3536158670 -1 1
-0.0344223390 0.3546031210 -1 1
-0.0327924320 0.3556791140 -1 1
-0.0314033290 0.3567851040 -1 1
-0.0303880780 0.3578547140 -1 1
-0.0298403640 0.3588234700 0 1
-0.0298051330 0.3596393270 0 1
-0.0302784560 0.3602711370 -1 1
-0.0312160960 0.3607128580 -1 1
-0.0325451390 0.3609828240 -1 1
-0.0341743340 0.3611192120 -1 1
-0.0360017490 0.3611741060 -1 1
-0.0379195930 0.3612077880 -1 1
-0.0398184570 0.3612836760 -1 1
-0.0415948550 0.3614638500 -1 1
-0.0431611940 0.3618046000 -1 1
-0.0444526530 0.3623514180 -1 1
-0.0454297860 0.3631334850 -1 1
-0.0460810080 0.3641576910 -1 1
-0.0464254910 0.3654024610 -1 1
-0.0465125490 0.3668136970 -1 1
-0.0464176530 0.3683069710 -1 1
-0.0462380220 0.3697785950 -1 1
-0.0460856350 0.3711233610 -1 1
-0.0460736270 0.3722527120 -1 1
-0.0462985070 0.3731073680 -1 1
-0.0468249960 0.3736620920 -1 1
-0.0476776600 0.3739233110 -1 1
-0.0488401020 0.3739212120 -1 1
-0.0502603880 0.3736989840 -1 1
-0.0518596140 0.3733040170 -1 1
-0.0535404570 0.3727851290 -1 1
-0.0551945220 0.3721957410 -1 1
-0.0567092460 0.3715996360 -1 1
-0.0579756700 0.3710751850 -1 1
-0.0588980990 0.3707142750 -1 1
-0.0594062170 0.3706137650 -1 1
-0.0594691120 0.3708607730 -1 1
-0.0591081270 0.3715162060 -1 1
-0.0584023910 0.3726016180 -1 1
-0.0574807310 0.3740932770 -1 1
-0.0564993570 0.3759250820 -1 1
-0.0556128750 0.3779987440 -1 1
-0.0549496190 0.3801976490 -1 1
-0.0545978880 0.3824018440 -1 1
-0.0546027180 0.3845023780 -1 1
-0.0549696770 0.3864124320 -1 1
-0.0556720490 0.3880728950 -1 1
-0.0566578260 0.3894524190 -1 1
-0.0578538940 0.3905445420 -1 1
-0.0591683620 0.3913644840 -1 1
-0.0604956090 0.3919459590 -1 1
-0.0617265820 0.3923372160 -1 1
-0.0627607000 0.3925963500 -1 1
-0.0635143120 0.3927859090 -1 1
-0.0639257160 0.3929662250 -1 1
-0.0639601060 0.3931879500 -1 1
-0.0636152020 0.3934858490 -1 1
-0.0629244730 0.3938755620 -1 1
-0.0619550080 0.3943530000 -1 1
-0.0607997420 0.3948953990 -1 1
-0.0595649150 0.3954647590 -1 1
-0.0583545540 0.3960157780 -1 1
-0.0572568860 0.3965085670 -1 1
-0.0563385280 0.3969218680 -1 1
-0.0556468410 0.3972594860 -1 1
-0.0552147300 0.3975452700 -1 1
-0.0550633680 0.3978094100 -1 1
-0.0552033340 0.3980743950 -1 1
-0.0556352680 0.3983480060 -1 1
-0.0563487410 0.3986264320 -1 1
-0.0573179380 0.3989057460 -1 1
-0.0584950310 0.3991945800 -1 1
-0.0598049230 0.3995193420 -1 1
-0.0611464780 0.3999188040 -1 1
-0.0624028850 0.4004311280 -1 1
-0.0634588850 0.4010785600 -1 1
-0.0642198620 0.4018553060 -1 1
-0.0646287250 0.4027243260 -1 1
-0.0646774650 0.4036268080 -1 1
-0.0644105120 0.4045021350 -1 1
-0.0639186400 0.4053087300 -1 1
-0.0633252200 0.4060343500 -1 1
-0.0627681110 0.4066913220 -1 1
-0.0623800610 0.4073023070 -1 1
-0.0622706390 0.4078872320 -1 1
-0.0625123770 0.4084591320 -1 1
-0.0631318160 0.4090288430 -1 1
-0.0641059120 0.4096118440 -1 1
-0.0653655320 0.4102300820 -1 1
-0.0668070290 0.4109079140 -1 1
-0.0683097830 0.4116669080 -1 1
-0.0697547890 0.4125229860 -1 1
-0.0710394960 0.4134854960 -1 1
-0.0720871810 0.4145576950 -1 1
-0.0728519240 0.4157394890 -1 1
-0.0733206250 0.4170317620 -1 1
-0.0735121210 0.4184387940 -1 1
-0.0734726790 0.4199654620 -1 1
-0.0732683340 0.4216091150 -1 1
-0.0729762430 0.4233499580 -1 1
-0.0726775490 0.4251460400 -1 1
-0.0724532530 0.4269370920 -1 1
-0.0723829940 0.4286544060 -1 1
-0.0725445520 0.4302280200 -1 1
-0.0730095900 0.4315859970 -1 1
-0.0738323780 0.4326505820 -1 1
-0.0750347360 0.4333406470 -1 1
-0.0765943080 0.4335852230 -1 1
-0.0784401440 0.4333444110 -1 1
-0.0804558290 0.4326277580 -1 1
-0.0824908770 0.4315014520 -1 1
-0.0843806950 0.4300832120 -1 1
-0.0859705830 0.4285289810 -1 1
-0.0871365710 0.4270145000 -1 1
-0.0878003610 0.4257131040 -1 1
-0.0879403830 0.4247728660 -1 1
-0.0875993950 0.4242985190 -1 1
-0.0868850870 0.4243424380 -1 1
-0.0859598960 0.4249047060 -1 1
-0.0850199480 0.4259387480 -1 1
-0.0842671220 0.4273596960 -1 1
-0.0838801740 0.4290552550 -1 1
-0.0839907060 0.4308991990 -1 1
-0.0846684110 0.4327664130 -1 1
-0.0859175290 0.4345473390 -1 1
-0.0876843190 0.4361583550 -1 1
-0.0898735200 0.4375448500 -1 1
-0.0923679730 0.4386772730 -1 1
-0.0950434800 0.4395445760 -1 1
-0.0977754390 0.4401505140 -1 1
-0.1004395880 0.4405152830 -1 1
-0.1029107250 0.4406789640 -1 1
-0.1050622770 0.4406996450 -1 1
-0.1067686470 0.4406427200 -1 1
-0.1079117630 0.4405654690 -1 1
-0.1083919210 0.4405041440 -1 1
-0.1081409420 0.4404684370 -1 1
-0.1071346740 0.4404445790 -1 1
-0.1054026880 0.4404053310 -1 1
-0.1030349080 0.4403235430 -1 1
-0.1001847430 0.4401853100 -1 1
-0.0970649420 0.4399981320 -1 1
-0.0939310560 0.4397901330 -1 1
-0.0910514770 0.4396007860 -1 1
-0.0886699640 0.4394687410 -1 1
-0.0869718120 0.4394228690 -1 1
-0.0860642680 0.4394787700 -1 1
-0.0859745730 0.4396393490 -1 1
-0.0866598770 0.4398965550 -1 1
-0.0880195750 0.4402310570 -1 1
-0.0899067170 0.4406083790 -1 1
-0.0921434210 0.4409754560 -1 1
-0.0945436450 0.4412671380 -1 1
-0.0969374050 0.4414296890 -1 1
-0.0991880140 0.4414540640 -1 1
-0.1012004460 0.4413980320 -1 1
-0.1029230770 0.4413799480 -1 1
-0.1043439400 0.4415457090 -1 1
-0.1054824110 0.4420256580 -1 1
-0.1063786570 0.4428989760 -1 1
-0.1070832410 0.4441749230 -1 1
-0.1076484040 0.4457931260 -1 1
-0.1081218280 0.4476413930 -1 1
-0.1085427430 0.4495855230 -1 1
-0.1089393160 0.4515009900 -1 1
-0.1093257480 0.4532950870 -1 1
-0.1096979330 0.4549130420 -1 1
-0.1100286050 0.4563311730 -1 1
-0.1102661550 0.4575464960 -1 1
-0.1103423670 0.4585701870 -1 1
-0.1101900340 0.4594253160 -1 1
-0.1097635020 0.4601442180 -1 1
-0.1090509190 0.4607619870 -1 1
-0.1080720250 0.4613079940 -1 1
-0.1068668160 0.4618001950 -1 1
-0.1054873360 0.4622442480 -1 1
-0.1039996000 0.4626349470 -1 1
-0.1024910910 0.4629561370 -1 1
-0.1010740690 0.4631791300 -1 1
-0.0998791400 0.4632651180 -1 1
-0.0990403040 0.4631768410 -1 1
-0.0986763870 0.4628970650 -1 1
-0.0988731090 0.4624438150 -1 1
-0.0996674290 0.4618728900 -1 1
-0.1010357870 0.4612660520 -1 1
-0.1028918860 0.4607111510 -1 1
-0.1051005420 0.4602826380 -1 1
-0.1075061930 0.4600284010 -1 1
-0.1099642140 0.4599655580 -1 1
-0.1123614580 0.4600855740 -1 1
-0.1146203450 0.4603667190 -1 1
-0.1166893510 0.4607891010 -1 1
-0.1185273760 0.4613462340 -1 1
-0.1200909240 0.4620483800 -1 1
-0.1213300340 0.4629165820 -1 1
-0.1221926490 0.4639705180 -1 1
-0.1226327690 0.4652154840 -1 1
-0.1226172680 0.4666333320 -1 1
-0.1221292780 0.4681796390 -1 1
-0.1211713210 0.4697862120 -1 1
-0.1197734040 0.4713666750 -1 1
-0.1180067110 0.4728246070 -1 1
-0.1159955330 0.4740656270 -1 1
-0.1139160530 0.4750137700 -1 1
-0.1119759390 0.4756282460 -1 1
-0.1103810210 0.4759135040 -1 1
-0.1093037090 0.4759175350 -1 1
-0.1088647470 0.4757189320 -1 1
-0.1091296710 0.4754077960 -1 1
-0.1101126870 0.4750677780 -1 1
-0.1117792030 0.4747658710 -1 1
-0.1140440090 0.4745520310 -1 1
-0.1167690260 0.4744648400 -1 1
-0.1197664960 0.4745360670 -1 1
-0.1228112650 0.4747887140 -1 1
-0.1256622160 0.4752292740 -1 1
-0.1280898120 0.4758397480 -1 1
-0.1299051750 0.4765747360 -1 1
-0.1309849580 0.4773664920 -1 1
-0.1312865310 0.4781378630 -1 1
-0.1308525950 0.4788189990 -1 1
-0.1298069390 0.4793610470 -1 1
-0.1283398680 0.4797417900 -1 1
-0.1266821130 0.4799629550 -1 1
-0.1250732870 0.4800426740 -1 1
-0.1237338950 0.4800075040 -1 1
-0.1228441490 0.4798872220 -1 1
-0.1225280940 0.4797141670 -1 1
-0.1228426330 0.4795272920 -1 1
-0.1237728840 0.4793781870 -1 1
-0.1252349160 0.4793331790 -1 1
-0.1270847680 0.4794658540 -1 1
-0.1291318070 0.4798395620 -1 1
-0.1311567680 0.4804875890 -1 1
-0.1329357000 0.4814026160 -1 1
-0.1342681210 0.4825414270 -1 1
-0.1350052890 0.4838398390 -1 1
-0.1350742100 0.4852271580 -1 1
-0.1344918790 0.4866331850 -1 1
-0.1333638030 0.4879881610 -1 1
-0.1318647560 0.4892203740 -1 1
-0.1302065850 0.4902571940 -1 1
-0.1286028210 0.4910332970 -1 1
-0.1272394250 0.4915048780 -1 1
-0.1262556530 0.4916629310 -1 1
-0.1257329110 0.4915369460 -1 1
-0.1256878300 0.4911854100 -1 1
-0.1260692970 0.4906786150 -1 1
-0.1267641870 0.4900838810 -1 1
-0.1276184160 0.4894594510 -1 1
-0.1284734920 0.4888567390 -1 1
-0.1292056370 0.4883261500 -1 1
-0.1297490560 0.4879206230 -1 1
-0.1300951410 0.4876938020 -1 1
-0.1302745960 0.4876937380 -1 1
-0.1303364120 0.4879547270 -1 1
-0.1303341550 0.4884899050 -1 1
-0.1303221080 0.4892869960 -1 1
-0.1303580260 0.4903086470 -1 1
-0.1305078230 0.4914976300 -1 1
-0.1308484690 0.4927861820 -1 1
-0.1314661600 0.4941069690 -1 1
-0.1324472550 0.4954016790 -1 1
-0.1338619130 0.4966239540 -1 1
-0.1357437900 0.4977353670 -1 1
-0.1380713370 0.4986963600 -1 1
-0.1407565220 0.4994595990 -1 1
-0.1436459140 0.4999760560 -1 1
-0.1465370540 0.5002162540 -1 1
-0.1492078300 0.5001954680 -1 1
-0.1514498140 0.4999850440 -1 1
-0.1530965320 0.4996989730 -1 1
-0.1540429370 0.4994601540 -1 1
-0.1542538150 0.4993631640 -1 1
-0.1537599070 0.4994514470 -1 1
-0.1526458230 0.4997171420 -1 1
-0.1510373990 0.5001188320 -1 1
-0.1490937760 0.5006052360 -1 1
-0.1470027060 0.5011341020 -1 1
-0.1449713650 0.5016806020 -1 1
-0.1432070010 0.5022350510 -1 1
-0.1418905700 0.5027947600 -1 1
-0.1411512400 0.5033569550 -1 1
-0.1410475180 0.5039165270 -1 1
-0.1415590440 0.5044667800 -1 1
-0.1425932560 0.5049998330 -1 1
-0.1440077730 0.5055070030 -1 1
-0.1456414940 0.5059817480 -1 1
-0.1473425350 0.5064241870 -1 1
-0.1489854640 0.5068420100 -1 1
-0.1504794010 0.5072452140 -1 1
-0.1517717820 0.5076398000 -1 1
-0.1528490220 0.5080279570 -1 1
-0.1537314470 0.5084153200 -1 1
-0.1544605440 0.5088186180 -1 1
-0.1550815490 0.5092669090 -1 1
-0.1556277940 0.5097941660 -1 1
-0.1561122840 0.5104265200 -1 1
-0.1565289470 0.5111716860 -1 1
-0.1568629650 0.5120169100 -1 1
-0.1571059970 0.5129350760 -1 1
-0.1572691700 0.5138928970 -1 1
-0.1573874480 0.5148553930 -1 1
-0.1575149990 0.5157861510 -1 1
-0.1577170490 0.5166480950 -1 1
-0.1580614510 0.5174080620 -1 1
-0.1586062380 0.5180422940 -1 1
-0.1593797850 0.5185389740 -1 1
-0.1603586780 0.5188981370 -1 1
-0.1614548550 0.5191310530 -1 1
-0.1625214330 0.5192589180 -1 1
-0.1633771400 0.5193096090 -1 1
-0.1638393450 0.5193130500 -1 1
-0.1637545990 0.5192971670 -1 1
-0.1630222440 0.5192853110 -1 1
-0.1616105060 0.5192948130 -1 1
-0.1595631450 0.5193363010 -1 1
-0.1569955220 0.5194135410 -1 1
-0.1540826700 0.5195227510 -1 1
-0.1510420340 0.5196496300 -1 1
-0.1481105630 0.5197631300 -1 1
-0.1455172380 0.5198092990 -1 1
-0.1434570990 0.5197143330 -1 1
-0.1420733860 0.5194044540 -1 1
-0.1414500420 0.5188371090 -1 1
-0.1416125670 0.5180258230 -1 1
-0.1425323780 0.5170451390 -1 1
-0.1441297430 0.5160166920 -1 1
-0.1462749510 0.5150850890 -1 1
-0.1487926420 0.5143901630 -1 1
-0.1514741500 0.5140404870 -1 1
-0.1540981840 0.5140946760 -1 1
-0.1564560670 0.5145564360 -1 1
-0.1583763880 0.5153839410 -1 1
-0.1597445150 0.5165068270 -1 1
-0.1605135560 0.5178408180 -1 1
-0.1607048030 0.5192946060 -1 1
-0.1603975180 0.5207716960 -1 1
-0.1597113860 0.5221738920 -1 1
-0.1587878840 0.5234100130 -1 1
-0.1577758990 0.5244075320 -1 1
-0.1568238820 0.5251217400 -1 1
-0.1560777100 0.5255391980 -1 1
-0.1556785740 0.5256766000 -1 1
-0.1557528480 0.5255776530 -1 1
-0.1563922670 0.5253079230 -1 1
-0.1576321690 0.5249454490 -1 1
-0.1594378310 0.5245671100 -1 1
-0.1617038460 0.5242349750 -1 1
-0.1642659660 0.5239875170 -1 1
-0.1669218890 0.5238373330 -1 1
-0.1694547350 0.5237759590 -1 1
-0.1716523750 0.5237861480 -1 1
-0.1733206660 0.5238564820 -1 1
-0.1742938630 0.5239886730 -1 1
-0.1744461230 0.5241942060 -1 1
-0.1737057050 0.5244858720 -1 1
-0.1720697370 0.5248694540 -1 1
-0.1696142850 0.5253366830 -1 1
-0.1664944120 0.5258606440 -1 1
-0.1629303300 0.5263957300 -1 1
-0.1591783170 0.5268827790 -1 1
-0.1554929180 0.5272579680 -1 1
-0.1520956450 0.5274630970 -1 1
-0.1491621780 0.5274548830 -1 1
-0.1468256170 0.5272116780 -1 1
-0.1451836480 0.5267371430 -1 1
-0.1443006990 0.5260608340 -1 1
-0.1442046590 0.5252355370 -1 1
-0.1448820160 0.5243322040 -1 1
-0.1462741310 0.5234336610 -1 1
-0.1482756850 0.5226266820 -1 1
-0.1507371490 0.5219915110 -1 1
-0.1534743660 0.5215892940 -1 1
-0.1562864290 0.5214500410 -1 1
-0.1589787770 0.5215670300 -1 1
-0.1613863420 0.5219042670 -1 1
-0.1633924090 0.5224159640 -1 1
-0.1649404720 0.5230667400 -1 1
-0.1660374460 0.5238402080 -1 1
-0.1667474050 0.5247326600 -1 1
-0.1671759050 0.5257380380 -1 1
-0.1674469370 0.5268333810 -1 1
-0.1676787120 0.5279710370 -1 1
-0.1679666970 0.5290799880 -1 1
-0.1683774870 0.5300763400 -1 1
-0.1689486050 0.5308802490 -1 1
-0.1696873140 0.5314332140 -1 1
-0.1705670560 0.5317092830 -1 1
-0.1715249970 0.5317177510 -1 1
-0.1724648710 0.5314992460 -1 1
-0.1732688320 0.5311178120 -1 1
-0.1738190700 0.5306500760 -1 1
-0.1740238150 0.5301730820 -1 1
-0.1738392380 0.5297545700 -1 1
-0.1732819880 0.5294492540 -1 1
-0.1724314160 0.5293011010 -1 1
-0.1714217410 0.5293479120 -1 1
-0.1704238130 0.5296231120 -1 1
-0.1696175430 0.5301509810 -1 1
-0.1691614730 0.5309357680 -1 1
-0.1691695060 0.5319501520 -1 1
-0.1696996640 0.5331307670 -1 1
-0.1707523340 0.5343852890 -1 1
-0.1722744980 0.5356087840 -1 1
-0.1741680100 0.5367020710 -1 1
-0.1763002950 0.5375859200 -1 1
-0.1785165550 0.5382091750 -1 1
-0.1806540600 0.5385517380 -1 1
-0.1825594680 0.5386243070 -1 1
-0.1841074680 0.5384661070 -1 1
-0.1852151190 0.5381398300 -1 1
-0.1858455480 0.5377220930 -1 1
-0.1859991330 0.5372902630 -1 1
-0.1856981960 0.5369101890 -1 1
-0.1849759040 0.5366298970 -1 1
-0.1838755760 0.5364803990 -1 1
-0.1824572350 0.5364805820 -1 1
-0.1808027220 0.5366422910 -1 1
-0.1790132190 0.5369732560 -1 1
-0.1772020730 0.5374768020 -1 1
-0.1754907550 0.5381479980 -1 1
-0.1740087660 0.5389674010 -1 1
-0.1728893370 0.5398961610 -1 1
-0.1722547930 0.5408772360 -1 1
-0.1721941580 0.5418446130 -1 1
-0.1727403110 0.5427367720 -1 1
-0.1738552200 0.5435069760 -1 1
-0.1754305590 0.5441253370 -1 1
-0.1773042830 0.5445743130 -1 1
-0.1792853490 0.5448432270 -1 1
-0.1811777330 0.5449251450 -1 1
-0.1828012650 0.5448161030 -1 1
-0.1840114630 0.5445171050 -1 1
-0.1847170500 0.5440406790 -1 1
-0.1848884580 0.5434207810 -1 1
-0.1845533830 0.5427195330 -1 1
-0.1837845560 0.5420236350 -1 1
-0.1826885250 0.5414294150 -1 1
-0.1813978250 0.5410224850 -1 1
-0.1800616790 0.5408598300 -1 1
-0.1788315810 0.5409597550 -1 1
-0.1778434170 0.5413012120 -1 1
-0.1772002680 0.5418306400 -1 1
-0.1769600230 0.5424728960 -1 1
-0.1771303480 0.5431435310 -1 1
-0.1776709170 0.5437612840 -1 1
-0.1785015400 0.5442599870 -1 1
-0.1795150830 0.5445979070 -1 1
-0.1805934160 0.5447618510 -1 1
-0.1816221810 0.5447647450 -1 1
-0.1824982680 0.5446379590 -1 1
-0.1831278960 0.5444223270 -1 1
-0.1834228860 0.5441620340 -1 1
-0.1833064640 0.5439016930 -1 1
-0.1827304190 0.5436830200 -1 1
-0.1816943670 0.5435397580 -1 1
-0.1802586490 0.5434947660 -1 1
-0.1785491970 0.5435624370 -1 1
-0.1767540150 0.5437535020 -1 1
-0.1751086780 0.5440764030 -1 1
-0.1738694250 0.5445340910 -1 1
-0.1732752100 0.5451213210 -1 1
-0.1735033550 0.5458264810 -1 1
-0.1746299310 0.5466346960 -1 1
-0.1766099790 0.5475254720 -1 1
-0.1792848230 0.5484635690 -1 1
-0.1824100490 0.5493897790 -1 1
-0.1856917360 0.5502205250 -1 1
-0.1888221790 0.5508599530 -1 1
-0.1915121500 0.5512197250 -1 1
-0.1935196650 0.5512371590 -1 1
-0.1946746580 0.5508851250 -1 1
-0.1948974500 0.5501741850 -1 1
-0.1942073800 0.5491520360 -1 1
-0.1927168430 0.5479029100 -1 1
-0.1906092000 0.5465426660 -1 1
-0.1881071150 0.5452040300 -1 1
-0.1854424160 0.5440148590 -1 1
-0.1828346280 0.5430792310 -1 1
-0.1804776280 0.5424673610 -1 1
-0.1785302110 0.5422130180 -1 1
-0.1771095880 0.5423152430 -1 1
-0.1762907030 0.5427429500 -1 1
-0.1761112200 0.5434418070 -1 1
-0.1765757410 0.5443422080 -1 1
-0.1776538420 0.5453665840 -1 1
-0.1792747550 0.5464347030 -1 1
-0.1813263680 0.5474677420 -1 1
-0.1836625950 0.5483941990 -1 1
-0.1861162220 0.5491588740 -1 1
-0.1885111490 0.5497311830 -1 1
-0.1906708930 0.5501084970 -1 1
-0.1924252980 0.5503145270 -1 1
-0.1936198490 0.5503945110 -1 1
-0.1941300540 0.5504064320 -1 1
-0.1938784910 0.5504076530 -1 1
-0.1928484940 0.5504411460 -1 1
-0.1910896320 0.5505275850 -1 1
-0.1887153350 0.5506656670 -1 1
-0.1858967940 0.5508374270 -1 1
-0.1828550550 0.5510140770 -1 1
-0.1798477390 0.5511609060 -1 1
-0.1771458130 0.5512428120 -1 1
-0.1750014750 0.5512317920 -1 1
-0.1736139930 0.5511154010 -1 1
-0.1731019060 0.5509035300 -1 1
-0.1734885740 0.5506311110 -1 1
-0.1747044030 0.5503551830 -1 1
-0.1766030060 0.5501455050 -1 1
-0.1789839500 0.5500693030 -1 1
-0.1816164890 0.5501739410 -1 1
-0.1842640140 0.5504745320 -1 1
-0.1867101610 0.5509528770 -1 1
-0.1887843370 0.5515680100 -1 1
-0.1903816500 0.5522718380 -1 1
-0.1914717740 0.5530214510 -1 1
-0.1920940930 0.5537832200 -1 1
-0.1923413460 0.5545296200 -1 1
-0.1923372300 0.5552333500 -1 1
-0.1922140150 0.5558638230 -1 1
-0.1920946470 0.5563892420 -1 1
-0.1920805330 0.5567835960 -1 1
-0.1922441970 0.5570343530 -1 1
-0.1926266820 0.5571468240 -1 1
-0.1932395660 0.5571442070 -1 1
-0.1940690570 0.5570639960 -1 1
-0.1950784360 0.5569511600 -1 1
-0.1962088170 0.5568490790 -1 1
-0.1973818780 0.5567902400 -1 1
-0.1985065220 0.5567893320 -1 1
-0.1994875960 0.5568417950 -1 1
-0.2002351280 0.5569291660 -1 1
-0.2006748280 0.5570281000 -1 1
-0.2007591980 0.5571180780 -1 1
-0.2004750310 0.5571858480 -1 1
-0.1998450510 0.5572276400 -1 1
-0.1989270160 0.5572494420 -1 1
-0.1978129770 0.5572640520 -1 1
-0.1966259960 0.5572849420 -1 1
-0.1955105490 0.5573192210 -1 1
-0.1946164480 0.5573620690 -1 1
-0.1940799990 0.5573941300 -1 1
-0.1940074960 0.5573837190 -1 1
-0.1944637980 0.5572954130 -1 1
-0.1954658780 0.5571024680 -1 1
-0.1969810660 0.5567959970 -1 1
-0.1989297230 0.5563851770 -1 1
-0.2011905840 0.5558888160 -1 1
-0.2036083850 0.5553240410 -1 1
-0.2060064960 0.5547005060 -1 1
-0.2082050720 0.5540258500 -1 1
-0.2100394330 0.5533187090 -1 1
-0.2113726500 0.5526182160 -1 1
-0.2121017240 0.5519821180 -1 1
-0.2121622140 0.5514740140 -1 1
-0.2115362040 0.5511459890 -1 1
-0.2102625840 0.5510245880 -1 1
-0.2084438000 0.5511053920 -1 1
-0.2062445070 0.5513567580 -1 1
-0.2038805210 0.5517304580 -1 1
-0.2015973340 0.5521757260 -1 1
-0.1996396180 0.5526515570 -1 1
-0.1982178890 0.5531325990 -1 1
-0.1974813250 0.5536076380 -1 1
-0.1975031900 0.5540731380 -1 1
-0.1982793930 0.5545250130 -1 1
-0.1997359070 0.5549510440 -1 1
-0.2017394400 0.5553264050 -1 1
-0.2041077040 0.5556153580 -1 1
-0.2066191440 0.5557810830 -1 1
-0.2090248290 0.5558018830 -1 1
-0.2110665490 0.5556864890 -1 1
-0.2125040330 0.5554793160 -1 1
-0.2131470980 0.5552522200 -1 1
-0.2128824350 0.5550870820 -1 1
-0.2116892460 0.5550560850 -1 1
-0.2096451330 0.5552049440 -1 1
-0.2069221020 0.5555429180 -1 1
-0.2037701200 0.5560421880 -1 1
-0.2004901950 0.5566458890 -1 1
-0.1974030000 0.5572808410 -1 1
-0.1948164950 0.5578708630 -1 1
-0.1929925570 0.5583472200 -1 1
-0.1921141240 0.5586538330 -1 1
-0.1922581260 0.5587490330 -1 1
-0.1933819380 0.5586086950 -1 1
-0.1953303540 0.5582318870 -1 1
-0.1978634280 0.5576444250 -1 1
-0.2006961070 0.5568955750 -1 1
-0.2035380970 0.5560485090 -1 1
-0.2061273080 0.5551695860 -1 1
-0.2082535610 0.5543207370 -1 1
-0.2097700800 0.5535558450 -1 1
-0.2105940180 0.5529203010 -1 1
-0.2107016620 0.5524518810 -1 1
-0.2101236650 0.5521799340 -1 1
-0.2089416170 0.5521213110 -1 1
-0.2072840340 0.5522754170 -1 1
-0.2053194410 0.5526224330 -1 1
-0.2032453770 0.5531262700 -1 1
-0.2012724640 0.5537400090 -1 1
-0.1996031590 0.5544103950 -1 1
-0.1984084920 0.5550803420 -1 1
-0.1978101980 0.5556914940 -1 1
-0.1978732860 0.5561891010 -1 1
-0.1986060820 0.5565290510 -1 1
-0.1999610060 0.5566849010 -1 1
-0.2018347510 0.5566523780 -1 1
-0.2040742510 0.5564497440 -1 1
-0.2064944530 0.5561142930 -1 1
-0.2089042710 0.5556969650 -1 1
-0.2111301520 0.5552568320 -1 1
-0.2130314270 0.5548561500 -1 1
-0.2145090170 0.5545563570 -1 1
-0.2155093290 0.5544147870 -1 1
-0.2160228700 0.5544802170 -1 1
-0.2160773590 0.5547849170 -1 1
-0.2157272920 0.5553334830 -1 1
-0.2150447540 0.5560928430 -1 1
-0.2141152180 0.5569898240 -1 1
-0.2130366540 0.5579203760 -1 1
-0.2119171200 0.5587688860 -1 1
-0.2108668250 0.5594309470 -1 1
-0.2099842680 0.5598325610 -1 1
-0.2093411600 0.5599419730 -1 1
-0.2089720590 0.5597726560 -1 1
-0.2088702210 0.5593772380 -1 1
-0.2089882070 0.5588339200 -1 1
-0.2092438720 0.5582290650 -1 1
-0.2095336760 0.5576409320 -1 1
-0.2097519980 0.5571285860 -1 1
-0.2098110440 0.5567272530 -1 1
-0.2096563510 0.5564492260 -1 1
-0.2092760570 0.5562886100 -1 1
-0.2087031560 0.5562279270 -1 1
-0.2080096720 0.5562446590 -1 1
-0.2072932310 0.5563163930 -1 1
-0.2066599580 0.5564243020 -1 1
-0.2062103250 0.5565549750 -1 1
-0.2060321670 0.5566998140 -1 1
-0.2061982200 0.5568511860 -1 1
-0.2067622540 0.5569969880 -1 1
-0.2077520810 0.5571177650 -1 1
-0.2091635560 0.5571885650 -1 1
-0.2109599690 0.5571828310 -1 1
-0.2130768170 0.5570747680 -1 1
-0.2154286220 0.5568405200 -1 1
-0.2179155060 0.5564611320 -1 1
-0.2204300230 0.5559285120 -1 1
-0.2228637170 0.5552527660 -1 1
-0.2251092350 0.5544682070 -1 1
-0.2270566490 0.5536343310 -1 1
-0.2285906760 0.5528286050 -1 1
-0.2295965700 0.5521322130 -1 1
-0.2299746330 0.5516144070 -1 1
-0.2296577300 0.5513214660 -1 1
-0.2286272860 0.5512727360 -1 1
-0.2269257970 0.5514622230 -1 1
-0.2246634880 0.5518624870 -1 1
-0.2220157630 0.5524288720 -1 1
-0.2192099150 0.5531043420 -1 1
-0.2165023440 0.5538255290 -1 1
-0.2141482330 0.5545288080 -1 1
-0.2123678300 0.5551541580 -1 1
-0.2113187660 0.5556455620 -1 1
-0.2110827710 0.5559493730 -1 1
-0.2116642640 0.5560151790 -1 1
-0.2129921510 0.5558039340 -1 1
-0.2149223220 0.5553025010 -1 1
-0.2172458960 0.5545367720 -1 1
-0.2197093040 0.5535746090 -1 1
-0.2220471110 0.5525157810 -1 1
-0.2240189020 0.5514727190 -1 1
-0.2254362800 0.5505489600 -1 1
-0.2261734750 0.5498214640 -1 1
-0.2261671780 0.5493302460 -1 1
-0.2254139820 0.5490755990 -1 1
-0.2239682010 0.5490212590 -1 1
-0.2219391860 0.5491016510 -1 1
-0.2194868540 0.5492322860 -1 1
-0.2168133890 0.5493232720 -1 1
-0.2141495010 0.5492959110 -1 1
-0.2117350990 0.5491002470 -1 1
-0.2097941030 0.5487281390 -1 1
-0.2085054840 0.5482158790 -1 1
-0.2079782920 0.5476344260 -1 1
-0.2082396420 0.5470710360 -1 1
-0.2092380050 0.5466096500 -1 1
-0.2108564750 0.5463168100 -1 1
-0.2129287250 0.5462354010 -1 1
-0.2152542490 0.5463844890 -1 1
-0.2176130910 0.5467634450 -1 1
-0.2197808380 0.5473588930 -1 1
-0.2215455150 0.5481508280 -1 1
-0.2227286460 0.5491145190 -1 1
-0.2232106010 0.5502193230 -1 1
-0.2229547240 0.5514274270 -1 1
-0.2220194900 0.5526931450 -1 1
-0.2205501390 0.5539624350 -1 1
-0.2187513350 0.5551734490 -1 1
-0.2168516960 0.5562593580 -1 1
-0.2150717470 0.5571538930 -1 1
-0.2135996360 0.5577984640 -1 1
-0.2125718820 0.5581487580 -1 1
-0.2120570800 0.5581798960 -1 1
-0.2120467180 0.5578906680 -1 1
-0.2124597970 0.5573070860 -1 1
-0.2131624970 0.5564839710 -1 1
-0.2139971280 0.5555024580 -1 1
-0.2148126510 0.5544622820 -1 1
-0.2154903480 0.5534696480 -1 1
-0.2159597570 0.5526229680 -1 1
-0.2162023520 0.5519997570 -1 1
-0.2162440400 0.5516481980 -1 1
-0.2161415740 0.5515849160 -1 1
-0.2159693820 0.5517977760 -1 1
-0.2158093070 0.5522518420 -1 1
-0.2157412780 0.5528976100 -1 1
-0.2158335380 0.5536804990 -1 1
-0.2161338560 0.5545487760 -1 1
-0.2166643440 0.5554563690 -1 1
-0.2174217890 0.5563600970 -1 1
-0.2183823360 0.5572153750 -1 1
-0.2195067420 0.5579757530 -1 1
-0.2207444960 0.5585975640 -1 1
-0.2220378560 0.5590456650 -1 1
-0.2233252820 0.5592958520 -1 1
-0.2245425690 0.5593341200 -1 1
-0.2256232680 0.5591567760 -1 1
-0.2265027310 0.5587737020 -1 1
-0.2271280650 0.5582115660 -1 1
-0.2274710300 0.5575119510 -1 1
-0.2275372350 0.5567245950 -1 1
-0.2273665530 0.5559013700 -1 1
-0.2270246880 0.5550943730 -1 1
-0.2265895850 0.5543546440 -1 1
-0.2261374960 0.5537259340 -1 1
-0.2257327150 0.5532331820 -1 1
-0.2254230330 0.5528724700 -1 1
-0.2252400850 0.5526103030 -1 1
-0.2252019520 0.5523929210 -1 1
-0.2253162440 0.5521592580 -1 1
-0.2255828700 0.5518523870 -1 1
-0.2259949110 0.5514287280 -1 1
-0.2265367240 0.5508645840 -1 1
-0.2271805420 0.5501582370 -1 1
-0.2278836310 0.5493268210 -1 1
-0.2285878050 0.5483992160 -1 1
-0.2292226640 0.5474090130 -1 1
-0.2297127510 0.5463924170 -1 1
-0.2299868740 0.5453907950 -1 1
-0.2299871790 0.5444514940 -1 1
-0.2296777060 0.5436222600 -1 1
-0.2290533260 0.5429421770 -1 1
-0.2281466770 0.5424367460 -1 1
-0.2270279180 0.5421219270 -1 1
-0.2257948740 0.5420129850 -1 1
-0.2245565770 0.5421273840 -1 1
-0.2234167570 0.5424757750 -1 1
-0.2224633070 0.5430466900 -1 1
-0.2217646510 0.5437956160 -1 1
-0.2213680820 0.5446442980 -1 1
-0.2212953330 0.5454889290 -1 1
-0.2215383250 0.5462131430 -1 1
-0.2220621070 0.5467027510 -1 1
-0.2228142980 0.5468608300 -1 1
-0.2237326810 0.5466227000 -1 1
-0.2247471220 0.5459693160 -1 1
-0.2257801930 0.5449352970 -1 1
-0.2267504680 0.5436075800 -1 1
-0.2275778550 0.5421133310 -1 1
-0.2281896340 0.5405995540 -1 1
-0.2285275220 0.5392094940 -1 1
-0.2285551740 0.5380614650 -1 1
-0.2282633190 0.5372347370 -1 1
-0.2276703630 0.5367639450 -1 1
-0.2268191620 0.5366400960 -1 1
-0.2257713330 0.5368172040 -1 1
-0.2245998270 0.5372264780 -1 1
-0.2233814850 0.5377971120 -1 1
-0.2221919550 0.5384754620 -1 1
-0.2211040450 0.5392320980 -1 1
-0.2201886120 0.5400530880 -1 1
-0.2195143740 0.5409217570 -1 1
-0.2191415210 0.5418023140 -1 1
-0.2191072980 0.5426341370 -1 1
-0.2194082840 0.5433385600 -1 1
-0.2199888750 0.5438343590 -1 1
-0.2207446180 0.5440559100 -1 1
-0.2215419220 0.5439677350 -1 1
-0.2222472680 0.5435710020 -1 1
-0.2227558750 0.5429023090 -1 1
-0.2230123190 0.5420283260 -1 1
-0.2230197770 0.5410381840 -1 1
-0.2228371860 0.5400329860 -1 1
-0.2225643900 0.5391126010 -1 1
-0.2223168670 0.5383629760 -1 1
-0.2221964650 0.5378482790 -1 1
-0.2222693010 0.5376082910 -1 1
-0.2225589990 0.5376578440 -1 1
-0.2230533200 0.5379859750 -1 1
-0.2237169860 0.5385553050 -1 1
-0.2245058600 0.5393041100 -1 1
-0.2253791280 0.5401536560 -1 1
-0.2263059270 0.5410203040 -1 1
-0.2272653540 0.5418281250 -1 1
-0.2282419400 0.5425172810 -1 1
-0.2292198200 0.5430468250 -1 1
-0.2301794510 0.5433946040 -1 1
-0.2310990390 0.5435581980 -1 1
-0.2319577750 0.5435576870 -1 1
-0.2327368010 0.5434370730 -1 1
-0.2334188200 0.5432613170 -1 1
-0.2339900430 0.5431097800 -1 1
-0.2344451370 0.5430687990 -1 1
-0.2347912220 0.5432242700 -1 1
-0.2350458070 0.5436531180 -1 1
-0.2352284030 0.5444134410 -1 1
-0.2353518680 0.5455352710 -1 1
-0.2354210860 0.5470145640 -1 1
-0.2354416290 0.5488124900 -1 1
-0.2354328250 0.5508607960 -1 1
-0.2354355270 0.5530714240 -1 1
-0.2355085650 0.5553469490 -1 1
-0.2357141310 0.5575895050 -1 1
-0.2360968050 0.5597077670 -1 1
-0.2366640290 0.5616233640 -1 1
-0.2373766120 0.5632795520 -1 1
-0.2381535990 0.5646532210 -1 1
-0.2388886590 0.5657650400 -1 1
-0.2394697090 0.5666790030 -1 1
-0.2397947900 0.5674890760 -1 1
-0.2397835750 0.5683006200 -1 1
-0.2393873880 0.5692160910 -1 1
-0.2385981390 0.5703279330 -1 1
-0.2374529170 0.5717157570 -1 1
-0.2360314820 0.5734440180 -1 1
-0.2344480080 0.5755578600 -1 1
-0.2328404780 0.5780763950 -1 1
-0.2313584350 0.5809852720 -1 1
-0.2301476390 0.5842338630 -1 1
-0.2293334050 0.5877429780 -1 1
-0.2290071860 0.5914225770 -1 1
-0.2292179050 0.5951911160 -1 1
-0.2299667310 0.5989883920 -1 1
-0.2312060650 0.6027801760 -1 1
-0.2328450020 0.6065571440 -1 1
-0.2347593200 0.6103309840 -1 1
-0.2368000710 0.6141303640 -1 1
-0.2387990060 0.6179982720 -1 1
-0.2405774770 0.6219890810 -1 1
-0.2419658640 0.6261624870 -1 1
-0.2428307500 0.6305741550 -1 1
-0.2430980530 0.6352657200 -1 1
-0.2427617810 0.6402572450 -1 1
-0.2418772510 0.6455442830 -1 1
-0.2405463130 0.6511000370 -1 1
-0.2389033920 0.6568818000 -1 1
-0.2371042360 0.6628402120 -1 1
-0.2353124870 0.6689279140 -1 1
-0.2336814370 0.6751023220 -1 1
-0.2323360890 0.6813219270 -1 1
-0.2313628780 0.6875440980 -1 1
-0.2308076200 0.6937313650 -1 1
-0.2306764620 0.6998620810 -1 1
-0.2309387060 0.7059359160 -1 1
-0.2315352070 0.7119712620 -1 1
-0.2323904600 0.7179986940 -1 1
-0.2334203450 0.7240543330 -1 1
-0.2345329620 0.7301746010 -1 1
-0.2356294610 0.7363939160 -1 1
-0.2366110950 0.7427458030 -1 1
-0.2373905230 0.7492639490 -1 1
-0.2379014450 0.7559786350 -1 1
-0.2381037720 0.7629086160 -1 1
-0.2379862960 0.7700530660 -1 1
-0.2375702830 0.7773871770 -1 1
-0.2369138490 0.7848615510 -1 1
-0.2361122130 0.7924041980 -1 1
-0.2352895860 0.7999249580 -1 1
-0.2345834310 0.8000000000 -1 1
-0.2341255790 0.8000000000 -1 1
-0.2340263420 0.8000000000 -1 1
-0.2343649980 0.8000000000 -1 1
-0.2351830270 0.8000000000 -1 1
-0.2364750240 0.8000000000 -1 1
-0.2381798670 0.8000000000 -1 1
-0.2401805440 0.8000000000 -1 1
-0.2423169400 0.8000000000 -1 1
-0.2444069180 0.8000000000 -1 1
-0.2462671560 0.8000000000 -1 1
-0.2477294800 0.8000000000 -1 1
-0.2486543670 0.8000000000 -1 1
-0.2489446210 0.8000000000 -1 1
-0.2485580440 0.8000000000 -1 1
-0.2475138170 0.8000000000 -1 1
-0.2458892740 0.8000000000 -1 1
-0.2438098890 0.8000000000 -1 1
-0.2414380610 0.8000000000 -1 1
-0.2389637860 0.8000000000 -1 1
-0.2365957480 0.8000000000 -1 1
-0.2345482100 0.8000000000 -1 1
-0.2330193480 0.8000000000 -1 1
-0.2321621340 0.8000000000 -1 1
-0.2320564660 0.8000000000 -1 1
-0.2326938190 0.8000000000 -1 1
-0.2339801960 0.8000000000 -1 1
-0.2357548670 0.8000000000 -1 1
-0.2378180280 0.8000000000 -1 1
-0.2399593050 0.8000000000 -1 1
-0.2419800810 0.8000000000 -1 1
-0.2437081270 0.8000000000 -1 1
-0.2450081000 0.8000000000 -1 1
-0.2457905010 0.8000000000 -1 1
-0.2460180370 0.8000000000 -1 1
-0.2457070970 0.8000000000 -1 1
-0.2449239010 0.8000000000 -1 1
-0.2437781280 0.8000000000 -1 1
-0.2424174440 0.8000000000 -1 1
-0.2410225510 0.8000000000 -1 1
-0.2397980310 0.8000000000 -1 1
-0.2389544950 0.8000000000 -1 1
-0.2386827190 0.8000000000 -1 1
-0.2391260180 0.8000000000 -1 1
-0.2403584590 0.7979253230 -1 1
-0.2423734210 0.7927668350 -1 1
-0.2450826310 0.7875505460 -1 1
-0.2483238220 0.7822906160 -1 1
-0.2518759310 0.7770032230 -1 1
-0.2554808900 0.7717058310 -1 1
-0.2588687490 0.7664175900 -1 1
-0.2617820220 0.7611590080 -1 1
-0.2639974880 0.7559506050 -1 1
-0.2653457970 0.7508114370 -1 1
-0.2657291730 0.7457575920 -1 1
-0.2651354010 0.7407993740 -1 1
-0.2636432600 0.7359362480 -1 1
-0.2614154460 0.7311517980 -1 1
-0.2586799600 0.7264142230 -1 1
-0.2557047490 0.7216856990 -1 1
-0.2527704110 0.7169367280 -1 1
-0.2501430490 0.7121574800 -1 1
-0.2480472150 0.7073606180 -1 1
-0.2466405430 0.7025759540 -1 1
-0.2459947360 0.6978418490 -1 1
-0.2460871980 0.6931979400 -1 1
-0.2468050650 0.6886797520 -1 1
-0.2479627540 0.6843134120 -1 1
-0.2493331890 0.6801103480 -1 1
-0.2506861830 0.6760642730 -1 1
-0.2518204500 0.6721522850 -1 1
-0.2525792860 0.6683399900 -1 1
-0.2528527660 0.6645898480 -1 1
-0.2525772640 0.6608713270 -1 1
-0.2517383840 0.6571693050 -1 1
-0.2503737380 0.6534859300 -1 1
-0.2485702580 0.6498346840 -1 1
-0.2464572910 0.6462309510 -1 1
-0.2441995590 0.6426846660 -1 1
-0.2419887120 0.6391970380 -1 1
-0.2400296340 0.6357598120 -1 1
-0.2385220870 0.6323553370 -1 1
-0.2376405040 0.6289583100 -1 1
-0.2375130030 0.6255419390 -1 1
-0.2382017820 0.6220881250 -1 1
-0.2396902340 0.6185967510 -1 1
-0.2418814570 0.6150893390 -1 1
-0.2446089590 0.6116058750 -1 1
-0.2476572600 0.6081962620 -1 1
-0.2507880700 0.6049094420 -1 1
-0.2537668370 0.6017835400 -1 1
-0.2563863200 0.5988398370 -1 1
-0.2584861330 0.5960824600 -1 1
-0.2599670330 0.5935039140 -1 1
-0.2607974980 0.5910938610 -1 1
-0.2610108030 0.5888460230 -1 1
-0.2606929530 0.5867583540 -1 1
-0.2599643680 0.5848261420 -1 1
-0.2589605500 0.5830330460 -1 1
-0.2578158520 0.5813466320 -1 1
-0.2566508390 0.5797214330 -1 1
-0.2555632940 0.5781071370 -1 1
-0.2546242180 0.5764566440 -1 1
-0.2538783720 0.5747299880 -1 1
-0.2533468780 0.5728939720 -1 1
-0.2530307920 0.5709207160 -1 1
-0.2529159320 0.5687889050 -1 1
-0.2529772050 0.5664885760 -1 1
-0.2531793620 0.5640260410 -1 1
-0.2534734250 0.5614240100 -1 1
-0.2537919740 0.5587150110 -1 1
-0.2540485990 0.5559316480 -1 1
-0.2541452470 0.5531003940 -1 1
-0.2539863030 0.5502425570 -1 1
-0.2534943700 0.5473797960 -1 1
-0.2526237550 0.5445381910 -1 1
-0.2513707610 0.5417466830 -1 1
-0.2497805460 0.5390307240 -1 1
-0.2479490510 0.5364055500 -1 1
-0.2460179490 0.5338727910 -1 1
-0.2441612710 0.5314211980 -1 1
-0.2425652860 0.5290302120 -1 1
-0.2414069980 0.5266748930 -1 1
-0.2408365670 0.5243317520 -1 1
-0.2409625690 0.5219849430 -1 1
-0.2418348610 0.5196305020 -1 1
-0.2434265270 0.5172765610 -1 1
-0.2456258120 0.5149409710 -1 1
-0.2482469810 0.5126501460 -1 1
-0.2510575050 0.5104400910 -1 1
-0.2538110200 0.5083561910 -1 1
-0.2562761010 0.5064485970 -1 1
-0.2582561430 0.5047640850 -1 1
-0.2596012960 0.5033372750 -1 1
-0.2602158450 0.5021835250 -1 1
-0.2600634940 0.5012949420 -1 1
-0.2591706040 0.5006396850 -1 1
-0.2576256790 0.5001638220 -1 1
-0.2555743080 0.4997960810 -1 1
-0.2532097470 0.4994564340 -1 1
-0.2507559330 0.4990668470 -1 1
-0.2484379380 0.4985607130 -1 1
-0.2464441230 0.4978885780 -1 1
-0.2448964500 0.4970190790 -1 1
-0.2438428320 0.4959358570 -1 1
-0.2432693470 0.4946343830 -1 1
-0.2431201680 0.4931220840 -1 1
-0.2433158250 0.4914207030 -1 1
-0.2437658380 0.4895676900 -1 1
-0.2443745230 0.4876145700 -1 1
-0.2450424440 0.4856218710 -1 1
-0.2456693330 0.4836514560 -1 1
-0.2461623550 0.4817573500 -1 1
-0.2464467210 0.4799761860 -1 1
-0.2464723350 0.4783202490 -1 1
-0.2462148130 0.4767774190 -1 1
-0.2456754840 0.4753193060 -1 1
-0.2448850260 0.4739135950 -1 1
-0.2439090000 0.4725344130 -1 1
-0.2428468330 0.4711666510 -1 1
-0.2418173940 0.4698039350 -1 1
-0.2409352520 0.4684426020 -1 1
-0.2402892830 0.4670744760 -1 1
-0.2399305820 0.4656811500 -1 1
-0.2398684780 0.4642333160 -1 1
-0.2400724560 0.4626977770 -1 1
-0.2404807130 0.4610501820 -1 1
-0.2410143990 0.4592865130 -1 1
-0.2415918640 0.4574269140 -1 1
-0.2421372740 0.4555119850 -1 1
-0.2425838150 0.4535964690 -1 1
-0.2428759420 0.4517432220 -1 1
-0.2429729090 0.4500168030 -1 1
-0.2428523030 0.4484764770 -1 1
-0.2425128750 0.4471692590 -1 1
-0.2419759250 0.4461228690 -1 1
-0.2412823660 0.4453399270 -1 1
-0.2404857790 0.4447970570 -1 1
-0.2396474940 0.4444503140 -1 1
-0.2388379060 0.4442436870 -1 1
-0.2381412400 0.4441168620 -1 1
-0.2376579010 0.4440118570 -1 1
-0.2374996170 0.4438793720 -1 1
-0.2377743320 0.4436832780 -1 1
-0.2385623090 0.4434011600 -1 1
-0.2398914370 0.4430215520 -1 1
-0.2417212060 0.4425397010 -1 1
-0.2439400510 0.4419525730 -1 1
-0.2463762060 0.4412538580 -1 1
-0.2488190140 0.4404313180 -1 1
-0.2510442790 0.4394692750 -1 1
-0.2528378340 0.4383569000 -1 1
-0.2540170040 0.4370988660 -1 1
-0.2544512540 0.4357213800 -1 1
-0.2540782650 0.4342679160 -1 1
-0.2529098090 0.4327862610 -1 1
-0.2510265700 0.4313149830 -1 1
-0.2485649080 0.4298763100 -1 1
-0.2456991830 0.4284763030 -1 1
-0.2426237430 0.4271093330 -1 1
-0.2395382690 0.4257635330 -1 1
-0.2366367380 0.4244252570 -1 1
-0.2340977370 0.4230821880 -1 1
-0.2320755090 0.4217258640 -1 1
-0.2306930900 0.4203540700 -1 1
-0.2300369140 0.4189723000 -1 1
-0.2301495410 0.4175929910 -1 1
-0.2310190530 0.4162327720 -1 1
-0.2325693540 0.4149102690 -1 1
-0.2346587530 0.4136472520 -1 1
-0.2370915120 0.4124732030 -1 1
-0.2396406610 0.4114294220 -1 1
-0.2420757000 0.4105674290 -1 1
-0.2441884830 0.4099404300 -1 1
-0.2458133890 0.4095920290 -1 1
-0.2468411880 0.4095468400 -1 1
-0.2472277050 0.4098043110 -1 1
-0.2469977620 0.4103353510 -1 1
-0.2462437360 0.4110821490 -1 1
-0.2451166870 0.4119622200 -1 1
-0.2438076660 0.4128765090 -1 1
-0.2425196860 0.4137191250 -1 1
-0.2414369240 0.4143862260 -1 1
-0.2407014950 0.4147841560 -1 1
-0.2404019840 0.4148387240 -1 1
-0.2405684090 0.4145054180 -1 1
-0.2411695580 0.4137770740 -1 1
-0.2421168870 0.4126854630 -1 1
-0.2432788240 0.4112961900 -1 1
-0.2445018160 0.4096983920 -1 1
-0.2456323390 0.4079917690 -1 1
-0.2465371900 0.4062740370 -1 1
-0.2471201210 0.4046309960 -1 1
-0.2473312070 0.4031292430 -1 1
-0.2471656940 0.4018110530 -1 1
-0.2466535100 0.4006923250 -1 1
-0.2458460690 0.3997649680 -1 1
-0.2448076210 0.3990029300 -1 1
-0.2436132310 0.3983691360 -1 1
-0.2423500590 0.3978210990 -1 1
-0.2411170520 0.3973147050 -1 1
-0.2400200160 0.3968070300 -1 1
-0.2391619890 0.3962595330 -1 1
-0.2386314150 0.3956418670 -1 1
-0.2384911130 0.3949350230 -1 1
-0.2387685480 0.3941331070 -1 1
-0.2394477490 0.3932442640 -1 1
-0.2404679060 0.3922907900 -1 1
-0.2417322410 0.3913074790 -1 1
-0.2431208940 0.3903374290 -1 1
-0.2444998810 0.3894252790 -1 1
-0.2457274560 0.3886091630 -1 1
-0.2466631680 0.3879143760 -1 1
-0.2471814590 0.3873512310 -1 1
-0.2471898560 0.3869164320 -1 1
-0.2466494620 0.3865954430 -1 1
-0.2455896960 0.3863648460 -1 1
-0.2441084420 0.3861952630 -1 1
-0.2423557980 0.3860543090 -1 1
-0.2405071160 0.3859076210 -1 1
-0.2387345420 0.3857182290 -1 1
-0.2371851180 0.3854478270 -1 1
-0.2359677510 0.3850623350 -1 1
-0.2351477740 0.3845392320 -1 1
-0.2347496920 0.3838721320 -1 1
-0.2347675720 0.3830709870 -1 1
-0.2351762180 0.3821598900 -1 1
-0.2359344360 0.3811751390 -1 1
-0.2369782920 0.3801644280 -1 1
-0.2382110310 0.3791858080 -1 1
-0.2395000780 0.3783039070 -1 1
-0.2406882830 0.3775821140 -1 1
-0.2416190780 0.3770718610 -1 1
-0.2421681100 0.3768023460 -1 1
-0.2422711380 0.3767749990 -1 1
-0.2419393470 0.3769650150 -1 1
-0.2412565990 0.3773278020 -1 1
-0.2403590300 0.3778056340 -1 1
-0.2394051500 0.3783322100 -1 1
-0.2385475950 0.3788362230 -1 1
-0.2379121180 0.3792449780 -1 1
-0.2375833940 0.3794882740 -1 1
-0.2375976120 0.3795031170 -1 1
-0.2379432890 0.3792389030 -1 1
-0.2385693580 0.3786613180 -1 1
-0.2393975020 0.3777545020 -1 1
-0.2403366680 0.3765233960 -1 1
-0.2412982660 0.3749978670 -1 1
-0.2422080310 0.3732367760 -1 1
-0.2430098940 0.3713268780 -1 1
-0.2436627310 0.3693731510 -1 1
-0.2441349380 0.3674831440 -1 1
-0.2443990130 0.3657512850 -1 1
-0.2444257140 0.3642469040 -1 1
-0.2441803480 0.3630068540 -1 1
-0.2436266990 0.3620334480 -1 1
-0.2427411090 0.3612984820 -1 1
-0.2415309420 0.3607528560 -1 1
-0.2400455160 0.3603394820 -1 1
-0.2383723400 0.3600058400 -1 1
-0.2366236630 0.3597126050 -1 1
-0.2349222860 0.3594363060 -1 1
-0.2333889920 0.3591656190 -1 1
-0.2321305890 0.3588925330 -1 1
-0.2312302350 0.3586025980 -1 1
-0.2307413480 0.3582701820 -1 1
-0.2306839400 0.3578618060 -1 1
-0.2310435030 0.3573454100 -1 1
-0.2317741640 0.3567007720 -1 1
-0.2328043190 0.3559277900 -1 1
-0.2340388070 0.3550518700 -1 1
-0.2353547630 0.3541254510 -1 1
-0.2365973390 0.3532223600 -1 1
-0.2375869940 0.3524230000 -1 1
-0.2381448550 0.3517946210 -1 1
-0.2381298410 0.3513746110 -1 1
-0.2374722910 0.3511616410 -1 1
-0.2361928590 0.3511148810 -1 1
-0.2344060490 0.3511605420 -1 1
-0.2323112370 0.3512058970 -1 1
-0.2301711850 0.3511592230 -1 1
-0.2282775710 0.3509502000 -1 1
-0.2269068370 0.3505442280 -1 1
-0.2262747850 0.3499473900 -1 1
-0.2265004680 0.3492016640 -1 1
-0.2275870740 0.3483716520 -1 1
-0.2294240430 0.3475268570 -1 1
-0.2318102530 0.3467249210 -1 1
-0.2344889970 0.3459996630 -1 1
-0.2371810330 0.3453564770 -1 1
-0.2396101570 0.3447766700 -1 1
-0.2415253780 0.3442297180 -1 1
-0.2427238720 0.3436892280 -1 1
-0.2430749160 0.3431458390 -1 1
-0.2425420900 0.3426113750 -1 1
-0.2411973000 0.3421137990 -1 1
-0.2392187090 0.3416865730 -1 1
-0.2368681330 0.3413561020 -1 1
-0.2344498150 0.3411308990 -1 1
-0.2322591730 0.3409966120 -1 1
-0.2305343260 0.3409189920 -1 1
-0.2294235780 0.3408525710 -1 1
-0.2289776120 0.3407503050 -1 1
-0.2291643310 0.3405706320 -1 1
-0.2298944930 0.3402810880 -1 1
-0.2310472780 0.3398586620 -1 1
-0.2324913320 0.3392875600 -1 1
-0.2340990210 0.3385565070 -1 1
-0.2357509360 0.3376580000 -1 1
-0.2373313010 0.3365905860 -1 1
-0.2387222180 0.3353644780 -1 1
-0.2398058230 0.3340092400 -1 1
-0.2404756540 0.3325790610 -1 1
-0.2406517970 0.3311505610 -1 1
-0.2402957790 0.3298116300 -1 1
-0.2394232170 0.3286433350 -1 1
-0.2381085720 0.3276995620 -1 1
-0.2364761550 0.3269920440 -1 1
-0.2346811400 0.3264880810 -1 1
-0.2328891800 0.3261217400 -1 1
-0.2312569150 0.3258122340 -1 1
-0.2299137760 0.3254815700 -1 1
-0.2289499220 0.3250671230 -1 1
-0.2284126910 0.3245286810 -1 1
-0.2283089710 0.3238504260 -1 1
-0.2286120240 0.3230379840 -1 1
-0.2292717690 0.3221123720 -1 1
-0.2302240120 0.3211048760 -1 1
-0.2313950820 0.3200553670 -1 1
-0.2327038990 0.3190125550 -1 1
-0.2340643810 0.3180323900 -1 1
-0.2353866200 0.3171721330 -1 1
-0.2365746720 0.3164816530 -1 1
-0.2375237040 0.3159964810 -1 1
-0.2381227190 0.3157352720 -1 1
-0.2382675680 0.3156996150 -1 1
-0.2378823210 0.3158722830 -1 1
-0.2369390120 0.3162127720 -1 1
-0.2354664090 0.3166534880 -1 1
-0.2335488970 0.3171018890 -1 1
-0.2313214580 0.3174511540 -1 1
-0.2289608030 0.3175970030 -1 1
-0.2266692130 0.3174546700 -1 1
-0.2246520630 0.3169705420 -1 1
-0.2230925500 0.3161272180 -1 1
-0.2221257410 0.3149443880 -1 1
-0.2218162120 0.3134767710 -1 1
-0.2221457550 0.3118073240 -1 1
-0.2230133420 0.3100341960 -1 1
-0.2242457620 0.3082542650 -1 1
-0.2256186710 0.3065495880 -1 1
-0.2268872630 0.3049817750 -1 1
-0.2278216960 0.3035936530 -1 1
-0.2282404640 0.3024125070 -1 1
-0.2280358570 0.3014493300 -1 1
-0.2271854730 0.3006939710 -1 1
-0.2257460560 0.3001114450 -1 1
-0.2238362390 0.2996449590 -1 1
-0.2216217350 0.2992265230 -1 1
-0.2193066090 0.2987908920 -1 1
-0.2171213710 0.2982878860 -1 1
-0.2153006870 0.2976903120 -1 1
-0.2140531440 0.2969965020 -1 1
-0.2135302970 0.2962272830 -1 1
-0.2138034830 0.2954182690 -1 1
-0.2148558120 0.2946092920 -1 1
-0.2165902140 0.2938335470 -1 1
-0.2188465220 0.2931095310 -1 1
-0.2214185870 0.2924387030 -1 1
-0.2240688840 0.2918096510 -1 1
-0.2265470340 0.2912063620 -1 1
-0.2286178230 0.2906167720 -1 1
-0.2300928180 0.2900385160 -1 1
-0.2308532610 0.2894804420 -1 1
-0.2308588490 0.2889606000 -1 1
-0.2301464500 0.2885025360 -1 1
-0.2288231280 0.2881312150 -1 1
-0.2270522780 0.2878687520 -1 1
-0.2250315290 0.2877296380 -1 1
-0.2229673010 0.2877158250 -1 1
-0.2210526170 0.2878133740 -1 1
-0.2194499750 0.2879916650 -1 1
-0.2182791540 0.2882043260 -1 1
-0.2176117100 0.2883916210 -1 1
-0.2174719000 0.2884863250 -1 1
-0.2178386750 0.2884242240 -1 1
-0.2186448400 0.2881566800 -1 1
-0.2197776130 0.2876605580 -1 1
-0.2210876660 0.2869420930 -1 1
-0.2224067560 0.2860336810 -1 1
-0.2235672370 0.2849847320 -1 1
-0.2244197520 0.2838497290 -1 1
-0.2248510980 0.2826786950 -1 1
-0.2248009950 0.2815149060 -1 1
-0.2242698270 0.2803998880 -1 1
-0.2233109820 0.2793792440 -1 1
-0.2220104400 0.2785014230 -1 1
-0.2204642130 0.2778074950 -1 1
-0.2187649990 0.2773180610 -1 1
-0.2170028950 0.2770261280 -1 1
-0.2152773160 0.2768999770 -1 1
-0.2137106940 0.2768929650 -1 1
-0.2124499840 0.2769545820 -1 1
-0.2116464240 0.2770389470 -1 1
-0.2114198440 0.2771094150 -1 1
-0.2118269470 0.2771398230 -1 1
-0.2128479520 0.2771142630 -1 1
-0.2143902900 0.2770264910 -1 1
-0.2163009600 0.2768780470 -1 1
-0.2183831100 0.2766745600 -1 1
-0.2204167140 0.2764223600 -1 1
-0.2221818930 0.2761288460 -1 1
-0.2234818890 0.2758066460 -1 1
-0.2241662010 0.2754763710 -1 1
-0.2241541090 0.2751630610 -1 1
-0.2234502450 0.2748879650 -1 1
-0.2221421460 0.2746615870 -1 1
-0.2203808360 0.2744812270 -1 1
-0.2183547490 0.2743318040 -1 1
-0.2162662080 0.2741882730 -1 1
-0.2143134670 0.2740194670 -1 1
-0.2126755010 0.2737932460 -1 1
-0.2114959260 0.2734824030 -1 1
-0.2108676510 0.2730708540 -1 1
-0.2108235680 0.2725584440 -1 1
-0.2113362570 0.2719616780 -1 1
-0.2123257680 0.2713096330 -1 1
-0.2136724010 0.2706368490 -1 1
-0.2152321810 0.2699752130 -1 1
-0.2168549420 0.2693472960 -1 1
-0.2184032360 0.2687646880 -1 1
-0.2197651180 0.2682324010 -1 1
-0.2208557060 0.2677554000 -1 1
-0.2216115730 0.2673419880 -1 1
-0.2219859750 0.2670021050 -1 1
-0.2219487650 0.2667416280 -1 1
-0.2214913290 0.2665550830 -1 1
-0.2206347860 0.2664200740 -1 1
-0.2194359430 0.2662964260 -1 1
-0.2179859170 0.2661306690 -1 1
-0.2164030680 0.2658638660 -1 1
-0.2148243510 0.2654395560 -1 1
-0.2133944790 0.2648096640 -1 1
-0.2122500050 0.2639396490 -1 1
-0.2115001170 0.2628156050 -1 1
-0.2112104260 0.2614522330 -1 1
-0.2113942470 0.2598967450 -1 1
-0.2120114430 0.2582250410 -1 1
-0.2129727570 0.2565305210 -1 1
-0.2141479900 0.2549091220 -1 1
-0.2153781390 0.2534457810 -1 1
-0.2164919340 0.2522065860 -1 1
-0.2173249790 0.2512372250 -1 1
-0.2177389180 0.2505640300 -1 1
-0.2176389630 0.2501936020 -1 1
-0.2169868350 0.2501107930 -1 1
-0.2158056800 0.2502776320 -1 1
-0.2141772060 0.2506350990 -1 1
-0.2122338550 0.2511083670 -1 1
-0.2101468730 0.2516150150 -1 1
-0.2081090360 0.2520745060 -1 1
-0.2063123600 0.2524168460 -1 1
-0.2049242140 0.2525882990 -1 1
-0.2040669190 0.2525525080 -1 1
-0.2038056940 0.2522887890 -1 1
-0.2041464920 0.2517924340 -1 1
-0.2050406360 0.2510785250 -1 1
-0.2063926080 0.2501850180 -1 1
-0.2080705790 0.2491702070 -1 1
-0.2099199490 0.2481038950 -1 1
-0.2117774470 0.2470558460 -1 1
-0.2134823460 0.2460864080 -1 1
-0.2148851070 0.2452417990 -1 1
-0.2158573840 0.2445527900 -1 1
-0.2163045360 0.2440342100 -1 1
-0.2161766100 0.2436845830 -1 1
-0.2154751250 0.2434865990 -1 1
-0.2142572220 0.2434084140 -1 1
-0.2126363420 0.2434059310 -1 1
-0.2107741830 0.2434275640 -1 1
-0.2088616650 0.2434220370 -1 1
-0.2070926880 0.2433467700 -1 1
-0.2056368800 0.2431737470 -1 1
-0.2046177620 0.2428916150 -1 1
-0.2041010090 0.2425042060 -1 1
-0.2040931690 0.2420256150 -1 1
-0.2045485860 0.2414723430 -1 1
-0.2053822340 0.2408548850 -1 1
-0.2064838150 0.2401730860 -1 1
-0.2077262370 0.2394189460 -1 1
-0.2089679080 0.2385864030 -1 1
-0.2100573600 0.2376824930 -1 1
-0.2108478510 0.2367328960 -1 1
-0.2112201110 0.2357790120 -1 1
-0.2111047490 0.2348687670 -1 1
-0.2104971580 0.2340447880 -1 1
-0.2094613380 0.2333335120 -1 1
-0.2081195860 0.2327392260 -1 1
-0.2066283360 0.2322453940 -1 1
-0.2051490790 0.2318211620 -1 1
-0.2038253860 0.2314282790 -1 1
-0.2027686180 0.2310259430 -1 1
-0.2020491830 0.2305755210 -1 1
-0.2016933820 0.2300476430 -1 1
-0.2016882530 0.2294299380 -1 1
-0.2019922250 0.2287309970 -1 1
-0.2025450290 0.2279782220 -1 1
-0.2032731680 0.2272109880 -1 1
-0.2040930100 0.2264722070 -1 1
-0.2049139680 0.2258007300 -1 1
-0.2056409410 0.2252257310 -1 1
-0.2061769300 0.2247638570 -1 1
-0.2064315870 0.2244197940 -1 1
-0.2063376770 0.2241888840 -1 1
-0.2058684710 0.2240580180 -1 1
-0.2050495080 0.2240028680 -1 1
-0.2039644520 0.2239852200 -1 1
-0.2027535960 0.2239564540 -1 1
-0.2015994870 0.2238679570 -1 1
-0.2006983920 0.2236822970 -1 1
-0.2002245050 0.2233784620 -1 1
-0.2002978050 0.2229499270 -1 1
-0.2009663580 0.2223988680 -1 1
-0.2022088350 0.2217305460 -1 1
-0.2039517260 0.2209508480 -1 1
-0.2060886470 0.2200678250 -1 1
-0.2084937750 0.2190947250 -1 1
-0.2110292880 0.2180508390 -1 1
-0.2135502540 0.2169597940 -1 1
-0.2159096720 0.2158484340 -1 1
-0.2179645060 0.2147482870 -1 1
-0.2195837710 0.2136968230 -1 1
-0.2206600850 0.2127338790 -1 1
-0.2211234440 0.2118930030 -1 1
-0.2209534160 0.2111924610 -1 1
-0.2201858430 0.2106311230 -1 1
-0.2189115740 0.2101913370 -1 1
-0.2172677750 0.2098461610 -1 1
-0.2154240420 0.2095651880 -1 1
-0.2135627210 0.2093157280 -1 1
-0.2118528420 0.2090618620 -1 1
-0.2104249190 0.2087657960 -1 1
-0.2093573610 0.2083927150 -1 1
-0.2086768550 0.2079168670 -1 1
-0.2083660750 0.2073260130 -1 1
-0.2083717340 0.2066232720 -1 1
-0.2086113260 0.2058276830 -1 1
-0.2089811490 0.2049750020 -1 1
-0.2093672960 0.2041178880 -1 1
-0.2096576870 0.2033223090 -1 1
-0.2097526210 0.2026575380 -1 1
-0.2095730130 0.2021809720 -1 1
-0.2090655580 0.2019238570 -1 1
-0.2082040110 0.2018855170 -1 1
-0.2069897470 0.2020388440 -1 1
-0.2054572540 0.2023415190 -1 1
-0.2036831340 0.2027441670 -1 1
-0.2017880260 0.2031920320 -1 1
-0.1999239530 0.2036238430 -1 1
-0.1982523810 0.2039725800 -1 1
-0.1969251090 0.2041698520 -1 1
-0.1960734220 0.2041538480 -1 1
-0.1958002370 0.2038798150 -1 1
-0.1961685530 0.2033294460 -1 1
-0.1971876190 0.2025139400 -1 1
-0.1988036760 0.2014685800 -1 1
-0.2008996000 0.2002423440 -1 1
-0.2033034120 0.1988886000 -1 1
-0.2058044210 0.1974601380 -1 1
-0.2081754930 0.1960077570 -1 1
-0.2101973470 0.1945800690 -1 1
-0.2116803020 0.1932231900 -1 1
-0.2124828850 0.1919804830 -1 1
-0.2125276630 0.1908930380 -1 1
-0.2118103950 0.1900006370 -1 1
-0.2103979670 0.1893414110 -1 1
-0.2084158710 0.1889477860 -1 1
-0.2060309780 0.1888377660 -1 1
-0.2034346840 0.1890038190 -1 1
-0.2008267770 0.1894045550 -1 1
-0.1983982850 0.1899644570 -1 1
-0.1963141810 0.1905828870 -1 1
-0.1946993430 0.1911487580 -1 1
-0.1936305300 0.1915562090 -1 1
-0.1931344860 0.1917190770 -1 1
-0.1931900070 0.1915831470 -1 1
-0.1937316070 0.1911335030 -1 1
-0.1946541420 0.1903941240 -1 1
-0.1958196870 0.1894201030 -1 1
-0.1970689680 0.1882859380 -1 1
-0.1982388550 0.1870731080 -1 1
-0.1991833970 0.1858582950 -1 1
-0.1997914500 0.1847029040 -1 1
-0.1999955190 0.1836455780 -1 1
-0.1997737280 0.1826999290 -1 1
-0.1991506700 0.1818577060 -1 1
-0.1981990900 0.1810945270 -1 1
-0.1970387650 0.1803749130 -1 1
-0.1958279270 0.1796561050 -1 1
-0.1947457320 0.1788925180 -1 1
-0.1939689140 0.1780421350 -1 1
-0.1936478550 0.1770742820 -1 1
-0.1938859770 0.1759769680 -1 1
-0.1947261700 0.1747619310 -1 1
-0.1961480280 0.1734655320 -1 1
-0.1980750030 0.1721438580 -1 1
-0.2003857770 0.1708625540 -1 1
-0.2029259810 0.1696851780 -1 1
-0.2055207450 0.1686645500 -1 1
-0.2079892040 0.1678386170 -1 1
-0.2101601450 0.1672289580 -1 1
-0.2118872140 0.1668399560 -1 1
-0.2130618450 0.1666588480 -1 1
-0.2136214520 0.1666576040 -1 1
-0.2135506910 0.1667962610 -1 1
-0.2128768180 0.1670264280 -1 1
-0.2116639590 0.1672946380 -1 1
-0.2100100450 0.1675462180 -1 1
-0.2080447220 0.1677296370 -1 1
-0.2059229370 0.1678003660 -1 1
-0.2038091720 0.1677239760 -1 1
-0.2018524490 0.1674794340 -1 1
-0.2001616740 0.1670625940 -1 1
-0.1987951530 0.1664871030 -1 1
-0.1977687340 0.1657798510 -1 1
-0.1970725240 0.1649727910 -1 1
-0.1966818830 0.1640968500 -1 1
-0.1965571210 0.1631813750 -1 1
-0.1966361330 0.1622568310 -1 1
-0.1968269260 0.1613554060 -1 1
-0.1970068350 0.1605061500 -1 1
-0.1970345750 0.1597261020 -1 1
-0.1967739450 0.1590125210 -1 1
-0.1961184050 0.1583411600 -1 1
-0.1950080400 0.1576724120 -1 1
-0.1934405780 0.1569628990 -1 1
-0.1914794800 0.1561770720 -1 1
-0.1892546530 0.1552936960 -1 1
-0.1869486180 0.1543055260 -1 1
-0.1847676140 0.1532145180 -1 1
-0.1829067980 0.1520268220 -1 1
-0.1815225790 0.1507504910 -1 1
-0.1807198190 0.1493959660 -1 1
-0.1805520830 0.1479781080 -1 1
-0.1810267020 0.1465189460 -1 1
-0.1821074450 0.1450504330 -1 1
-0.1837147140 0.1436158400 -1 1
-0.1857283300 0.1422681380 -1 1
-0.1879958750 0.1410651190 -1 1
-0.1903455340 0.1400625730 -1 1
-0.1926023640 0.1393069230 -1 1
-0.1946074420 0.1388286420 -1 1
-0.1962361510 0.1386383610 -1 1
-0.1974086750 0.1387273870 -1 1
-0.1980885180 0.1390723290 -1 1
-0.1982726670 0.1396401560 -1 1
-0.1979818370 0.1403889110 -1 1
-0.1972563800 0.1412646530 -1 1
-0.1961578200 0.1422004220 -1 1
-0.1947732060 0.1431202990 -1 1
-0.1932180560 0.1439459770 -1 1
-0.1916333980 0.1446031920 -1 1
-0.1901745840 0.1450278990 -1 1
-0.1889918270 0.1451720040 -1 1
-0.1882054120 0.1450078400 -1 1
-0.1878827340 0.1445315430 -1 1
-0.1880246820 0.1437649670 -1 1
-0.1885645710 0.1427537010 -1 1
-0.1893793580 0.1415596030 -1 1
-0.1903103440 0.1402502880 -1 1
-0.1911872830 0.1388897790 -1 1
-0.1918497540 0.1375326300 -1 1
-0.1921648320 0.1362211810 -1 1
-0.1920431780 0.1349849630 -1 1
-0.1914522800 0.1338420570 -1 1
-0.1904211730 0.1328020620 -1 1
-0.1890325690 0.1318693500 -1 1
-0.1874059750 0.1310450100 -1 1
-0.1856806390 0.1303265030 -1 1
-0.1840040860 0.1297053380 -1 1
-0.1825258250 0.1291638030 -1 1
-0.1813928070 0.1286716700 -1 1
-0.1807424550 0.1281848740 -1 1
-0.1806896490 0.1276501790 -1 1
-0.1813065800 0.1270176760 -1 1
-0.1825992810 0.1262562590 -1 1
-0.1844914200 0.1253632030 -1 1
-0.1868276520 0.1243623320 -1 1
-0.1893989030 0.1232935590 -1 1
-0.1919769820 0.1222023820 -1 1
-0.1943412510 0.1211353830 -1 1
-0.1962905880 0.1201397190 -1 1
-0.1976486830 0.1192602800 -1 1
-0.1982746110 0.1185320510 -1 1
-0.1980812820 0.1179715890 -1 1
-0.1970542640 0.1175730340 -1 1
-0.1952618500 0.1173108380 -1 1
-0.1928518880 0.1171474690 -1 1
-0.1900361930 0.1170421720 -1 1
-0.1870655280 0.1169573260 -1 1
-0.1841988740 0.1168612260 -1 1
-0.1816732100 0.1167282810 -1 1
-0.1796809650 0.1165376900 -1 1
-0.1783570260 0.1162703880 -1 1
-0.1777708160 0.1159047880 -1 1
-0.1779193930 0.1154146350 -1 1
-0.1787233810 0.1147720610 -1 1
-0.1800307690 0.1139549300 -1 1
-0.1816324470 0.1129555220 -1 1
-0.1832897690 0.1117882550 -1 1
-0.1847678980 0.1104942390 -1 1
-0.1858641670 0.1091400130 -1 1
-0.1864258250 0.1078095920 -1 1
-0.1863609630 0.1065914670 -1 1
-0.1856477580 0.1055633710 -1 1
-0.1843400890 0.1047777870 -1 1
-0.1825639710 0.1042514920 -1 1
-0.1805032220 0.1039622750 -1 1
-0.1783771080 0.1038540280 -1 1
-0.1764137610 0.1038477530 -1 1
-0.1748226150 0.1038548640 -1 1
-0.1737685650 0.1037911630 -1 1
-0.1733515080 0.1035899740 -1 1
-0.1735962400 0.1032103490 -1 1
-0.1744555660 0.1026367130 -1 1
-0.1758249090 0.1018715700 -1 1
-0.1775628800 0.1009276830 -1 1
-0.1795111290 0.0998256340 -1 1
-0.1815081470 0.0985977550 -1 1
-0.1833947790 0.0972939970 -1 1
-0.1850147900 0.0959832940 -1 1
-0.1862194250 0.0947475010 -1 1
-0.1868830880 0.0936706550 -1 1
-0.1869264380 0.0928278910 -1 1
-0.1863337280 0.0922760230 -1 1
-0.1851539330 0.0920458090 -1 1
-0.1834871020 0.0921360960 -1 1
-0.1814657610 0.0925114040 -1 1
-0.1792397180 0.0931047980 -1 1
-0.1769659790 0.0938252510 -1 1
-0.1748015120 0.0945661730 -1 1
-0.1728962700 0.0952130570 -1 1
-0.1713839210 0.0956512490 -1 1
-0.1703693430 0.0957759340 -1 1
-0.1699154780 0.0955050350 -1 1
-0.1700325070 0.0947931150 -1 1
-0.1706703540 0.0936414120 -1 1
-0.1717174090 0.0920998090 -1 1
-0.1730107170 0.0902613710 -1 1
-0.1743583900 0.0882524570 -1 1
-0.1755673750 0.0862185730 -1 1
-0.1764685460 0.0843048420 -1 1
-0.1769358050 0.0826342750 -1 1
-0.1768981540 0.0812907260 -1 1
-0.1763440470 0.0803113050 -1 1
-0.1753195940 0.0796881510 -1 1
-0.1739233120 0.0793769940 -1 1
-0.1722980840 0.0793099070 -1 1
-0.1706184660 0.0794084800 -1 1
-0.1690714670 0.0795932270 -1 1
-0.1678323560 0.0797888010 -1 1
-0.1670410040 0.0799285290 -1 1
-0.1667849540 0.0799603780 -1 1
-0.1670931910 0.0798526870 -1 1
-0.1679420400 0.0795971760 -1 1
-0.1692707240 0.0792086180 -1 1
-0.1709970960 0.0787214410 -1 1
-0.1730219330 0.0781827280 -1 1
-0.1752208380 0.0776415910 -1 1
-0.1774357800 0.0771371750 -1 1
-0.1794783930 0.0766893570 -1 1
-0.1811475720 0.0762954570 -1 1
-0.1822564380 0.0759332330 -1 1
-0.1826611500 0.0755676090 -1 1
-0.1822840330 0.0751581720 -1 1
-0.1811251880 0.0746661940 -1 1
-0.1792608450 0.0740611440 -1 1
-0.1768313640 0.0733263920 -1 1
-0.1740229950 0.0724630110 -1 1
-0.1710467660 0.0714904200 -1 1
-0.1681188980 0.0704432470 -1 1
-0.1654461100 0.0693651370 -1 1
-0.1632138460 0.0683011690 -1 1
-0.1615728590 0.0672901430 -1 1
-0.1606244390 0.0663580580 -1 1
-0.1604100300 0.0655156580 -1 1
-0.1609086260 0.0647624140 -1 1
-0.1620392020 0.0640952430 -1 1
-0.1636644050 0.0635170170 -1 1
-0.1655959050 0.0630402490 -1 1
-0.1676057800 0.0626838070 -1 1
-0.1694484350 0.0624641460 -1 1
-0.1708926660 0.0623855200 -1 1
-0.1717566310 0.0624338610 -1 1
-0.1719358720 0.0625765450 -1 1
-0.1714171630 0.0627675480 -1 1
-0.1702755770 0.0629558220 -1 1
-0.1686568070 0.0630940630 -1 1
-0.1667503710 0.0631456770 -1 1
-0.1647611090 0.0630888700 -1 1
-0.1628847950 0.0629172120 -1 1
-0.1612901300 0.0626363440 -1 1
-0.1601073000 0.0622575630 -1 1
-0.1594227110 0.0617905400 -1 1
-0.1592783800 0.0612383240 -1 1
-0.1596735490 0.0605968750 -1 1
-0.1605664370 0.0598589370 -1 1
-0.1618750520 0.0590196010 -1 1
-0.1634790850 0.0580801300 -1 1
-0.1652274750 0.0570483630 -1 1
-0.1669536630 0.0559376240 -1 1
-0.1684954420 0.0547679930 -1 1
-0.1697139140 0.0535715360 -1 1
-0.1705068930 0.0523982580 -1 1
-0.1708147920 0.0513165990 -1 1
-0.1706202420 0.0504046870 -1 1
-0.1699452380 0.0497346220 -1 1
-0.1688490030 0.0493557720 -1 1
-0.1674248930 0.0492820040 -1 1
-0.1657907250 0.0494859680 -1 1
-0.1640711760 0.0499029050 -1 1
-0.1623800040 0.0504433870 -1 1
-0.1608114530 0.0510091380 -1 1
-0.1594409140 0.0515054710 -1 1
-0.1583276460 0.0518496180 -1 1
-0.1575148130 0.0519786500 -1 1
-0.1570271200 0.0518588550 -1 1
-0.1568688460 0.0514935200 -1 1
-0.1570264880 0.0509233660 -1 1
-0.1574765950 0.0502166110 -1 1
-0.1581915750 0.0494521060 -1 1
-0.1591350410 0.0487031200 -1 1
-0.1602477430 0.0480268770 -1 1
-0.1614356430 0.0474596070 -1 1
-0.1625722000 0.0470148660 -1 1
-0.1635180700 0.0466843320 -1 1
-0.1641513690 0.0464409890 -1 1
-0.1643952400 0.0462438640 -1 1
-0.1642303450 0.0460440540 -1 1
-0.1636895660 0.0457925320 -1 1
-0.1628432710 0.0454483690 -1 1
-0.1617856300 0.0449834530 -1 1
-0.1606248910 0.0443812140 -1 1
-0.1594733570 0.0436312190 -1 1
-0.1584343990 0.0427240310 -1 1
-0.1575893850 0.0416497390 -1 1
-0.1569889650 0.0404018160 -1 1
-0.1566504050 0.0389861130 -1 1
-0.1565585780 0.0374313700 -1 1
-0.1566674770 0.0357945280 -1 1
-0.1569030240 0.0341562280 -1 1
-0.1571710810 0.0326083050 -1 1
-0.1573727010 0.0312387300 -1 1
-0.1574233270 0.0301180220 -1 1
-0.1572694070 0.0292889650 -1 0
-0.1568986600 0.0287607090 -1 0
-0.1563439370 0.0285077540 -1 0
-0.1556796580 0.0284734020 -1 0
-0.1550086710 0.0285768820 -1 0
-0.1544418690 0.0287242150 -1 0
-0.1540787570 0.0288228070 -1 0
-0.1539956000 0.0287968830 -1 0
-0.1542406810 0.0285979820 -1 0
-0.1548331010 0.0282063600 -1 0
-0.1557630220 0.0276250260 -1 0
-0.1569914280 0.0268727560 -1 0
-0.1584486490 0.0259809820 -1 0
-0.1600349130 0.0249935720 -1 0
-0.1616262510 0.0239653090 -1 0
-0.1630841770 0.0229575990 -1 0
-0.1642664310 0.0220327330 -1 0
-0.1650395190 0.0212475880 -1 0
-0.1652947900 0.0206467930 -1 0
-0.1649662920 0.0202559210 -1 0
-0.1640448330 0.0200757210 -1 0
-0.1625826340 0.0200791920 -1 0
-0.1606878370 0.0202140580 -1 0
-0.1585128280 0.0204113650 -1 0
-0.1562392260 0.0205970940 -1 0
-0.1540581710 0.0207024820 -1 0
-0.1521457070 0.0206708130 -1 0
-0.1506398410 0.0204610250 -1 0
-0.1496284410 0.0200495270 -1 0
-0.1491497260 0.0194311270 -1 0
-0.1491977740 0.0186192940 -1 0
-0.1497258210 0.0176456210 -1 0
-0.1506480670 0.0165581430 -1 0
-0.1518447890 0.0154179510 -1 0
-0.1531723430 0.0142935840 -1 0
-0.1544756750 0.0132531740 -1 0
-0.1556014900 0.0123560390 -1 0
-0.1564120970 0.0116464450 -1 0
-0.1567989400 0.0111509640 -1 0
-0.1566931620 0.0108784490 -1 0
-0.1560710170 0.0108201040 -1 0
-0.1549549450 0.0109483540 -1 0
-0.1534131680 0.0112169880 -1 0
-0.1515579620 0.0115664170 -1 0
-0.1495390610 0.0119337350 -1 0
-0.1475303750 0.0122629230 -1 0
-0.1457124730 0.0125110430 -1 0
-0.1442541410 0.0126493490 -1 0
-0.1432947510 0.0126607620 -1 0
-0.1429291410 0.0125370410 -1 0
-0.1431982570 0.0122792530 -1 0
-0.1440879540 0.0119016380 -1 0
-0.1455345930 0.0114345430 -1 0
-0.1474334540 0.0109229350 -1 0
-0.1496461930 0.0104219920 -1 0
-0.1520066270 0.0099924730 -1 0
-0.1543282070 0.0096954910 -1 0
-0.1564168790 0.0095855090 -1 0
-0.1580896580 0.0097030300 -1 0
-0.1591955820 0.0100687500 -1 0
-0.1596330750 0.0106782890 -1 0
-0.1593577420 0.0114963990 -1 0
-0.1583790910 0.0124529410 -1 0
-0.1567506030 0.0134445940 -1 0
-0.1545598040 0.0143440080 -1 0
-0.1519216550 0.0150146940 -1 0
-0.1489731920 0.0153277480 -1 0
-0.1458653890 0.0151761940 -1 0
-0.1427513590 0.0144843230 -1 0
-0.1397731970 0.0132114620 -1 0
-0.1370503100 0.0113510410 -1 0
-0.1346724140 0.0089266820 -1 0
-0.1326983800 0.0059872480 -1 0
-0.1311552590 0.0026018410 -1 0
-0.1300305910 -0.0011464970 -1 0
-0.1292613490 -0.0051703030 -1 0
-0.1287309510 -0.0093886850 -1 0
-0.1282819470 -0.0137335380 -1 0
-0.1277428710 -0.0181465520 -1 0
-0.1269604120 -0.0225702010 -1 0
-0.1258253750 -0.0269408050 -1 0
-0.1242853650 -0.0311888480 -1 -1
-0.1223456280 -0.0352457960 -1 -1
-0.1200633330 -0.0390536900 -1 -1
-0.1175379310 -0.0425740350 -1 -1
-0.1148970650 -0.0457937310 -1 -1
-0.1122778990 -0.0487268660 -1 -1
-0.1098075090 -0.0514117870 -1 -1
-0.1075881480 -0.0539045100 -1 -1
-0.1056888270 -0.0562715060 -1 -1
-0.1041398230 -0.0585840720 -1 -1
-0.1029305310 -0.0609132520 -1 -1
-0.1020165360 -0.0633229550 -1 -1
-0.1013374500 -0.0658612310 -1 -1
-0.1008371670 -0.0685520290 -1 -1
-0.1004750870 -0.0713896450 -1 -1
-0.1002237700 -0.0743373330 -1 -1
-0.1000582200 -0.0773318610 -1 -1
-0.0999466820 -0.0802949230 -1 -1
-0.0998502420 -0.0831482260 -1 -1
-0.0997311390 -0.0858263980 -1 -1
-0.0995632050 -0.0882846660 -1 -1
-0.0993388660 -0.0905029280 -1 -1
-0.0990723020 -0.0924884020 -1 -1
-0.0987989870 -0.0942756190 -1 -1
-0.0985699850 -0.0959206990 -1 -1
-0.0984418040 -0.0974893730 -1 -1
-0.0984663370 -0.0990417870 -1 -1
-0.0986846050 -0.1006186630 -1 -1
-0.0991236890 -0.1022336620 -1 -1
-0.0997940800 -0.1038753100 -1 -1
-0.1006867810 -0.1055168830 -1 -1
-0.1017716790 -0.1071265450 -1 -1
-0.1029970420 -0.1086697360 -1 -1
-0.1042891700 -0.1101038280 -1 -1
-0.1055553950 -0.1113738030 -1 -1
-0.1066951100 -0.1124172210 -1 -1
-0.1076166540 -0.1131776850 -1 -1
-0.1082509700 -0.1136189590 -1 -1
-0.1085552810 -0.1137330940 -1 -1
-0.1085080420 -0.1135406070 -1 -1
-0.1081013230 -0.1130843340 -1 -1
-0.1073366300 -0.1124211240 -1 -1
-0.1062272100 -0.1116158310 -1 -1
-0.1048060340 -0.1107386900 -1 -1
-0.1031351050 -0.1098635800 -1 -1
-0.1013095910 -0.1090650500 -1 -1
-0.0994523580 -0.1084144130 -1 -1
-0.0976998610 -0.1079754260 -1 -1
-0.0961837580 -0.1077994100 -1 -1
-0.0950119340 -0.1079206620 -1 -1
-0.0942508810 -0.1083537130 -1 -1
-0.0939120070 -0.1090928200 -1 -1
-0.0939470490 -0.1101129070 -1 -1
-0.0942566840 -0.1113713520 -1 -1
-0.0947093330 -0.1128105250 -1 -1
-0.0951621120 -0.1143611190 -1 -1
-0.0954785710 -0.1159469080 -1 -1
-0.0955432860 -0.1174921090 -1 -1
-0.0952749080 -0.1189309730 -1 -1
-0.0946376180 -0.1202163700 -1 -1
-0.0936483500 -0.1213237960 -1 -1
-0.0923750770 -0.1222501500 -1 -1
-0.0909244770 -0.1230093230 -1 -1
-0.0894248670 -0.1236264620 -1 -1
-0.0880113930 -0.1241315390 -1 -1
-0.0868133470 -0.1245530720 -1 -1
-0.0859407000 -0.1249136630 -1 -1
-0.0854716170 -0.1252278630 -1 -1
-0.0854453430 -0.1255015810 -1 -1
-0.0858613890 -0.1257328920 -1 -1
-0.0866814100 -0.1259145490 -1 -1
-0.0878313760 -0.1260376140 -1 -1
-0.0892061720 -0.1260950840 -1 -1
-0.0906777400 -0.1260849370 -1 -1
-0.0921044220 -0.1260127640 -1 -1
-0.0933413020 -0.1258936470 -1 -1
-0.0942538250 -0.1257522080 -1 -1
-0.0947333830 -0.1256203130 -1 -1
-0.0947100700 -0.1255329240 -1 -1
-0.0941595370 -0.1255227470 -1 -1
-0.0931041360 -0.1256149120 -1 -1
-0.0916096530 -0.1258239600 -1 -1
-0.0897790960 -0.1261545090 -1 -1
-0.0877446170 -0.1266041280 -1 -1
-0.0856572570 -0.1271656570 -1 -1
-0.0836733250 -0.1278278280 -1 -1
-0.0819378840 -0.1285750540 -1 -1
-0.0805685560 -0.1293873700 -1 -1
-0.0796426390 -0.1302407570 -1 -1
-0.0791885610 -0.1311080680 -1 -1
-0.0791826840 -0.1319607430 -1 -1
-0.0795517440 -0.1327712720 -1 -1
-0.0801800200 -0.1335160870 -1 -1
-0.0809227870 -0.1341777770 -1 -1
-0.0816281940 -0.1347453080 -1 -1
-0.0821634430 -0.1352124320 -1 -1
-0.0824356330 -0.1355759160 -1 -1
-0.0824002930 -0.1358354640 -1 -1
-0.0820590200 -0.1359966260 -1 -1
-0.0814522520 -0.1360758240 -1 -1
-0.0806501220 -0.1361036440 -1 -1
-0.0797410790 -0.1361220910 -1 -1
-0.0788189350 -0.1361752520 -1 -1
-0.0779707670 -0.1362981450 -1 -1
-0.0772689050 -0.1365105540 -1 -1
-0.0767696610 -0.1368194930 -1 -1
-0.0765170390 -0.1372275630 -1 -1
-0.0765442960 -0.1377400630 -1 -1
-0.0768676770 -0.1383654960 -1 -1
-0.0774757800 -0.1391105290 -1 -1
-0.0783247830 -0.1399742380 -1 -1
-0.0793448140 -0.1409448960 -1 -1
-0.0804524160 -0.1419998480 -1 -1
-0.0815618610 -0.1431075890 -1 -1
-0.0825931420 -0.1442306470 -1 -1
-0.0834768030 -0.1453282280 -1 -1
-0.0841562090 -0.1463587620 -1 -1
-0.0845901580 -0.1472829740 -1 -1
-0.0847580080 -0.1480672270 -1 -1
-0.0846641930 -0.1486866130 -1 -1
-0.0843369470 -0.1491277540 -1 -1
-0.0838212110 -0.1493910210 -1 -1
-0.0831722020 -0.1494913330 -1 -1
-0.0824562510 -0.1494571680 -1 -1
-0.0817575110 -0.1493283410 -1 -1
-0.0811813940 -0.1491537570 -1 -1
-0.0808473350 -0.1489894050 -1 -1
-0.0808709880 -0.1488940770 -1 -1
-0.0813397210 -0.1489197500 -1 -1
-0.0822867590 -0.1490989710 -1 -1
-0.0836721810 -0.1494376900 -1 -1
-0.0853793650 -0.1499191330 -1 -1
-0.0872300960 -0.1505140650 -1 -1
-0.0890145420 -0.1511876100 -1 -1
-0.0905280170 -0.1518996400 -1 -1
-0.0916041840 -0.1526047690 -1 -1
-0.0921353590 -0.1532574490 -1 -1
-0.0920765150 -0.1538211840 -1 -1
-0.0914361580 -0.1542774460 -1 -1
-0.0902610760 -0.1546298670 -1 -1
-0.0886231670 -0.1549011180 -1 -1
-0.0866133040 -0.1551240490 -1 -1
-0.0843411730 -0.1553323240 -1 -1
-0.0819374010 -0.1555547700 -1 -1
-0.0795541810 -0.1558135260 -1 -1
-0.0773595220 -0.1561239880 -1 -1
-0.0755218020 -0.1564961130 -1 -1
-0.0741865890 -0.1569375060 -1 -1
-0.0734524080 -0.1574572140 -1 -1
-0.0733532280 -0.1580680280 -1 -1
-0.0738522770 -0.1587850210 -1 -1
-0.0748472980 -0.1596190850 -1 -1
-0.0761857650 -0.1605678170 -1 -1
-0.0776880180 -0.1616091780 -1 -1
-0.0791731470 -0.1627013640 -1 -1
-0.0804797530 -0.1637881790 -1 -1
-0.0814767720 -0.1648076390 -1 -1
-0.0820668270 -0.1657018710 -1 -1
-0.0821878200 -0.1664261210 -1 -1
-0.0818157290 -0.1669542240 -1 -1
-0.0809676620 -0.1672793640 -1 -1
-0.0797013390 -0.1674120680 -1 -1
-0.0781073470 -0.1673786990 -1 -1
-0.0762959770 -0.1672214060 -1 -1
-0.0743853740 -0.1669969360 -1 -1
-0.0724946320 -0.1667716780 -1 -1
-0.0707386000 -0.1666137810 -1 -1
-0.0692200270 -0.1665856270 -1 -1
-0.0680192370 -0.1667383840 -1 -1
-0.0671847990 -0.1671071670 -1 -1
-0.0667279240 -0.1677049970 -1 -1
-0.0666207410 -0.1685157660 -1 -1
-0.0667976670 -0.1694890830 -1 -1
-0.0671611690 -0.1705419190 -1 -1
-0.0675943390 -0.1715692640 -1 -1
-0.0679807080 -0.1724588200 -1 -1
-0.0682278590 -0.1731027330 -1 -1
-0.0682873780 -0.1734047910 -1 -1
-0.0681626350 -0.1732856450 -1 -1
-0.0679017540 -0.1726881280 -1 -1
-0.0675823540 -0.1715828190 -1 -1
-0.0672980020 -0.1699719020 -1 -1
-0.0671509520 -0.1678890810 -1 -1
-0.0672482610 -0.1653949750 -1 -1
-0.0676950800 -0.1625683850 -1 -1
-0.0685814690 -0.1594947610 -1 -1
-0.0699665210 -0.1562553110 -1 -1
-0.0718684470 -0.1529207520 -1 -1
-0.0742639860 -0.1495506530 -1 -1
-0.0770925540 -0.1461953200 -1 -1
-0.0802596790 -0.1428959290 -1 -1
-0.0836383970 -0.1396811090 -1 -1
-0.0870714420 -0.1365622630 -1 -1
-0.0903794720 -0.1335316230 -1 -1
-0.0933777690 -0.1305652700 -1 -1
-0.0958962790 -0.1276305620 -1 -1
-0.0977959750 -0.1246951940 -1 -1
-0.0989809620 -0.1217341940 -1 -1
-0.0994095260 -0.1187324670 -1 -1
-0.0991030300 -0.1156833080 -1 -1
-0.0981464920 -0.1125852490 -1 -1
-0.0966781470 -0.1094399570 -1 -1
-0.0948736490 -0.1062527830 -1 -1
-0.0929313240 -0.1030351560 -1 -1
-0.0910577700 -0.0998058400 -1 -1
-0.0894499540 -0.0965892210 -1 -1
-0.0882749230 -0.0934125870 -1 -1
-0.0876541430 -0.0903052680 -1 -1
-0.0876582040 -0.0872988790 -1 -1
-0.0883084550 -0.0844258020 -1 -1
-0.0895767260 -0.0817155070 -1 -1
-0.0913813240 -0.0791906490 -1 -1
-0.0935868820 -0.0768645920 -1 -1
-0.0960149940 -0.0747409040 -1 -1
-0.0984647220 -0.0728148230 -1 -1
-0.1007361170 -0.0710760300 -1 -1
-0.1026508150 -0.0695117560 -1 -1
-0.1040676170 -0.0681093050 -1 -1
-0.1048916630 -0.0668574830 -1 -1
-0.1050762030 -0.0657473080 -1 -1
-0.1046203930 -0.0647731980 -1 -1
-0.1035689660 -0.0639358070 -1 -1
-0.1020159420 -0.0632457480 -1 -1
-0.1001096330 -0.0627237910 -1 -1
-0.0980525970 -0.0623931930 -1 -1
-0.0960884030 -0.0622662990 -1 -1
-0.0944707530 -0.0623338540 -1 -1
-0.0934199780 -0.0625641440 -1 -1
-0.0930806910 -0.0629120650 -1 -1
-0.0934947150 -0.0633320890 -1 -1
-0.0945956090 -0.0637881110 -1 -1
-0.0962237650 -0.0642572530 -1 -1
-0.0981569180 -0.0647294100 -1 -1
-0.1001475420 -0.0652048470 -1 -1
-0.1019585880 -0.0656902270 -1 -1
-0.1033925900 -0.0661931420 -1 -1
-0.1043118100 -0.0667164620 -1 -1
-0.1046482680 -0.0672545250 -1 -1
-0.1044032380 -0.0677925140 -1 -1
-0.1036368000 -0.0683089250 -1 -1
-0.1024506780 -0.0687806810 -1 -1
-0.1009698440 -0.0691911470 -1 -1
-0.0993271710 -0.0695398780 -1 -1
-0.0976528100 -0.0698500810 -1 -1
-0.0960684740 -0.0701698930 -1 -1
-0.0946852200 -0.0705667850 -1 -1
-0.0936010300 -0.0711163230 -1 -1
-0.0928949390 -0.0718868490 -1 -1
-0.0926184300 -0.0729232700 -1 -1
-0.0927866940 -0.0742349140 -1 -1
-0.0933714790 -0.0757912900 -1 -1
-0.0942986650 -0.0775266740 -1 -1
-0.0954547440 -0.0793524520 -1 -1
-0.0967026610 -0.0811735810 -1 -1
-0.0979015540 -0.0829029430 -1 -1
-0.0989215790 -0.0844691260 -1 -1
-0.0996489440 -0.0858187920 -1 -1
-0.0999868570 -0.0869179090 -1 -1
-0.0998625120 -0.0877535800 -1 -1
-0.0992410180 -0.0883342910 -1 -1
-0.0981369900 -0.0886860040 -1 -1
-0.0966163030 -0.0888440140 -1 -1
-0.0947886740 -0.0888436910 -1 -1
-0.0927965140 -0.0887152370 -1 -1
-0.0908054450 -0.0884859400 -1 -1
-0.0889971520 -0.0881880380 -1 -1
-0.0875585940 -0.0878658130 -1 -1
-0.0866615810 -0.0875764930 -1 -1
-0.0864341170 -0.0873839410 -1 -1
-0.0869312790 -0.0873475680 -1 -1
-0.0881156730 -0.0875106700 -1 -1
-0.0898562200 -0.0878928430 -1 -1
-0.0919480010 -0.0884893140 -1 -1
-0.0941476330 -0.0892758050 -1 -1
-0.0962141270 -0.0902144710 -1 -1
-0.0979450970 -0.0912583860 -1 -1
-0.0991995450 -0.0923562800 -1 -1
-0.0999024880 -0.0934588440 -1 -1
-0.1000352150 -0.0945239360 -1 -1
-0.0996222820 -0.0955175040 -1 -1
-0.0987237380 -0.0964112570 -1 -1
-0.0974302280 -0.0971808910 -1 -1
-0.0958530320 -0.0978075230 -1 -1
-0.0941080650 -0.0982826180 -1 -1
-0.0923027430 -0.0986145320 -1 -1
-0.0905340880 -0.0988324650 -1 -1
-0.0888953930 -0.0989839970 -1 -1
-0.0874803070 -0.0991259280 -1 -1
-0.0863770510 -0.0993117790 -1 -1
-0.0856554520 -0.0995804850 -1 -1
-0.0853537310 -0.0999494930 -1 -1
-0.0854693010 -0.1004132480 -1 -1
-0.0859543700 -0.1009464620 -1 -1
-0.0867168150 -0.1015111430 -1 -1
-0.0876298250 -0.1020665110 -1 -1
-0.0885528280 -0.1025803440 -1 -1
-0.0893569390 -0.1030377110 -1 -1
-0.0899430100 -0.1034420170 -1 -1
-0.0902477430 -0.1038073850 -1 -1
-0.0902412440 -0.1041472560 -1 -1
-0.0899205420 -0.1044654330 -1 -1
-0.0893045350 -0.1047532000 -1 -1
-0.0884352810 -0.1049932070 -1 -1
-0.0873827310 -0.1051681290 -1 -1
-0.0862440610 -0.1052699930 -1 -1
-0.0851349800 -0.1053065350 -1 -1
-0.0841782300 -0.1053028920 -1 -1
-0.0834925450 -0.1052981230 -1 -1
-0.0831812400 -0.1053368070 -1 -1
-0.0833201830 -0.1054583340 -1 -1
-0.0839467720 -0.1056882630 -1 -1
-0.0850521990 -0.1060340670 -1 -1
-0.0865783630 -0.1064841030 -1 -1
-0.0884181660 -0.1070084270 -1 -1
-0.0904181410 -0.1075619980 -1 -1
-0.0923867150 -0.1080906670 -1 -1
-0.0941124040 -0.1085387080 -1 -1
-0.0953906750 -0.1088567860 -1 -1
-0.0960536820 -0.1090098400 -1 -1
-0.0959970280 -0.1089831230 -1 -1
-0.0951977090 -0.1087842500 -1 -1
-0.0937184670 -0.1084414940 -1 -1
-0.0916996130 -0.1080000560 -1 -1
-0.0893428320 -0.1075168210 -1 -1
-0.0868877770 -0.1070532030 -1 -1
-0.0845810770 -0.1066667260 -1 -1
-0.0826428570 -0.1064030700 -1 -1
-0.0812395480 -0.1062912710 -1 -1
-0.0804691870 -0.1063443500 -1 -1
-0.0803586980 -0.1065644170 -1 -1
-0.0808673970 -0.1069477800 -1 -1
-0.0818938440 -0.1074858020 -1 -1
-0.0832886810 -0.1081610430 -1 -1
-0.0848742730 -0.1089419900 -1 -1
-0.0864666320 -0.1097806610 -1 -1
-0.0878938290 -0.1106150070 -1 -1
-0.0890082700 -0.1113746460 -1 -1
-0.0896950230 -0.1119873930 -1 -1
-0.0898799670 -0.1123864950 -1 -1
-0.0895380670 -0.1125199970 -1 -1
-0.0886991940 -0.1123608120 -1 -1
-0.0874501050 -0.1119126340 -1 -1
-0.0859315930 -0.1112090330 -1 -1
-0.0843264670 -0.1103082970 -1 -1
-0.0828350770 -0.1092877380 -1 -1
-0.0816441690 -0.1082382360 -1 -1
-0.0809006600 -0.1072573360 -1 -1
-0.0806966120 -0.1064396130 -1 -1
-0.0810636800 -0.1058656090 -1 -1
-0.0819738440 -0.1055926250 -1 -1
-0.0833459750 -0.1056498200 -1 -1
-0.0850582360 -0.1060372570 -1 -1
-0.0869643300 -0.1067270390 -1 -1
-0.0889099340 -0.1076656310 -1 -1
-0.0907454460 -0.1087775740 -1 -1
-0.0923329280 -0.1099714010 -1 -1
-0.0935503650 -0.1111492930 -1 -1
-0.0942999690 -0.1122203820 -1 -1
-0.0945218230 -0.1131136050 -1 -1
-0.0942060590 -0.1137851620 -1 -1
-0.0933972570 -0.1142192500 -1 -1
-0.0921903690 -0.1144244340 -1 -1
-0.0907203180 -0.1144287720 -1 -1
-0.0891475140 -0.1142753080 -1 -1
-0.0876406510 -0.1140177060 -1 -1
-0.0863577180 -0.1137152500 -1 -1
-0.0854275880 -0.1134271500 -1 -1
-0.0849357240 -0.1132065030 -1 -1
-0.0849161890 -0.1130949080 -1 -1
-0.0853503440 -0.1131193790 -1 -1
-0.0861718130 -0.1132918310 -1 -1
-0.0872770180 -0.1136097070 -1 -1
-0.0885394530 -0.1140569230 -1 -1
-0.0898230690 -0.1146052710 -1 -1
-0.0909900260 -0.1152163180 -1 -1
-0.0919042230 -0.1158441580 -1 -1
-0.0924379720 -0.1164396600 -1 -1
-0.0924861090 -0.1169563300 -1 -1
-0.0919829860 -0.1173577270 -1 -1
-0.0909147050 -0.1176255210 -1 -1
-0.0893243730 -0.1177650060 -1 -1
-0.0873118290 -0.1178038630 -1 -1
-0.0850259540 -0.1177828420 -1 -1
-0.0826476200 -0.1177421410 -1 -1
-0.0803683370 -0.1177104920 -1 -1
-0.0783715550 -0.1177023600 -1 -1
-0.0768173060 -0.1177230330 -1 -1
-0.0758273340 -0.1177765770 -1 -1
-0.0754713220 -0.1178712750 -1 -1
-0.0757582640 -0.1180202240 -1 -1
-0.0766349170 -0.1182383030 -1 -1
-0.0779900490 -0.1185379710 -1 -1
-0.0796642110 -0.1189250170 -1 -1
-0.0814652950 -0.1193947670 -1 -1
-0.0831871150 -0.1199304470 -1 -1
-0.0846277620 -0.1205048650 -1 -1
-0.0856082290 -0.1210843930 -1 -1
-0.0859932380 -0.1216336530 -1 -1
-0.0857122590 -0.1221202490 -1 -1
-0.0847744870 -0.1225192530 -1 -1
-0.0832720710 -0.1228165960 -1 -1
-0.0813695960 -0.1230098360 -1 -1
-0.0792811970 -0.1231051940 -1 -1
-0.0772393520 -0.1231124830 -1 -1
-0.0754624220 -0.1230418510 -1 -1
-0.0741286400 -0.1229049820 -1 -1
-0.0733598410 -0.1227197150 -1 -1
-0.0732138670 -0.1225153090 -1 -1
-0.0736844700 -0.1223360560 -1 -1
-0.0747079150 -0.1222414400 -1 -1
-0.0761739120 -0.1223005700 -1 -1
-0.0779373840 -0.1225794130 -1 -1
-0.0798280430 -0.1231234300 -1 -1
-0.0816576640 -0.1239426640 -1 -1
-0.0832296800 -0.1250058850 -1 -1
-0.0843558690 -0.1262451510 -1 -1
-0.0848785980 -0.1275677460 -1 -1
-0.0846928410 -0.1288714700 -1 -1
-0.0837628180 -0.1300596010 -1 -1
-0.0821301170 -0.1310524860 -1 -1
-0.0799115700 -0.1317945330 -1 -1
-0.0772869010 -0.1322571460 -1 -1
-0.0744780860 -0.1324385130 -1 -1
-0.0717234500 -0.1323609770 -1 -1
-0.0692494010 -0.1320664930 -1 -1
-0.0672441040 -0.1316109850 -1 -1
-0.0658381130 -0.1310587570 -1 -1
-0.0650941050 -0.1304774940 -1 -1
-0.0650058720 -0.1299333480 -1 -1
-0.0655075260 -0.1294858170 -1 -1
-0.0664910500 -0.1291831290 -1 -1
-0.0678250710 -0.1290586920 -1 -1
-0.0693681500 -0.1291281550 -1 -1
-0.0709762120 -0.1293866510 -1 -1
-0.0725092930 -0.1298069820 -1 -1
-0.0738411860 -0.1303401560 -1 -1
-0.0748690020 -0.1309192280 -1 -1
-0.0755184190 -0.1314661900 -1 -1
-0.0757458280 -0.1319014770 -1 -1
-0.0755412810 -0.1321565660 -1 -1
-0.0749331540 -0.1321886770 -1 -1
-0.0739917550 -0.1319927870 -1 -1
-0.0728273850 -0.1316059150 -1 -1
-0.0715797350 -0.1311028650 -1 -1
-0.0704000830 -0.1305852250 -1 -1
-0.0694320710 -0.1301650870 -1 -1
-0.0687963050 -0.1299459550 -1 -1
-0.0685795270 -0.1300051240 -1 -1
-0.0688268990 -0.1303816770 -1 -1
-0.0695366590 -0.1310728150 -1 -1
-0.0706578260 -0.1320386650 -1 -1
-0.0720934730 -0.1332127030 -1 -1
-0.0737114350 -0.1345139820 -1 -1
-0.0753597390 -0.1358589100 -1 -1
-0.0768819910 -0.1371719340 -1 -1
-0.0781313070 -0.1383939080 -1 -1
-0.0789835230 -0.1394857110 -1 -1
-0.0793495100 -0.1404259960 -1 -1
-0.0791850440 -0.1412051150 -1 -1
-0.0784955960 -0.1418187430 -1 -1
-0.0773336090 -0.1422635800 -1 -1
-0.0757888290 -0.1425363150 -1 -1
-0.0739765870 -0.1426371120 -1 -1
-0.0720300460 -0.1425770460 -1 -1
-0.0700973410 -0.1423852610 -1 -1
-0.0683377520 -0.1421104320 -1 -1
-0.0669098850 -0.1418143260 -1 -1
-0.0659502490 -0.1415599460 -1 -1
-0.0655487020 -0.1413993660 -1 -1
-0.0657312400 -0.1413656160 -1 -1
-0.0664568880 -0.1414703400 -1 -1
-0.0676282910 -0.1417062850 -1 -1
-0.0691092450 -0.1420522890 -1 -1
-0.0707411230 -0.1424782660 -1 -1
-0.0723569430 -0.1429485140 -1 -1
-0.0737967090 -0.1434238660 -1 -1
-0.0749230720 -0.1438648080 -1 -1
-0.0756323800 -0.1442363950 -1 -1
-0.0758595320 -0.1445134610 -1 -1
-0.0755785030 -0.1446843310 -1 -1
-0.0747997640 -0.1447521970 -1 -1
-0.0735658080 -0.1447336740 -1 -1
-0.0719485170 -0.1446546700 -1 -1
-0.0700515060 -0.1445457250 -1 -1
-0.0680143370 -0.1444399050 -1 -1
-0.0660094710 -0.1443730470 -1 -1
-0.0642253400 -0.1443820000 -1 -1
-0.0628394120 -0.1444984370 -1 -1
-0.0619928270 -0.1447419600 -1 -1
-0.0617753980 -0.1451180660 -1 -1
-0.0622210180 -0.1456219420 -1 -1
-0.0633076930 -0.1462436280 -1 -1
-0.0649575530 -0.1469686490 -1 -1
-0.0670370320 -0.1477727810 -1 -1
-0.0693610110 -0.1486158990 -1 -1
-0.0717050170 -0.1494411670 -1 -1
-0.0738281620 -0.1501816960 -1 -1
-0.0755066760 -0.1507724200 -1 -1
-0.0765719990 -0.1511627870 -1 -1
-0.0769404480 -0.1513257350 -1 -1
-0.0766219090 -0.1512606460 -1 -1
-0.0757071080 -0.1509913310 -1 -1
-0.0743449560 -0.1505619060 -1 -1
-0.0727200250 -0.1500324990 -1 -1
-0.0710322190 -0.1494746540 -1 -1
-0.0694775250 -0.1489651490 -1 -1
-0.0682295050 -0.1485778690 -1 -1
-0.0674225680 -0.1483750920 -1 -1
-0.0671386810 -0.1484001350 -1 -1
-0.0673983200 -0.1486730210 -1 -1
-0.0681566640 -0.1491898690 -1 -1
-0.0693087850 -0.1499250170 -1 -1
-0.0707073140 -0.1508341730 -1 -1
-0.0721893540 -0.1518579410 -1 -1
-0.0736028370 -0.1529268040 -1 -1
-0.0748227570 -0.1539688320 -1 -1
-0.0757542830 -0.1549191620 -1 -1
-0.0763279420 -0.1557276900 -1 -1
-0.0764955850 -0.1563619760 -1 -1
-0.0762317220 -0.1568063220 -1 -1
-0.0755382950 -0.1570600790 -1 -1
-0.0744493320 -0.1571363490 -1 -1
-0.0730348990 -0.1570604010 -1 -1
-0.0714042710 -0.1568672150 -1 -1
-0.0697032110 -0.1565980700 -1 -1
-0.0680998490 -0.1562969490 -1 -1
-0.0667620690 -0.1560079580 -1 -1
-0.0658337980 -0.1557739740 -1 -1
-0.0654141100 -0.1556355160 -1 -1
-0.0655412090 -0.1556285490 -1 -1
-0.0661844230 -0.1557797870 -1 -1
-0.0672460750 -0.1560995260 -1 -1
-0.0685727260 -0.1565757230 -1 -1
-0.0699738920 -0.1571737310 -1 -1
-0.0712457260 -0.1578419830 -1 -1
-0.0721974660 -0.1585208800 -1 -1
-0.0726774370 -0.1591524180 -1 -1
-0.0725925580 -0.1596883400 -1 -1
-0.0719161370 -0.1600946100 -1 -1
-0.0706845600 -0.1603520060 -1 -1
-0.0689878290 -0.1604551480 -1 -1
-0.0669575850 -0.1604121110 -1 -1
-0.0647518600 -0.1602444780 -1 -1
-0.0625355600 -0.1599864210 -1 -1
-0.0604621540 -0.1596818970 -1 -1
-0.0586653070 -0.1593801250 -1 -1
-0.0572605280 -0.1591300340 -1 -1
-0.0563458770 -0.1589740380 -1 -1
-0.0559924120 -0.1589417620 -1 -1
-0.0562281630 -0.1590457320 -1 -1
-0.0570279930 -0.1592812680 -1 -1
-0.0583155350 -0.1596306790 -1 -1
-0.0599720940 -0.1600691880 -1 -1
-0.0618460410 -0.1605694800 -1 -1
-0.0637631920 -0.1611035290 -1 -1
-0.0655414450 -0.1616420660 -1 -1
-0.0670094050 -0.1621528330 -1 -1
-0.0680255000 -0.1625994080 -1 -1
-0.0684940620 -0.1629426230 -1 -1
-0.0683762860 -0.1631457320 -1 -1
-0.0676941950 -0.1631828290 -1 -1
-0.0665259400 -0.1630479340 -1 -1
-0.0649942830 -0.1627616880 -1 -1
-0.0632520710 -0.1623737010 -1 -1
-0.0614640130 -0.1619593080 -1 -1
-0.0597839250 -0.1616100270 -1 -1
-0.0583351840 -0.1614190450 -1 -1
-0.0572023750 -0.1614651470 -1 -1
-0.0564309420 -0.1617993100 -1 -1
-0.0560280020 -0.1624369920 -1 -1
-0.0559649160 -0.1633566050 -1 -1
-0.0561853840 -0.1645033460 -1 -1
-0.0566179240 -0.1657977480 -1 -1
-0.0571880120 -0.1671467270 -1 -1
-0.0578253360 -0.1684531010 -1 -1
-0.0584634040 -0.1696223610 -1 -1
-0.0590337860 -0.1705696370 -1 -1
-0.0594621150 -0.1712289950 -1 -1
-0.0596722610 -0.1715628900 -1 -1
-0.0596004560 -0.1715676720 -1 -1
-0.0592143790 -0.1712731290 -1 -1
-0.0585275150 -0.1707372980 -1 -1
-0.0576018780 -0.1700385400 -1 -1
-0.0565380400 -0.1692659510 -1 -1
-0.0554553040 -0.1685090210 -1 -1
-0.0544692780 -0.1678478470 -1 -1
-0.0536766500 -0.1673450210 -1 -1
-0.0531521090 -0.1670404880 -1 -1
-0.0529531640 -0.1669501230 -1 -1
-0.0531237530 -0.1670664220 -1 -1
-0.0536909990 -0.1673592760 -1 -1
-0.0546556850 -0.1677778630 -1 -1
-0.0559800050 -0.1682560650 -1 -1
-0.0575779120 -0.1687212910 -1 -1
-0.0593147850 -0.1691043410 -1 -1
-0.0610208140 -0.1693478280 -1 -1
-0.0625167500 -0.1694116170 -1 -1
-0.0636454820 -0.1692749420 -1 -1
-0.0643015740 -0.1689360160 -1 -1
-0.0644516780 -0.1684096760 -1 -1
-0.0641383270 -0.1677233270 -1 -1
-0.0634633110 -0.1669130780 -1 -1
-0.0625575660 -0.1660228340 -1 -1
-0.0615519450 -0.1651057750 -1 -1
-0.0605597150 -0.1642236480 -1 -1
-0.0596720700 -0.1634408640 -1 -1
-0.0589590310 -0.1628150270 -1 -1
-0.0584664090 -0.1623880700 -1 -1
-0.0582093570 -0.1621821800 -1 -1
-0.0581725640 -0.1622015030 -1 -1
-0.0583213150 -0.1624356560 -1 -1
-0.0586139430 -0.1628609290 -1 -1
-0.0590042310 -0.1634401940 -1 -1
-0.0594342580 -0.1641251810 -1 -1
-0.0598287530 -0.1648621790 -1 -1
-0.0601006500 -0.1655987240 -1 -1
-0.0601668760 -0.1662877850 -1 -1
-0.0599637340 -0.1668886020 -1 -1
-0.0594539140 -0.1673671580 -1 -1
-0.0586284030 -0.1676992830 -1 -1
-0.0575091360 -0.1678759390 -1 -1
-0.0561507950 -0.1679075450 -1 -1
-0.0546375640 -0.1678243590 -1 -1
-0.0530750770 -0.1676721790 -1 -1
-0.0515800890 -0.1675049710 -1 -1
-0.0502682340 -0.1673767100 -1 -1
-0.0492399030 -0.1673340060 -1 -1
-0.0485681740 -0.1674102950 -1 -1
-0.0482925240 -0.1676223560 -1 -1
-0.0484162000 -0.1679702760 -1 -1
-0.0489042930 -0.1684407620 -1 -1
-0.0496835260 -0.1690113450 -1 -1
-0.0506452200 -0.1696525620 -1 -1
-0.0516531180 -0.1703273950 -1 -1
-0.0525588310 -0.1709901200 -1 -1
-0.0532230820 -0.1715880940 -1 -1
-0.0535351880 -0.1720681290 -1 -1
-0.0534249190 -0.1723853140 -1 -1
-0.0528666070 -0.1725102130 -1 -1
-0.0518781710 -0.1724317070 -1 -1
-0.0505178320 -0.1721554780 -1 -1
-0.0488799110 -0.1717003690 -1 -1
-0.0470880390 -0.1710959500 -1 -1
-0.0452828710 -0.1703828840 -1 -1
-0.0436050490 -0.1696139810 -1 -1
-0.0421783940 -0.1688520890 -1 -1
-0.0410975340 -0.1681635620 -1 -1
-0.0404209620 -0.1676095760 -1 -1
-0.0401686750 -0.1672384110 -1 -1
-0.0403233390 -0.1670805020 -1 -1
-0.0408351150 -0.1671468580 -1 -1
-0.0416303540 -0.1674302980 -1 -1
-0.0426212440 -0.1679078730 -1 -1
-0.0437131130 -0.1685434270 -1 -1
-0.0448112960 -0.1692912430 -1 -1
-0.0458307890 -0.1701015420 -1 -1
-0.0467066620 -0.1709264440 -1 -1
-0.0474008470 -0.1717241600 -1 -1
-0.0479037140 -0.1724601860 -1 -1
-0.0482308160 -0.1731058230 -1 -1
-0.0484159180 -0.1736355150 -1 -1
-0.0485032940 -0.1740243660 -1 -1
-0.0485428060 -0.1742467640 -1 -1
-0.0485868330 -0.1742776090 -1 -1
-0.0486839430 -0.1740976240 -1 -1
-0.0488690000 -0.1737029440 -1 -1
-0.0491568570 -0.1731168690 -1 -1
-0.0495439790 -0.1723980210 -1 -1
-0.0500151480 -0.1716381350 -1 -1
-0.0505504100 -0.1709479770 -1 -1
-0.0511275220 -0.1704364030 -1 -1
-0.0517172140 -0.1701896100 -1 -1
-0.0522753970 -0.1702565170 -1 -1
-0.0527406150 -0.1706441990 -1 -1
-0.0530407110 -0.1713233610 -1 -1
-0.0531061460 -0.1722389750 -1 -1
-0.0528853370 -0.1733197310 -1 -1
-0.0523578570 -0.1744835400 -1 -1
-0.0515411310 -0.1756413880 -1 -1
-0.0504878750 -0.1767039350 -1 -1
-0.0492760740 -0.1775922050 -1 -1
-0.0479967390 -0.1782489930 -1 -1
-0.0467446970 -0.1786466380 -1 -1
-0.0456146640 -0.1787893420 -1 -1
-0.0447005260 -0.1787100330 -1 -1
-0.0440939350 -0.1784624290 -1 -1
-0.0438796370 -0.1781103310 -1 -1
-0.0441256920 -0.1777174830 -1 -1
-0.0448685660 -0.1773405330 -1 -1
-0.0460973890 -0.1770254990 -1 -1
-0.0477441480 -0.1768064100 -1 -1
-0.0496855570 -0.1767044110 -1 -1
-0.0517585440 -0.1767272060 -1 -1
-0.0537850460 -0.1768710230 -1 -1
-0.0555978390 -0.1771257020 -1 -1
-0.0570611100 -0.1774793720 -1 -1
-0.0580828150 -0.1779196670 -1 -1
-0.0586172660 -0.1784330460 -1 -1
-0.0586588480 -0.1790048260 -1 -1
-0.0582319710 -0.1796199810 -1 -1
-0.0573830390 -0.1802642290 -1 -1
-0.0561766780 -0.1809260280 -1 -1
-0.0546956130 -0.1815994250 -1 -1
-0.0530410890 -0.1822864320 -1 -1
-0.0513294080 -0.1829971580 -1 -1
-0.0496841870 -0.1837465440 -1 -1
-0.0482282130 -0.1845484620 -1 -1
-0.0470743250 -0.1854095610 -1 -1
-0.0463105730 -0.1863244890 -1 -1
-0.0459819690 -0.1872727680 -1 -1
-0.0460790360 -0.1882176810 -1 -1
-0.0465393700 -0.1891081240 -1 -1
-0.0472593990 -0.1898840140 -1 -1
-0.0481096680 -0.1904850600 -1 -1
-0.0489484260 -0.1908612760 -1 -1
-0.0496322820 -0.1909813650 -1 -1
-0.0500267880 -0.1908356150 -1 -1
-0.0500215790 -0.1904336790 -1 -1
-0.0495514900 -0.1897995700 -1 -1
-0.0486170960 -0.1889653270 -1 -1
-0.0472938910 -0.1879651480 -1 -1
-0.0457249550 -0.1868330770 -1 -1
-0.0440997810 -0.1856067830 -1 -1
-0.0426239400 -0.1843360060 -1 -1
-0.0414838080 -0.1830891920 -1 -1
-0.0408141440 -0.1819509620 -1 -1
-0.0406807410 -0.1810083900 -1 -1
-0.0410852540 -0.1803315420 -1 -1
-0.0419847280 -0.1799577890 -1 -1
-0.0433102330 -0.1798864190 -1 -1
-0.0449758570 -0.1800831300 -1 -1
-0.0468803620 -0.1804896090 -1 -1
-0.0489064070 -0.1810335070 -1 -1
-0.0509200270 -0.1816369990 -1 -1
-0.0527734340 -0.1822253340 -1 -1
-0.0543145670 -0.1827361420 -1 -1
-0.0554026640 -0.1831267200 -1 -1
-0.0559244390 -0.1833766730 -1 -1
-0.0558071070 -0.1834871160 -1 -1
-0.0550293060 -0.1834785140 -1 -1
-0.0536299320 -0.1833863400 -1 -1
-0.0517105880 -0.1832534470 -1 -1
-0.0494275860 -0.1831214600 -1 -1
-0.0469728790 -0.1830247090 -1 -1
-0.0445468860 -0.1829874890 -1 -1
-0.0423306860 -0.1830230410 -1 -1
-0.0404664110 -0.1831328130 -1 -1
-0.0390491080 -0.1833062150 -1 -1
-0.0381262880 -0.1835225980 -1 -1
-0.0376999450 -0.1837569810 -1 -1
-0.0377286410 -0.1839881630 -1 -1
-0.0381301270 -0.1842049860 -1 -1
-0.0387883310 -0.1844076460 -1 -1
-0.0395702380 -0.1846051220 -1 -1
-0.0403515390 -0.1848114100 -1 -1
-0.0410384850 -0.1850408480 -1 -1
-0.0415740310 -0.1853022590 -1 -1
-0.0419306710 -0.1855947800 -1 -1
-0.0421009510 -0.1859086770 -1 -1
-0.0420915090 -0.1862297170 -1 -1
-0.0419201850 -0.1865430060 -1 -1
-0.0416156500 -0.1868347620 -1 -1
-0.0412196750 -0.1870928020 -1 -1
-0.0407900640 -0.1873067900 -1 -1
-0.0403993720 -0.1874700820 -1 -1
-0.0401242580 -0.1875846030 -1 -1
-0.0400260870 -0.1876661560 -1 -1
-0.0401333790 -0.1877449800 -1 -1
-0.0404385920 -0.1878594530 -1 -1
-0.0409094860 -0.1880456590 -1 -1
-0.0415036390 -0.1883270320 -1 -1
-0.0421770090 -0.1887077130 -1 -1
-0.0428853360 -0.1891724250 -1 -1
-0.0435801120 -0.1896933330 -1 -1
-0.0442021850 -0.1902400020 -1 -1
-0.0446779750 -0.1907863040 -1 -1
-0.0449226350 -0.1913113800 -1 -1
-0.0448507170 -0.1917973220 -1 -1
-0.0443902940 -0.1922279810 -1 -1
-0.0434955880 -0.1925908170 -1 -1
-0.0421563270 -0.1928806850 -1 -1
-0.0404044310 -0.1931028600 -1 -1
-0.0383183990 -0.1932724580 -1 -1
-0.0360242500 -0.1934094020 -1 -1
-0.0336892270 -0.1935308870 -1 -1
-0.0315052760 -0.1936452120 -1 -1
-0.0296652200 -0.1937504580 0 -1
-0.0283370960 -0.1938387110 0 -1
-0.0276412140 -0.1939030130 0 -1
-0.0276358850 -0.1939427900 0 -1
-0.0283145060 -0.1939648590 0 -1
-0.0296080530 -0.1939802520 0 -1
-0.0313872690 -0.1939999640 -1 -1
-0.0334692840 -0.1940323700 -1 -1
-0.0356382650 -0.1940825140 -1 -1
-0.0376791210 -0.1941522620 -1 -1
-0.0394095700 -0.1942400990 -1 -1
-0.0406973030 -0.1943391700 -1 -1
-0.0414624800 -0.1944340100 -1 -1
-0.0416730020 -0.1944992710 -1 -1
-0.0413377040 -0.1945035650 -1 -1
-0.0405002490 -0.1944182910 -1 -1
-0.0392357730 -0.1942280660 -1 -1
-0.0376494920 -0.1939377570 -1 -1
-0.0358744310 -0.1935725780 -1 -1
-0.0340659420 -0.1931723560 -1 -1
-0.0323889340 -0.1927837010 -1 -1
-0.0309937360 -0.1924513520 -1 -1
-0.0299864410 -0.1922076710 0 -1
-0.0294100700 -0.1920624110 0 -1
-0.0292483270 -0.1919995250 0 -1
-0.0294467590 -0.1919862260 0 -1
-0.0299337420 -0.1919907900 0 -1
-0.0306280570 -0.1919983020 -1 -1
-0.0314361770 -0.1920150570 -1 -1
-0.0322521660 -0.1920610310 -1 -1
-0.0329671050 -0.1921572450 -1 -1
-0.0334845190 -0.1923149410 -1 -1
-0.0337348570 -0.1925292290 -1 -1
-0.0336835580 -0.1927780300 -1 -1
-0.0333302830 -0.1930275630 -1 -1
-0.0327021400 -0.1932444020 -1 -1
-0.0318466380 -0.1934104410 -1 -1
-0.0308265990 -0.1935340750 -1 -1
-0.0297151050 -0.1936520170 0 -1
-0.0285892430 -0.1938211350 0 -1
-0.0275246250 -0.1941045950 0 -1
-0.0265939380 -0.1945578710 0 -1
-0.0258689140 -0.1952180230 0 -1
-0.0254194540 -0.1960964920 0 -1
-0.0253043660 -0.1971748710 0 -1
-0.0255552440 -0.1984044440 0 -1
-0.0261603020 -0.1997099960 0 -1
-0.0270542710 -0.2009970420 0 -1
-0.0281180010 -0.2021623570 0 -1
-0.0291894370 -0.2031084740 0 -1
-0.0300841840 -0.2037605000 -1 -1
-0.0306221910 -0.2040803670 -1 -1
-0.0306580150 -0.2040732040 -1 -1
-0.0301085880 -0.2037835090 -1 -1
-0.0289689400 -0.2032827690 0 -1
-0.0273120640 -0.2026532980 0 -1
-0.0252767380 -0.2019744190 0 -1
-0.0230481870 -0.2013147820 0 -1
-0.0208352080 -0.2007296700 0 -1
-0.0188467620 -0.2002599000 0 -1
-0.0172694160 -0.1999308590 0 -1
-0.0162463840 -0.1997523550 0 -1
-0.0158610420 -0.1997197390 0 -1
-0.0161297370 -0.1998164880 0 -1
-0.0170064670 -0.2000188680 0 -1
-0.0183972970 -0.2003021170 0 -1
-0.0201786170 -0.2006448390 0 -1
-0.0222119240 -0.2010289970 0 -1
-0.0243508910 -0.2014370570 0 -1
-0.0264436700 -0.2018497330 0 -1
-0.0283380150 -0.2022459720 0 -1
-0.0298933450 -0.2026049130 0 -1
-0.0309960330 -0.2029086950 -1 -1
-0.0315718110 -0.2031445830 -1 -1
-0.0315938370 -0.2033051330 -1 -1
-0.0310880450 -0.2033861220 -1 -1
-0.0301347990 -0.2033832700 -1 -1
-0.0288641520 -0.2032904490 0 -1
-0.0274445980 -0.2031022630 0 -1
-0.0260662360 -0.2028210400 0 -1
-0.0249170180 -0.2024647710 0 -1
-0.0241528240 -0.2020714720 0 -1
-0.0238688370 -0.2016969290 0 -1
-0.0240826930 -0.2014053010 0 -1
-0.0247351190 -0.2012555490 0 -1
-0.0257042020 -0.2012893470 0 -1
-0.0268238930 -0.2015245840 0 -1
-0.0279021620 -0.2019538250 0 -1
-0.0287414400 -0.2025450690 0 -1
-0.0291631660 -0.2032442030 0 -1
-0.0290332000 -0.2039808160 0 -1
-0.0282825970 -0.2046782590 0 -1
-0.0269189990 -0.2052656630 0 -1
-0.0250263830 -0.2056878600 0 -1
-0.0227531640 -0.2059109070 0 -1
-0.0202901670 -0.2059240090 0 -1
-0.0178427300 -0.2057396130 0 -1
-0.0156048820 -0.2053921170 0 -1
-0.0137427290 -0.2049340990 0 -1
-0.0123872020 -0.2044290700 0 -1
-0.0116305580 -0.2039420050 0 -1
-0.0115232190 -0.2035311990 0 -1
-0.0120713050 -0.2032440780 0 -1
-0.0132350570 -0.2031158480 0 -1
-0.0149277580 -0.2031680200 0 -1
-0.0170168310 -0.2034059170 0 -1
-0.0193319440 -0.2038161680 0 -1
-0.0216839570 -0.2043652500 0 -1
-0.0238909000 -0.2050004140 0 -1
-0.0258016860 -0.2056545150 0 -1
-0.0273108920 -0.2062545580 0 -1
-0.0283626370 -0.2067317020 0 -1
-0.0289452510 -0.2070302690 0 -1
-0.0290814610 -0.2071148080 0 -1
-0.0288181430 -0.2069752180 0 -1
-0.0282168560 -0.2066291350 0 -1
-0.0273463380 -0.2061201440 0 -1
-0.0262789140 -0.2055117090 0 -1
-0.0250904090 -0.2048788840 0 -1
-0.0238606110 -0.2043002180 0 -1
-0.0226722120 -0.2038505330 0 -1
-0.0216070320 -0.2035941470 0 -1
-0.0207377390 -0.2035791070 0 -1
-0.0201162790 -0.2038332630 0 -1
-0.0197636440 -0.2043616220 0 -1
-0.0196632950 -0.2051447110 0 -1
-0.0197582790 -0.2061393550 0 -1
-0.0199540430 -0.2072826670 0 -1
-0.0201295270 -0.2084979680 0 -1
-0.0201547630 -0.2097010840 0 -1
-0.0199090050 -0.2108065280 0 -1
-0.0192951900 -0.2117340910 0 -1
-0.0182524110 -0.2124171530 0 -1
-0.0167691270 -0.2128125430 0 -1
-0.0148948550 -0.2129080130 0 -1
-0.0127441900 -0.2127235960 0 -1
-0.0104893060 -0.2123086930 0 -1
-0.0083425920 -0.2117391770 0 -1
-0.0065346750 -0.2111141510 0 -1
-0.0052926490 -0.2105480600 0 -1
-0.0048181350 -0.2101569700 0 -1
-0.0052606670 -0.2100435440 0 -1
-0.0066898570 -0.2102864940 0 -1
-0.0090805230 -0.2109365220 0 -1
-0.0123186450 -0.2120172070 0 -1
-0.0162208130 -0.2135292070 0 -1
-0.0205570600 -0.2154568170 0 -1
-0.0250739530 -0.2177752630 0 -1
-0.0295188240 -0.2204560050 0 -1
-0.0336650390 -0.2234674360 -1 -1
-0.0373359850 -0.2267706380 -1 -1
-0.0404236340 -0.2303136320 -1 -1
-0.0428964310 -0.2340292110 -1 -1
-0.0447935420 -0.2378387900 -1 -1
-0.0462086430 -0.2416608410 -1 -1
-0.0472700560 -0.2454214440 -1 -1
-0.0481228580 -0.2490646110 -1 -1
-0.0489158090 -0.2525592950 -1 -1
-0.0497925220 -0.2559004910 -1 -1
-0.0508838110 -0.2591048670 -1 -1
-0.0522994280 -0.2622041120 -1 -1
-0.0541198450 -0.2652389610 -1 -1
-0.0563889740 -0.2682536240 -1 -1
-0.0591087560 -0.2712882120 -1 -1
-0.0622376910 -0.2743692120 -1 -1
-0.0656947280 -0.2775009460 -1 -1
-0.0693674850 -0.2806610860 -1 -1
-0.0731222110 -0.2838020540 -1 -1
-0.0768141580 -0.2868589500 -1 -1
-0.0803008180 -0.2897624300 -1 -1
-0.0834618580 -0.2924519880 -1 -1
-0.0862220820 -0.2948838630 -1 -1
-0.0885651880 -0.2970310950 -1 -1
-0.0905302310 -0.2988790980 -1 -1
-0.0921957140 -0.3004227950 -1 -1
-0.0936626600 -0.3016678560 -1 -1
-0.0950425250 -0.3026334910 -1 -1
-0.0964465040 -0.3033532920 -1 -1
-0.0979720080 -0.3038727000 -1 -1
-0.0996902640 -0.3042439370 -1 -1
-0.1016423240 -0.3045210880 -1 -1
-0.1038432550 -0.3047576110 -1 -1
-0.1062872180 -0.3050052940 -1 -1
-0.1089470970 -0.3053117650 -1 -1
-0.1117674690 -0.3057153960 -1 -1
-0.1146553620 -0.3062395480 -1 -1
-0.1174772390 -0.3068889230 -1 -1
-0.1200687960 -0.3076493400 -1 -1
-0.1222566350 -0.3084906520 -1 -1
-0.1238840620 -0.3093715140 -1 -1
-0.1248336310 -0.3102441560 -1 -1
-0.1250443850 -0.3110585170 -1 -1
-0.1245227210 -0.3117675870 -1 -1
-0.1233428260 -0.3123353310 -1 -1
-0.1216357610 -0.3127443570 -1 -1
-0.1195723990 -0.3129987090 -1 -1
-0.1173446830 -0.3131202730 -1 -1
-0.1151470340 -0.3131406020 -1 -1
-0.1131619530 -0.3130911640 -1 -1
-0.1115534970 -0.3129960870 -1 -1
-0.1104650190 -0.3128710270 -1 -1
-0.1100124310 -0.3127276560 -1 -1
-0.1102679970 -0.3125794110 -1 -1
-0.1112384250 -0.3124451630 -1 -1
-0.1128484560 -0.3123504770 -1 -1
-0.1149421900 -0.3123260040 -1 -1
-0.1173048980 -0.3124016670 -1 -1
-0.1196946920 -0.3125975390 -1 -1
-0.1218704960 -0.3129158240 -1 -1
-0.1236117170 -0.3133387670 -1 -1
-0.1247334660 -0.3138338540 -1 -1
-0.1251026370 -0.3143635600 -1 -1
-0.1246549760 -0.3148950620 -1 -1
-0.1234066530 -0.3154058660 -1 -1
-0.1214535990 -0.3158838210 -1 -1
-0.1189573840 -0.3163234750 -1 -1
-0.1161206520 -0.3167224190 -1 -1
-0.1131585960 -0.3170799160 -1 -1
-0.1102771780 -0.3173972180 -1 -1
-0.1076655140 -0.3176772650 -1 -1
-0.1054971490 -0.3179222920 -1 -1
-0.1039266670 -0.3181302440 -1 -1
-0.1030741210 -0.3182926330 -1 -1
-0.1030021460 -0.3183960970 -1 -1
-0.1036968160 -0.3184275650 -1 -1
-0.1050603070 -0.3183803450 -1 -1
-0.1069177730 -0.3182578930 -1 -1
-0.1090381800 -0.3180742260 -1 -1
-0.1111664630 -0.3178520970 -1 -1
-0.1130601220 -0.3176202230 -1 -1
-0.1145215680 -0.3174096920 -1 -1
-0.1154199270 -0.3172492390 -1 -1
-0.1156991790 -0.3171595150 -1 -1
-0.1153731540 -0.3171470340 -1 -1
-0.1145126240 -0.3171998680 -1 -1
-0.1132318520 -0.3172886380 -1 -1
-0.1116776250 -0.3173745310 -1 -1
-0.1100173050 -0.3174211830 -1 -1
-0.1084221500 -0.3174053470 -1 -1
-0.1070477870 -0.3173234730 -1 -1
-0.1060174220 -0.3171929110 -1 -1
-0.1054115990 -0.3170471760 -1 -1
-0.1052636830 -0.3169273600 -1 -1
-0.1055588570 -0.3168735000 -1 -1
-0.1062379430 -0.3169179130 -1 -1
-0.1072079820 -0.3170801180 -1 -1
-0.1083560950 -0.3173627750 -1 -1
-0.1095606540 -0.3177494020 -1 -1
-0.1106988460 -0.3182051530 -1 -1
-0.1116542970 -0.3186812170 -1 -1
-0.1123264520 -0.3191224080 -1 -1
-0.1126395360 -0.3194761570 -1 -1
-0.1125492220 -0.3196999840 -1 -1
-0.1120466070 -0.3197655590 -1 -1
-0.1111583950 -0.3196596520 -1 -1
-0.1099425460 -0.3193832590 -1 -1
-0.1084807600 -0.3189502570 -1 -1
-0.1068695770 -0.3183860470 -1 -1
-0.1052116230 -0.3177252530 -1 -1
-0.1036094000 -0.3170082210 -1 -1
-0.1021626910 -0.3162776320 -1 -1
-0.1009665070 -0.3155760030 -1 -1
-0.1001053770 -0.3149432050 -1 -1
-0.0996437190 -0.3144131530 -1 -1
-0.0996153190 -0.3140106390 -1 -1
-0.1000145610 -0.3137501260 -1 -1
-0.1007918450 -0.3136364310 -1 -1
-0.1018562550 -0.3136652610 -1 -1
-0.1030860370 -0.3138221950 -1 -1
-0.1043428980 -0.3140808170 -1 -1
-0.1054846350 -0.3144022270 -1 -1
-0.1063743880 -0.3147382490 -1 -1
-0.1068912580 -0.3150388900 -1 -1
-0.1069486900 -0.3152620610 -1 -1
-0.1065176800 -0.3153820910 -1 -1
-0.1056409530 -0.3153937530 -1 -1
-0.1044278030 -0.3153104210 -1 -1
-0.1030328360 -0.3151578500 -1 -1
-0.1016292590 -0.3149666980 -1 -1
-0.1003850280 -0.3147663270 -1 -1
-0.0994443270 -0.3145812550 -1 -1
-0.0989137780 -0.3144306710 -1 -1
-0.0988541100 -0.3143297480 -1 -1
-0.0992779990 -0.3142899520 -1 -1
-0.1001517580 -0.3143168450 -1 -1
-0.1013974160 -0.3144066960 -1 -1
-0.1028947460 -0.3145442230 -1 -1
-0.1044868170 -0.3147033100 -1 -1
-0.1059948140 -0.3148520430 -1 -1
-0.1072434210 -0.3149613820 -1 -1
-0.1080879410 -0.3150138010 -1 -1
-0.1084306670 -0.3150071700 -1 -1
-0.1082230130 -0.3149507950 -1 -1
-0.1074601500 -0.3148548460 -1 -1
-0.1061763150 -0.3147198540 -1 -1
-0.1044441820 -0.3145341740 -1 -1
-0.1023753810 -0.3142816090 -1 -1
-0.1001149920 -0.3139531960 -1 -1
-0.0978275570 -0.3135544380 -1 -1
-0.0956810050 -0.3131040160 -1 -1
-0.0938339800 -0.3126267030 -1 -1
-0.0924243540 -0.3121462440 -1 -1
-0.0915548030 -0.3116820340 -1 -1
-0.0912760720 -0.3112492580 -1 -1
-0.0915750020 -0.3108603990 -1 -1
-0.0923744820 -0.3105268720 -1 -1
-0.0935436430 -0.3102599620 -1 -1
-0.0949126760 -0.3100699580 -1 -1
-0.0962934090 -0.3099639390 -1 -1
-0.0975073990 -0.3099447030 -1 -1
-0.0984138300 -0.3100127540 -1 -1
-0.0989266860 -0.3101698320 -1 -1
-0.0990177460 -0.3104198740 -1 -1
-0.0987077530 -0.3107651470 -1 -1
-0.0980507010 -0.3112006670 -1 -1
-0.0971185250 -0.3117121490 -1 -1
-0.0959920890 -0.3122790830 -1 -1
-0.0947575670 -0.3128807930 -1 -1
-0.0935031200 -0.3135024430 -1 -1
-0.0923141010 -0.3141377590 -1 -1
-0.0912699320 -0.3147862930 -1 -1
-0.0904453010 -0.3154461890 -1 -1
-0.0899129070 -0.3161060420 -1 -1
-0.0897404690 -0.3167399080 -1 -1
-0.0899773080 -0.3173082700 -1 -1
-0.0906345540 -0.3177649150 -1 -1
-0.0916695100 -0.3180665100 -1 -1
-0.0929821240 -0.3181807980 -1 -1
-0.0944243050 -0.3180908860 -1 -1
-0.0958195410 -0.3177959350 -1 -1
-0.0969889970 -0.3173103840 -1 -1
-0.0977779380 -0.3166634810 -1 -1
-0.0980772280 -0.3158989530 -1 -1
-0.0978378060 -0.3150726240 -1 -1
-0.0970757490 -0.3142460520 -1 -1
-0.0958657780 -0.3134773730 -1 -1
-0.0943266650 -0.3128131060 -1 -1
-0.0926058730 -0.3122843580 -1 -1
-0.0908659690 -0.3119083810 -1 -1
-0.0892678970 -0.3116934470 -1 -1
-0.0879477480 -0.3116436060 -1 -1
-0.0869935780 -0.3117609280 -1 -1
-0.0864328460 -0.3120443960 -1 -1
-0.0862339200 -0.3124861260 -1 -1
-0.0863179850 -0.3130674030 -1 -1
-0.0865767500 -0.3137574920 -1 -1
-0.0868921980 -0.3145163020 -1 -1
-0.0871545790 -0.3152994660 -1 -1
-0.0872758820 -0.3160633490 -1 -1
-0.0871982530 -0.3167684950 -1 -1
-0.0868974170 -0.3173818940 -1 -1
-0.0863804900 -0.3178786800 -1 -1
-0.0856799410 -0.3182430470 -1 -1
-0.0848486150 -0.3184684640 -1 -1
-0.0839581540 -0.3185578520 -1 -1
-0.0830979180 -0.3185240550 -1 -1
-0.0823700690 -0.3183904930 -1 -1
-0.0818785690 -0.3181911590 -1 -1
-0.0817128150 -0.3179678540 -1 -1
-0.0819304170 -0.3177636750 -1 -1
-0.0825461840 -0.3176156300 -1 -1
-0.0835317920 -0.3175503780 -1 -1
-0.0848259430 -0.3175841360 -1 -1
-0.0863520830 -0.3177251470 -1 -1
-0.0880380760 -0.3179760570 -1 -1
-0.0898291090 -0.3183338960 -1 -1
-0.0916860820 -0.3187874860 -1 -1
-0.0935692140 -0.3193144350 -1 -1
-0.0954179680 -0.3198801430 -1 -1
-0.0971435830 -0.3204400470 -1 -1
-0.0986417190 -0.3209445580 -1 -1
-0.0998174950 -0.3213450470 -1 -1
-0.1006076820 -0.3215993480 -1 -1
-0.1009889040 -0.3216761140 -1 -1
-0.1009714290 -0.3215585500 -1 -1
-0.1005887970 -0.3212487270 -1 -1
-0.0998940180 -0.3207721910 -1 -1
-0.0989612800 -0.3201795880 -1 -1
-0.0978842150 -0.3195420730 -1 -1
-0.0967674600 -0.3189412710 -1 -1
-0.0957154470 -0.3184575470 -1 -1
-0.0948221140 -0.3181595620 -1 -1
-0.0941639030 -0.3180964970 -1 -1
-0.0937976940 -0.3182936400 -1 -1
-0.0937608930 -0.3187509910 -1 -1
-0.0940669930 -0.3194438380 -1 -1
-0.0946936930 -0.3203254560 -1 -1
-0.0955699210 -0.3213331040 -1 -1
-0.0965728100 -0.3223967190 -1 -1
-0.0975403110 -0.3234468850 -1 -1
-0.0982966570 -0.3244192710 -1 -1
-0.0986848520 -0.3252567820 -1 -1
-0.0985989220 -0.3259126660 -1 -1
-0.0980061780 -0.3263554120 -1 -1
-0.0969526340 -0.3265735350 -1 -1
-0.0955517260 -0.3265781110 -1 -1
-0.0939600690 -0.3264018830 -1 -1
-0.0923461190 -0.3260945980 -1 -1
-0.0908604930 -0.3257151100 -1 -1
-0.0896159700 -0.3253222790 -1 -1
-0.0886810860 -0.3249677230 -1 -1
-0.0880867590 -0.3246925110 -1 -1
-0.0878394840 -0.3245274310 -1 -1
-0.0879308710 -0.3244941450 -1 -1
-0.0883376050 -0.3246038790 -1 -1
-0.0890150110 -0.3248527620 -1 -1
-0.0898918240 -0.3252167770 -1 -1
-0.0908705490 -0.3256503010 -1 -1
-0.0918342490 -0.3260903850 -1 -1
-0.0926594640 -0.3264665440 -1 -1
-0.0932317370 -0.3267140590 -1 -1
-0.0934582280 -0.3267879270 -1 -1
-0.0932769820 -0.3266737960 -1 -1
-0.0926660510 -0.3263915170 -1 -1
-0.0916516620 -0.3259888750 -1 -1
-0.0903114590 -0.3255283560 -1 -1
-0.0887709420 -0.3250730830 -1 -1
-0.0871927170 -0.3246757840 -1 -1
-0.0857585700 -0.3243714570 -1 -1
-0.0846462030 -0.3241741390 -1 -1
-0.0840046510 -0.3240787280 -1 -1
-0.0839324450 -0.3240673880 -1 -1
-0.0844621060 -0.3241168730 -1 -1
-0.0855552990 -0.3242019010 -1 -1
-0.0871111540 -0.3242934690 -1 -1
-0.0889845650 -0.3243567980 -1 -1
-0.0910082280 -0.3243546710 -1 -1
-0.0930135970 -0.3242566200 -1 -1
-0.0948479530 -0.3240487360 -1 -1
-0.0963863710 -0.3237382170 -1 -1
-0.0975372410 -0.3233507020 -1 -1
-0.0982399460 -0.3229233080 -1 -1
-0.0984572190 -0.3224978870 -1 -1
-0.0981684820 -0.3221158970 -1 -1
-0.0973692000 -0.3218132150 -1 -1
-0.0960779980 -0.3216150360 -1 -1
-0.0943501590 -0.3215345070 -1 -1
-0.0922916120 -0.3215768400 -1 -1
-0.0900627400 -0.3217447110 -1 -1
-0.0878628320 -0.3220395760 -1 -1
-0.0858976530 -0.3224588660 -1 -1
-0.0843450710 -0.3229931780 -1 -1
-0.0833325040 -0.3236259420 -1 -1
-0.0829263920 -0.3243342540 -1 -1
-0.0831260000 -0.3250889740 -1 -1
-0.0838601910 -0.3258551810 -1 -1
-0.0849928030 -0.3265955440 -1 -1
-0.0863392770 -0.3272761200 -1 -1
-0.0876915270 -0.3278711640 -1 -1
-0.0888461150 -0.3283644320 -1 -1
-0.0896298960 -0.3287468170 -1 -1
-0.0899177190 -0.3290118000 -1 -1
-0.0896405360 -0.3291512040 -1 -1
-0.0887862630 -0.3291544630 -1 -1
-0.0873971780 -0.3290133890 -1 -1
-0.0855667760 -0.3287302350 -1 -1
-0.0834356480 -0.3283235010 -1 -1
-0.0811816050 -0.3278277180 -1 -1
-0.0790002770 -0.3272878210 -1 -1
-0.0770791040 -0.3267514300 -1 -1
-0.0755727960 -0.3262620140 -1 -1
-0.0745874130 -0.3258541840 -1 -1
-0.0741756490 -0.3255516110 -1 -1
-0.0743409500 -0.3253676830 -1 -1
-0.0750456320 -0.3253074650 -1 -1
-0.0762183160 -0.3253690710 -1 -1
-0.0777579470 -0.3255448240 -1 -1
-0.0795354060 -0.3258237260 -1 -1
-0.0813968710 -0.3261940010 -1 -1
-0.0831725240 -0.3266427250 -1 -1
-0.0846908420 -0.3271522590 -1 -1
-0.0857964240 -0.3276962420 -1 -1
-0.0863694040 -0.3282385770 -1 -1
-0.0863444380 -0.3287375390 -1 -1
-0.0857261780 -0.3291534800 -1 -1
-0.0845975430 -0.3294554910 -1 -1
-0.0831168560 -0.3296242620 -1 -1
-0.0815002290 -0.3296524500 -1 -1
-0.0799892180 -0.3295442370 -1 -1
-0.0788103530 -0.3293137780 -1 -1
-0.0781373810 -0.3289828280 -1 -1
-0.0780656330 -0.3285798280 -1 -1
-0.0786023770 -0.3281412470 -1 -1
-0.0796714480 -0.3277117230 -1 -1
-0.0811281140 -0.3273394410 -1 -1
-0.0827815240 -0.3270684730 -1 -1
-0.0844223060 -0.3269321860 -1 -1
-0.0858507970 -0.3269485700 -1 -1
-0.0869009930 -0.3271167070 -1 -1
-0.0874564760 -0.3274160920 -1 -1
-0.0874566890 -0.3278106270 -1 -1
-0.0868971700 -0.3282546590 -1 -1
-0.0858295300 -0.3286971690 -1 -1
-0.0843595580 -0.3290848310 -1 -1
-0.0826343640 -0.3293675230 -1 -1
-0.0808157020 -0.3295071300 -1 -1
-0.0790505690 -0.3294859910 -1 -1
-0.0774548880 -0.3293099010 -1 -1
-0.0761163180 -0.3290043130 -1 -1
-0.0751062450 -0.3286070000 -1 -1
-0.0744833880 -0.3281609050 -1 -1
-0.0742819450 -0.3277095820 -1 -1
-0.0744949650 -0.3272961710 -1 -1
-0.0750684340 -0.3269637230 -1 -1
-0.0759099750 -0.3267530410 -1 -1
-0.0769033270 -0.3266971610 -1 -1
-0.0779201060 -0.3268148730 -1 -1
-0.0788288970 -0.3271058510 -1 -1
-0.0795044070 -0.3275490650 -1 -1
-0.0798369980 -0.3281048910 -1 -1
-0.0797438630 -0.3287194190 -1 -1
-0.0791830370 -0.3293292530 -1 -1
-0.0781655630 -0.3298673620 -1 -1
-0.0767581890 -0.3302717090 -1 -1
-0.0750739500 -0.3304960510 -1 -1
-0.0732531460 -0.3305191350 -1 -1
-0.0714403410 -0.3303482710 -1 -1
-0.0697661340 -0.3300166020 -1 -1
-0.0683399820 -0.3295769450 -1 -1
-0.0672512690 -0.3290948510 -1 -1
-0.0665714570 -0.3286408920 -1 -1
-0.0663533860 -0.3282814710 -1 -1
-0.0666260310 -0.3280686420 -1 -1
-0.0673835730 -0.3280309300 -1 -1
-0.0685730740 -0.3281686550 -1 -1
-0.0700908190 -0.3284563880 -1 -1
-0.0717930800 -0.3288517830 -1 -1
-0.0735163210 -0.3293071070 -1 -1
-0.0750985700 -0.3297789070 -1 -1
-0.0763976330 -0.3302326660 -1 -1
-0.0773032700 -0.3306427650 -1 -1
-0.0777410870 -0.3309905040 -1 -1
-0.0776711210 -0.3312622280 -1 -1
-0.0770878670 -0.3314472560 -1 -1
-0.0760244070 -0.3315353650 -1 -1
-0.0745567280 -0.3315165850 -1 -1
-0.0728027840 -0.3313857200 -1 -1
-0.0709140800 -0.3311482840 -1 -1
-0.0690611270 -0.3308219500 -1 -1
-0.0674154730 -0.3304325720 -1 -1
-0.0661316070 -0.3300088190 -1 -1
-0.0653320290 -0.3295788310 -1 -1
-0.0650960210 -0.3291693970 -1 -1
-0.0654496850 -0.3288061310 -1 -1
-0.0663581790 -0.3285126130 -1 -1
-0.0677258920 -0.3283075100 -1 -1
-0.0694069110 -0.3282001480 -1 -1
-0.0712216490 -0.3281859070 -1 -1
-0.0729747300 -0.3282435170 -1 -1
-0.0744715280 -0.3283367000 -1 -1
-0.0755336460 -0.3284209890 -1 -1
-0.0760171150 -0.3284535170 -1 -1
-0.0758340240 -0.3284020490 -1 -1
-0.0749694650 -0.3282505530 -1 -1
-0.0734846240 -0.3280005960 -1 -1
-0.0715057790 -0.3276692270 -1 -1
-0.0692057960 -0.3272847630 -1 -1
-0.0667847710 -0.3268824170 -1 -1
-0.0644537850 -0.3265005770 -1 -1
-0.0624211110 -0.3261767050 -1 -1
-0.0608751430 -0.3259424750 -1 -1
-0.0599600280 -0.3258199960 -1 -1
-0.0597491030 -0.3258209810 -1 -1
-0.0602281360 -0.3259483220 -1 -1
-0.0612970560 -0.3261974110 -1 -1
-0.0627886520 -0.3265551840 -1 -1
-0.0644965400 -0.3269981810 -1 -1
-0.0662058610 -0.3274931220 -1 -1
-0.0677217930 -0.3280012700 -1 -1
-0.0688912550 -0.3284838040 -1 -1
-0.0696152630 -0.3289042410 -1 -1
-0.0698514530 -0.3292271060 -1 -1
-0.0696074260 -0.3294164830 -1 -1
-0.0689287490 -0.3294392040 -1 -1
-0.0678884940 -0.3292733780 -1 -1
-0.0665819390 -0.3289183420 -1 -1
-0.0651225240 -0.3284012700 -1 -1
-0.0636336940 -0.3277775140 -1 -1
-0.0622368580 -0.3271237980 -1 -1
-0.0610388870 -0.3265252420 -1 -1
-0.0601211370 -0.3260592360 -1 -1
-0.0595315750 -0.3257810140 -1 -1
-0.0592824380 -0.3257158670 -1 -1
-0.0593548320 -0.3258596740 -1 -1
-0.0597083430 -0.3261852810 -1 -1
-0.0602902200 -0.3266503870 -1 -1
-0.0610389790 -0.3272028270 -1 -1
-0.0618826600 -0.3277813070 -1 -1
-0.0627363340 -0.3283140170 -1 -1
-0.0635026840 -0.3287208680 -1 -1
-0.0640777460 -0.3289233780 -1 -1
-0.0643624450 -0.3288607890 -1 -1
-0.0642767670 -0.3285059220 -1 -1
-0.0637716690 -0.3278736750 -1 -1
-0.0628360670 -0.3270197160 -1 -1
-0.0614980280 -0.3260320830 -1 -1
-0.0598215840 -0.3250192970 -1 -1
-0.0579039730 -0.3240963050 -1 -1
-0.0558756470 -0.3233686160 -1 -1
-0.0538974950 -0.3229166360 -1 -1
-0.0521465040 -0.3227835750 -1 -1
-0.0507883550 -0.3229697560 -1 -1
-0.0499465540 -0.3234346430 -1 -1
-0.0496805340 -0.3241062770 -1 -1
-0.0499777810 -0.3248955530 -1 -1
-0.0507578990 -0.3257110040 -1 -1
-0.0518858340 -0.3264705770 -1 -1
-0.0531934610 -0.3271099410 -1 -1
-0.0545063220 -0.3275883200 -1 -1
-0.0556680290 -0.3278909000 -1 -1
-0.0565562710 -0.3280255170 -1 -1
-0.0570893190 -0.3280137970 -1 -1
-0.0572247250 -0.3278807510 -1 -1
-0.0569547180 -0.3276479340 -1 -1
-0.0563041030 -0.3273325080 -1 -1
-0.0553313960 -0.3269508170 -1 -1
-0.0541286690 -0.3265234540 -1 -1
-0.0528169310 -0.3260788030 -1 -1
-0.0515371820 -0.3256527520 -1 -1
-0.0504378810 -0.3252839360 -1 -1
-0.0496582610 -0.3250063480 -1 -1
-0.0493081100 -0.3248428830 -1 -1
-0.0494496770 -0.3248024190 -1 -1
-0.0500879900 -0.3248800900 -1 -1
-0.0511699760 -0.3250590690 -1 -1
-0.0525892900 -0.3253133410 -1 -1
-0.0541955710 -0.3256113920 -1 -1
-0.0558094700 -0.3259196890 -1 -1
-0.0572456780 -0.3262049710 -1 -1
-0.0583416960 -0.3264357370 -1 -1
-0.0589832660 -0.3265837400 -1 -1
-0.0591187880 -0.3266263280 -1 -1
-0.0587621120 -0.3265500290 -1 -1
-0.0579860090 -0.3263543130 -1 -1
-0.0569083470 -0.3260540070 -1 -1
-0.0556734380 -0.3256793670 -1 -1
-0.0544316310 -0.3252721710 -1 -1
-0.0533203730 -0.3248770270 -1 -1
-0.0524498460 -0.3245317570 -1 -1
-0.0518952210 -0.3242630610 -1 -1
-0.0516949870 -0.3240890000 -1 -1
-0.0518523300 -0.3240237150 -1 -1
-0.0523368120 -0.3240791860 -1 -1
-0.0530866780 -0.3242634440 -1 -1
-0.0540147000 -0.3245781780 -1 -1
-0.0550179000 -0.3250175820 -1 -1
-0.0559866100 -0.3255676510 -1 -1
-0.0568104290 -0.3262047020 -1 -1
-0.0573864030 -0.3268932310 -1 -1
-0.0576345760 -0.3275849010 -1 -1
-0.0575156170 -0.3282213580 -1 -1
-0.0570386230 -0.3287421320 -1 -1
-0.0562534150 -0.3290955720 -1 -1
-0.0552331450 -0.3292483210 -1 -1
-0.0540584840 -0.3291896180 -1 -1
-0.0528106730 -0.3289301390 -1 -1
-0.0515718310 -0.3284982660 -1 -1
-0.0504252100 -0.3279367670 -1 -1
-0.0494510370 -0.3273002700 -1 -1
-0.0487198660 -0.3266516610 -1 -1
-0.0482863560 -0.3260561760 -1 -1
-0.0481840290 -0.3255743170 -1 -1
-0.0484211570 -0.3252554620 -1 -1
-0.0489780350 -0.3251324850 -1 -1
-0.0498053900 -0.3252169910 -1 -1
-0.0508236380 -0.3254962410 -1 -1
-0.0519227990 -0.3259336850 -1 -1
-0.0529652510 -0.3264736300 -1 -1
-0.0537971660 -0.3270483260 -1 -1
-0.0542709420 -0.3275847860 -1 -1
-0.0542716820 -0.3280103100 -1 -1
-0.0537388140 -0.3282585940 -1 -1
-0.0526785440 -0.3282784900 -1 -1
-0.0511648850 -0.3280437120 -1 -1
-0.0493282280 -0.3275586400 -1 -1
-0.0473352230 -0.3268569560 -1 -1
-0.0453672210 -0.3259939010 -1 -1
-0.0436018740 -0.3250355570 -1 -1
-0.0421987770 -0.3240490110 -1 -1
-0.0412892730 -0.3230960730 -1 -1
-0.0409687560 -0.3222311410 -1 -1
-0.0412881950 -0.3215017370 -1 -1
-0.0422450000 -0.3209491020 -1 -1
-0.0437775620 -0.3206066290 -1 -1
-0.0457665100 -0.3204960660 -1 -1
-0.0480416550 -0.3206236700 -1 -1
-0.0503934240 -0.3209783830 -1 -1
-0.0525909340 -0.3215320800 -1 -1
-0.0544086390 -0.3222407560 -1 -1
-0.0556572650 -0.3230456880 -1 -1
-0.0562096160 -0.3238750410 -1 -1
-0.0560134630 -0.3246482990 -1 -1
-0.0550891810 -0.3252858340 -1 -1
-0.0535159930 -0.3257229300 -1 -1
-0.0514153100 -0.3259237500 -1 -1
-0.0489388560 -0.3258889950 -1 -1
-0.0462631020 -0.3256532490 -1 -1
-0.0435848560 -0.3252731730 -1 -1
-0.0411099110 -0.3248118850 -1 -1
-0.0390316020 -0.3243257560 -1 -1
-0.0375063820 -0.3238582980 -1 -1
-0.0366366170 -0.3234417990 -1 -1
-0.0364626530 -0.3231018780 -1 -1
-0.0369591550 -0.3228588040 -1 -1
-0.0380343230 -0.3227245840 -1 -1
-0.0395377590 -0.3226999180 -1 -1
-0.0412812380 -0.3227737320 -1 -1
-0.0430669140 -0.3229242700 -1 -1
-0.0447113290 -0.3231209210 -1 -1
-0.0460584370 -0.3233276130 -1 -1
-0.0469856010 -0.3235074600 -1 -1
-0.0474120890 -0.3236268110 -1 -1
-0.0473132810 -0.3236578840 -1 -1
-0.0467315200 -0.3235811590 -1 -1
-0.0457716360 -0.3233883670 -1 -1
-0.0445801260 -0.3230847420 -1 -1
-0.0433178850 -0.3226890590 -1 -1
-0.0421364710 -0.3222322050 -1 -1
-0.0411618140 -0.3217554590 -1 -1
-0.0404845390 -0.3213077160 -1 -1
-0.0401547300 -0.3209405060 -1 -1
-0.0401806030 -0.3207015010 -1 -1
-0.0405339290 -0.3206283400 -1 -1
-0.0411641300 -0.3207444920 -1 -1
-0.0420156340 -0.3210585260 -1 -1
-0.0430376860 -0.3215660840 -1 -1
-0.0441798130 -0.3222509310 -1 -1
-0.0453768380 -0.3230821110 -1 -1
-0.0465368590 -0.3240094420 -1 -1
-0.0475458490 -0.3249629970 -1 -1
-0.0482895010 -0.3258594790 -1 -1
-0.0486788420 -0.3266134040 -1 -1
-0.0486652400 -0.3271495400 -1 -1
-0.0482405590 -0.3274139470 -1 -1
-0.0474292510 -0.3273813150 -1 -1
-0.0462830690 -0.3270572460 -1 -1
-0.0448821650 -0.3264763760 -1 -1
-0.0433367850 -0.3256978970 -1 -1
-0.0417818740 -0.3247989600 -1 -1
-0.0403622870 -0.3238664240 -1 -1
-0.0392124780 -0.3229880520 -1 -1
-0.0384369110 -0.3222439940 -1 -1
-0.0380967870 -0.3216988480 -1 -1
-0.0382060070 -0.3213946670 -1 -1
-0.0387343140 -0.3213454550 -1 -1
-0.0396124180 -0.3215337610 -1 -1
-0.0407363280 -0.3219103560 -1 -1
-0.0419740540 -0.3223986270 -1 -1
-0.0431798510 -0.3229048370 -1 -1
-0.0442146850 -0.3233332620 -1 -1
-0.0449629070 -0.3236028810 -1 -1
-0.0453368960 -0.3236612980 -1 -1
-0.0452744530 -0.3234921900 -1 -1
-0.0447413450 -0.3231144450 -1 -1
-0.0437433410 -0.3225736590 -1 -1
-0.0423396790 -0.3219290980 -1 -1
-0.0406475550 -0.3212412080 -1 -1
-0.0388337820 -0.3205641170 -1 -1
-0.0370958920 -0.3199438090 -1 -1
-0.0356371400 -0.3194194510 -1 -1
-0.0346405170 -0.3190251020 -1 -1
-0.0342455620 -0.3187902520 -1 -1
-0.0345293730 -0.3187385110 -1 -1
-0.0354941080 -0.3188845770 -1 -1
-0.0370657740 -0.3192301700 -1 -1
-0.0391062060 -0.3197597210 -1 -1
-0.0414334910 -0.3204368240 -1 -1
-0.0438439410 -0.3212039450 -1 -1
-0.0461310360 -0.3219883780 -1 -1
-0.0480985440 -0.3227144170 -1 -1
-0.0495683480 -0.3233179140 -1 -1
-0.0503889270 -0.3237587540 -1 -1
-0.0504497380 -0.3240280960 -1 -1
-0.0496978520 -0.3241481970 -1 -1
-0.0481491410 -0.3241642460 -1 -1
-0.0458923840 -0.3241312140 -1 -1
-0.0430878690 -0.3241013460 -1 -1
-0.0399565190 -0.3241164530 -1 -1
-0.0367546100 -0.3242048740 -1 -1
-0.0337387670 -0.3243808690 -1 -1
-0.0311341030 -0.3246455470 -1 -1
-0.0291150940 -0.3249897080 0 -1
-0.0277987660 -0.3253977470 0 -1
-0.0272439340 -0.3258499650 0 -1
-0.0274515340 -0.3263213520 0 -1
-0.0283645930 -0.3267785860 0 -1
-0.0298697960 -0.3271796570 0 -1
-0.0318052320 -0.3274786320 -1 -1
-0.0339767810 -0.3276341180 -1 -1
-0.0361787250 -0.3276178040 -1 -1
-0.0382118490 -0.3274194750 -1 -1
-0.0398978020 -0.3270468710 -1 -1
-0.0410927510 -0.3265219760 -1 -1
-0.0417019850 -0.3258764570 -1 -1
-0.0416933250 -0.3251478060 -1 -1
-0.0411039770 -0.3243769230 -1 -1
-0.0400360790 -0.3236078300 -1 -1
-0.0386410110 -0.3228884170 -1 -1
-0.0370965630 -0.3222688130 -1 -1
-0.0355819620 -0.3217953800 -1 -1
-0.0342552430 -0.3215026250 -1 -1
-0.0332356620 -0.3214067610 -1 -1
