-0.0326401670 -0.0187256040 -1 0
-0.0326973870 -0.0170543040 -1 0
-0.0327067370 -0.0161305370 -1 0
-0.0326298010 -0.0160567810 -1 0
-0.0324373300 -0.0168470090 -1 0
-0.0321083990 -0.0184277210 -1 0
-0.0316307600 -0.0206477660 -1 0
-0.0310039370 -0.0232949060 -1 0
-0.0302423560 -0.0261167140 -1 0
-0.0293745150 -0.0288443840 0 0
-0.0284382860 -0.0312182510 0 -1
-0.0274761100 -0.0330129650 0 -1
-0.0265323970 -0.0340597560 0 -1
-0.0256519790 -0.0342630650 0 -1
-0.0248778670 -0.0336095530 0 -1
-0.0242476820 -0.0321697880 0 -1
-0.0237889660 -0.0300944080 0 -1
-0.0235148740 -0.0276052790 0 0
-0.0234218560 -0.0249794820 0 0
-0.0234894100 -0.0225232630 0 0
-0.0236819800 -0.0205364530 0 0
-0.0239537180 -0.0192731450 0 0
-0.0242547920 -0.0189071570 0 0
-0.0245353210 -0.0195095740 0 0
-0.0247455210 -0.0210418310 0 0
-0.0248360720 -0.0233634190 0 0
-0.0247636000 -0.0262504610 0 0
-0.0245011760 -0.0294212660 0 0
-0.0240486370 -0.0325659930 0 -1
-0.0234369870 -0.0353775710 0 -1
-0.0227244840 -0.0375805830 0 -1
-0.0219859190 -0.0389549250 0 -1
-0.0212992980 -0.0393517990 0 -1
-0.0207343100 -0.0387014740 0 -1
-0.0203438610 -0.0370148540 0 -1
-0.0201579370 -0.0343818660 0 -1
-0.0201807650 -0.0309675020 0 -1
-0.0203922370 -0.0270035790 0 0
-0.0207512420 -0.0227744070 0 0
-0.0211986230 -0.0185965020 0 0
-0.0216614460 -0.0147931090 0 0
-0.0220616750 -0.0116645560 0 0
-0.0223289510 -0.0094574010 0 0
-0.0224129880 -0.0083373620 0 0
-0.0222904180 -0.0083707630 0 0
-0.0219645480 -0.0095173190 0 0
-0.0214606250 -0.0116349560 0 0
-0.0208203140 -0.0144953700 0 0
-0.0200981580 -0.0178074770 0 0
-0.0193613700 -0.0212454820 0 0
-0.0186915310 -0.0244791460 0 0
-0.0181833000 -0.0272045020 0 0
-0.0179351740 -0.0291725890 0 0
-0.0180321210 -0.0302130620 0 -1
-0.0185262040 -0.0302511030 0 -1
-0.0194233020 -0.0293177770 0 0
-0.0206799140 -0.0275529370 0 0
-0.0222091960 -0.0251966650 0 0
-0.0238946440 -0.0225645570 0 0
-0.0256092550 -0.0200069210 0 0
-0.0272347310 -0.0178598920 0 0
-0.0286740810 -0.0164007260 0 0
-0.0298556870 -0.0158166270 0 0
-0.0307328420 -0.0161900990 -1 0
-0.0312835850 -0.0174989370 -1 0
-0.0315120560 -0.0196268580 -1 0
-0.0314498540 -0.0223809440 -1 0
-0.0311551140 -0.0255129960 -1 0
-0.0307066390 -0.0287427740 -1 0
-0.0301925540 -0.0317818360 -1 -1
-0.0296977220 -0.0343571820 0 -1
-0.0292956040 -0.0362337610 0 -1
-0.0290458870 -0.0372348660 0 -1
-0.0289944290 -0.0372589480 0 -1
-0.0291717990 -0.0362900110 0 -1
-0.0295895250 -0.0343987630 0 -1
-0.0302360820 -0.0317346160 -1 -1
-0.0310762940 -0.0285116900 -1 0
-0.0320574920 -0.0249918410 -1 0
-0.0331217640 -0.0214651800 -1 0
-0.0342177140 -0.0182269290 -1 0
-0.0353041430 -0.0155508380 -1 0
-0.0363441310 -0.0136619430 -1 0
-0.0372944330 -0.0127127190 -1 0
-0.0380974690 -0.0127665620 -1 0
-0.0386821800 -0.0137913610 -1 0
-0.0389760000 -0.0156638950 -1 0
-0.0389243880 -0.0181838540 -1 0
-0.0385101170 -0.0210950220 -1 0
-0.0377654460 -0.0241106850 -1 0
-0.0367746490 -0.0269404230 -1 0
-0.0356662960 -0.0293161710 -1 0
-0.0345943480 -0.0310162250 -1 -1
-0.0337106580 -0.0318854650 -1 -1
-0.0331371020 -0.0318491660 -1 -1
-0.0329457620 -0.0309184880 -1 -1
-0.0331509250 -0.0291874700 -1 0
-0.0337127730 -0.0268223450 -1 0
-0.0345499750 -0.0240448120 -1 0
-0.0355564200 -0.0211117490 -1 0
-0.0366176950 -0.0182941420 -1 0
-0.0376241620 -0.0158569850 -1 0
-0.0384782320 -0.0140405440 -1 0
-0.0390961730 -0.0130422620 -1 0
-0.0394087380 -0.0129982400 -1 0
-0.0393658270 -0.0139646900 -1 0
-0.0389466840 -0.0159032100 -1 0
-0.0381699260 -0.0186757750 -1 0
-0.0370941990 -0.0220535830 -1 0
-0.0358069400 -0.0257397210 -1 0
-0.0344087250 -0.0294019830 -1 0
-0.0330021470 -0.0327107550 -1 -1
-0.0316865660 -0.0353771400 -1 -1
-0.0305540290 -0.0371863330 -1 -1
-0.0296835930 -0.0380210270 0 -1
-0.0291352660 -0.0378714030 0 -1
-0.0289442980 -0.0368321360 0 -1
-0.0291155750 -0.0350887340 0 -1
-0.0296198020 -0.0328944570 0 -1
-0.0303938930 -0.0305393150 -1 -1
-0.0313459160 -0.0283155300 -1 0
-0.0323633130 -0.0264847170 -1 0
-0.0333232640 -0.0252497300 -1 0
-0.0341044380 -0.0247329670 -1 0
-0.0345996730 -0.0249641820 -1 0
-0.0347285530 -0.0258804460 -1 0
-0.0344481220 -0.0273375230 -1 0
-0.0337602450 -0.0291293710 -1 0
-0.0327133410 -0.0310125750 -1 -1
-0.0313952980 -0.0327333140 -1 -1
-0.0299182030 -0.0340546580 0 -1
-0.0284017110 -0.0347819150 0 -1
-0.0269623820 -0.0347830300 0 -1
-0.0257101320 -0.0340006700 0 -1
-0.0247460400 -0.0324546730 0 -1
-0.0241550590 -0.0302368410 0 -1
-0.0239924330 -0.0275011370 0 0
-0.0242683480 -0.0244512450 0 0
-0.0249380870 -0.0213258990 0 0
-0.0259037970 -0.0183812080 0 0
-0.0270283230 -0.0158697130 0 0
-0.0281558240 -0.0140177610 0 0
-0.0291326610 -0.0130033770 0 0
-0.0298242870 -0.0129363680 0 0
-0.0301264210 -0.0138428920 -1 0
-0.0299713300 -0.0156578560 0 0
-0.0293325590 -0.0182281450 0 0
-0.0282313320 -0.0213268920 0 0
-0.0267428150 -0.0246759380 0 0
-0.0249951380 -0.0279726220 0 0
-0.0231555900 -0.0309173690 0 -1
-0.0214054090 -0.0332393870 0 -1
-0.0199105100 -0.0347200080 0 -1
-0.0187966160 -0.0352144620 0 -1
-0.0181353120 -0.0346709100 0 -1
-0.0179434680 -0.0331429020 0 -1
-0.0181927080 -0.0307910670 0 -1
-0.0188221000 -0.0278710830 0 0
-0.0197497800 -0.0247078170 0 0
-0.0208837370 -0.0216589350 0 0
-0.0221323270 -0.0190728820 0 0
-0.0234132500 -0.0172461510 0 0
-0.0246596150 -0.0163858100 0 0
-0.0258224470 -0.0165847700 0 0
-0.0268698030 -0.0178151660 0 0
-0.0277838260 -0.0199388200 0 0
-0.0285581620 -0.0227288450 0 0
-0.0291975340 -0.0258968120 0 0
-0.0297188730 -0.0291227790 0 0
-0.0301512070 -0.0320870060 -1 -1
-0.0305318040 -0.0345014060 -1 -1
-0.0308992450 -0.0361370580 -1 -1
-0.0312868380 -0.0368435940 -1 -1
-0.0317190790 -0.0365583910 -1 -1
-0.0322119530 -0.0353067000 -1 -1
-0.0327768590 -0.0331953630 -1 -1
-0.0334256600 -0.0304016420 -1 -1
-0.0341723080 -0.0271575630 -1 0
-0.0350278280 -0.0237311580 -1 0
-0.0359897460 -0.0204068820 -1 0
-0.0370321070 -0.0174654420 -1 0
-0.0381035410 -0.0151611520 -1 0
-0.0391357350 -0.0136968710 -1 0
-0.0400576170 -0.0132011880 -1 0
-0.0408080980 -0.0137138770 -1 0
-0.0413440720 -0.0151822130 -1 0
-0.0416452130 -0.0174669360 -1 0
-0.0417171430 -0.0203554030 -1 0
-0.0415910920 -0.0235801750 -1 0
-0.0413175690 -0.0268427640 -1 0
-0.0409549310 -0.0298429830 -1 0
-0.0405574010 -0.0323123930 -1 -1
-0.0401682700 -0.0340469290 -1 -1
-0.0398208820 -0.0349315630 -1 -1
-0.0395446400 -0.0349510260 -1 -1
-0.0393704310 -0.0341845590 -1 -1
-0.0393306320 -0.0327874120 -1 -1
-0.0394519100 -0.0309650340 -1 -1
-0.0397440430 -0.0289465280 -1 0
-0.0401917310 -0.0269619150 -1 0
-0.0407545370 -0.0252246790 -1 0
-0.0413741410 -0.0239185080 -1 0
-0.0419834140 -0.0231866440 -1 0
-0.0425128200 -0.0231239560 -1 0
-0.0428953070 -0.0237721110 -1 0
-0.0430744500 -0.0251162540 -1 0
-0.0430165770 -0.0270811870 -1 0
-0.0427203970 -0.0295282580 -1 0
-0.0422169140 -0.0322577610 -1 -1
-0.0415596170 -0.0350212780 -1 -1
-0.0408120140 -0.0375445000 -1 -1
-0.0400388560 -0.0395573720 -1 -1
-0.0393014430 -0.0408269980 -1 -1
-0.0386537230 -0.0411882900 -1 -1
-0.0381369420 -0.0405671910 -1 -1
-0.0377742790 -0.0389926910 -1 -1
-0.0375692590 -0.0365961810 -1 -1
-0.0375092070 -0.0335982670 -1 -1
-0.0375704480 -0.0302844290 -1 -1
-0.0377218500 -0.0269725510 -1 0
-0.0379272140 -0.0239768130 -1 0
-0.0381479740 -0.0215727730 -1 0
-0.0383454690 -0.0199676810 -1 0
-0.0384818730 -0.0192794820 -1 0
-0.0385212830 -0.0195274550 -1 0
-0.0384340500 -0.0206350250 -1 0
-0.0382054090 -0.0224421040 -1 0
-0.0378447220 -0.0247237420 -1 0
-0.0373896840 -0.0272136210 -1 0
-0.0369024140 -0.0296308870 -1 0
-0.0364576410 -0.0317067060 -1 -1
-0.0361259260 -0.0332071000 -1 -1
-0.0359575240 -0.0339514430 -1 -1
-0.0359725670 -0.0338273510 -1 -1
-0.0361599240 -0.0328008230 -1 -1
-0.0364840530 -0.0309191560 -1 -1
-0.0368974410 -0.0283061610 -1 0
-0.0373535960 -0.0251521120 -1 0
-0.0378143170 -0.0217009800 -1 0
-0.0382488870 -0.0182349140 -1 0
-0.0386282390 -0.0150542680 -1 0
-0.0389194570 -0.0124529600 -1 0
-0.0390848030 -0.0106910470 -1 0
-0.0390852820 -0.0099665610 -1 0
-0.0388854370 -0.0103885440 -1 0
-0.0384567990 -0.0119552180 -1 0
-0.0377796740 -0.0145438290 -1 0
-0.0368449220 -0.0179178130 -1 0
-0.0356586970 -0.0217515080 -1 0
-0.0342518300 -0.0256671020 -1 0
-0.0326900220 -0.0292770100 -1 0
-0.0310761390 -0.0322261470 -1 -1
-0.0295391080 -0.0342298840 0 -1
-0.0282136460 -0.0351043130 0 -1
-0.0272201530 -0.0347852570 0 -1
-0.0266496680 -0.0333323700 0 -1
-0.0265532430 -0.0309168870 0 -1
-0.0269352780 -0.0277955880 0 0
-0.0277523310 -0.0242770360 0 0
-0.0289179180 -0.0206872850 0 0
-0.0303118330 -0.0173404020 -1 0
-0.0317922330 -0.0145156760 -1 0
-0.0332098380 -0.0124398710 -1 0
-0.0344243270 -0.0112715080 -1 0
-0.0353226250 -0.0110868700 -1 0
-0.0358363390 -0.0118715720 -1 0
-0.0359526240 -0.0135222090 -1 0
-0.0357138990 -0.0158587330 -1 0
-0.0352066170 -0.0186438410 -1 0
-0.0345425840 -0.0216054400 -1 0
-0.0338372260 -0.0244607250 -1 0
-0.0331905570 -0.0269413090 -1 0
-0.0326767880 -0.0288178160 -1 0
-0.0323433640 -0.0299213890 -1 0
-0.0322139110 -0.0301600960 -1 -1
-0.0322909130 -0.0295292040 -1 0
-0.0325588010 -0.0281140780 -1 0
-0.0329880180 -0.0260834790 -1 0
-0.0335379040 -0.0236721630 -1 0
-0.0341570450 -0.0211554480 -1 0
-0.0347832220 -0.0188212540 -1 0
-0.0353457430 -0.0169442740 -1 0
-0.0357702580 -0.0157640560 -1 0
-0.0359841450 -0.0154663970 -1 0
-0.0359218670 -0.0161666420 -1 0
-0.0355322780 -0.0178943320 -1 0
-0.0347897300 -0.0205808480 -1 0
-0.0337070900 -0.0240540530 -1 0
-0.0323456420 -0.0280449670 -1 0
-0.0308164510 -0.0322093270 -1 -1
-0.0292694810 -0.0361622750 0 -1
-0.0278715970 -0.0395205970 0 -1
-0.0267806590 -0.0419462170 0 -1
-0.0261236980 -0.0431853160 0 -1
-0.0259826310 -0.0430978270 0 -1
-0.0263868470 -0.0416733920 0 -1
-0.0273111520 -0.0390320680 0 -1
-0.0286787650 -0.0354101200 0 -1
-0.0303701710 -0.0311331310 -1 -1
-0.0322375470 -0.0265800810 -1 0
-0.0341218860 -0.0221425840 -1 0
-0.0358691630 -0.0181840700 -1 0
-0.0373433250 -0.0150041600 -1 0
-0.0384359350 -0.0128127210 -1 0
-0.0390735620 -0.0117159230 -1 0
-0.0392232200 -0.0117144540 -1 0
-0.0388953910 -0.0127124550 -1 0
-0.0381441520 -0.0145340980 -1 0
-0.0370622750 -0.0169439880 -1 0
-0.0357695930 -0.0196691000 -1 0
-0.0343970960 -0.0224218530 -1 0
-0.0330714550 -0.0249238540 -1 0
-0.0319032680 -0.0269285270 -1 0
-0.0309805930 -0.0282405200 -1 0
-0.0303673710 -0.0287312190 -1 0
-0.0301032960 -0.0283511860 -1 0
-0.0302009950 -0.0271391000 -1 0
-0.0306409130 -0.0252237630 -1 0
-0.0313691230 -0.0228150450 -1 0
-0.0323025430 -0.0201840440 -1 0
-0.0333408250 -0.0176373720 -1 0
-0.0343801550 -0.0154891890 -1 0
-0.0353249920 -0.0140304710 -1 0
-0.0360967050 -0.0134954670 -1 0
-0.0366383870 -0.0140295670 -1 0
-0.0369152710 -0.0156649250 -1 0
-0.0369131450 -0.0183088420 -1 0
-0.0366379900 -0.0217479490 -1 0
-0.0361163180 -0.0256690780 -1 0
-0.0353937020 -0.0296940040 -1 0
-0.0345314560 -0.0334217020 -1 -1
-0.0336031790 -0.0364718400 -1 -1
-0.0326913010 -0.0385259390 -1 -1
-0.0318816360 -0.0393636580 -1 -1
-0.0312540030 -0.0388899920 -1 -1
-0.0308702510 -0.0371478170 -1 -1
-0.0307642140 -0.0343123400 -1 -1
-0.0309369370 -0.0306687250 -1 -1
-0.0313575680 -0.0265779570 -1 0
-0.0319692970 -0.0224365060 -1 0
-0.0326990920 -0.0186339100 -1 0
-0.0334689680 -0.0155118040 -1 0
-0.0342056190 -0.0133288190 -1 0
-0.0348454140 -0.0122366180 -1 0
-0.0353351600 -0.0122704290 -1 0
-0.0356326820 -0.0133540850 -1 0
-0.0357106690 -0.0153170750 -1 0
-0.0355630340 -0.0179193720 -1 0
-0.0352087080 -0.0208786690 -1 0
-0.0346883890 -0.0238959830 -1 0
-0.0340566870 -0.0266785300 -1 0
-0.0333760020 -0.0289611320 -1 0
-0.0327139440 -0.0305281540 -1 -1
-0.0321411980 -0.0312362420 -1 -1
-0.0317264340 -0.0310338960 -1 -1
-0.0315268790 -0.0299710270 -1 0
-0.0315769300 -0.0281935920 -1 0
-0.0318801520 -0.0259232320 -1 0
-0.0324078400 -0.0234261320 -1 0
-0.0331022410 -0.0209780330 -1 0
-0.0338819780 -0.0188324320 -1 0
-0.0346505450 -0.0171962170 -1 0
-0.0353083980 -0.0162139810 -1 0
-0.0357659720 -0.0159606400 -1 0
-0.0359548450 -0.0164406620 -1 0
-0.0358352130 -0.0175915540 -1 0
-0.0353983360 -0.0192903810 -1 0
-0.0346659720 -0.0213637450 -1 0
-0.0336904570 -0.0236021920 -1 0
-0.0325542760 -0.0257789550 -1 0
-0.0313643450 -0.0276712520 -1 0
-0.0302403490 -0.0290814340 -1 0
-0.0293016700 -0.0298558260 0 0
-0.0286559950 -0.0299005130 0 0
-0.0283874330 -0.0291936900 0 0
-0.0285413570 -0.0277923730 0 0
-0.0291097660 -0.0258304350 0 0
-0.0300274900 -0.0235067070 -1 0
-0.0311861090 -0.0210638210 -1 0
-0.0324603960 -0.0187600990 -1 0
-0.0337341450 -0.0168394420 -1 0
-0.0349155810 -0.0155051340 -1 0
-0.0359412880 -0.0149004240 -1 0
-0.0367723450 -0.0150948040 -1 0
-0.0373860270 -0.0160752440 -1 0
-0.0377667880 -0.0177448990 -1 0
-0.0379021870 -0.0199321060 -1 0
-0.0377867660 -0.0224088810 -1 0
-0.0374303560 -0.0249146010 -1 0
-0.0368648280 -0.0271800410 -1 0
-0.0361457810 -0.0289496420 -1 0
-0.0353479460 -0.0300030780 -1 -1
-0.0345552950 -0.0301772220 -1 -1
-0.0338501810 -0.0293870670 -1 0
-0.0333065970 -0.0276418140 -1 0
-0.0329879360 -0.0250514200 -1 0
-0.0329439050 -0.0218202120 -1 0
-0.0332027500 -0.0182272460 -1 0
-0.0337621600 -0.0145964040 -1 0
-0.0345856460 -0.0112618620 -1 0
-0.0356081890 -0.0085345130 -1 0
-0.0367491390 -0.0066717280 -1 0
-0.0379257730 -0.0058507980 -1 0
-0.0390614530 -0.0061484530 -1 0
-0.0400876950 -0.0075310800 -1 0
-0.0409434170 -0.0098582240 -1 0
-0.0415745570 -0.0128980840 -1 0
-0.0419367800 -0.0163522360 -1 0
-0.0420027180 -0.0198872500 -1 0
-0.0417708140 -0.0231702520 -1 0
-0.0412700700 -0.0259040340 -1 0
-0.0405576990 -0.0278572890 -1 0
-0.0397114770 -0.0288869540 -1 0
-0.0388204940 -0.0289505310 -1 0
-0.0379759670 -0.0281062280 -1 0
-0.0372619020 -0.0265001470 -1 0
-0.0367463570 -0.0243430390 -1 0
-0.0364745580 -0.0218823750 -1 0
-0.0364628450 -0.0193759260 -1 0
-0.0366921560 -0.0170703730 -1 0
-0.0371051190 -0.0151845810 -1 0
-0.0376137700 -0.0138951550 -1 0
-0.0381170390 -0.0133236180 -1 0
-0.0385190140 -0.0135271390 -1 0
-0.0387435200 -0.0144941580 -1 0
-0.0387475430 -0.0161441350 -1 0
-0.0385319380 -0.0183308300 -1 0
-0.0381413010 -0.0208508150 -1 0
-0.0376498530 -0.0234592900 -1 0
-0.0371406320 -0.0258925660 -1 0
-0.0366872370 -0.0278938080 -1 0
-0.0363419180 -0.0292383590 -1 0
-0.0361306280 -0.0297561490 -1 0
-0.0360545490 -0.0293493050 -1 0
-0.0360959190 -0.0280031580 -1 0
-0.0362255630 -0.0257887180 -1 0
-0.0364112380 -0.0228552030 -1 0
-0.0366268080 -0.0194134450 -1 0
-0.0368595600 -0.0157139870 -1 0
-0.0371104850 -0.0120252620 -1 0
-0.0373851590 -0.0086154020 -1 0
-0.0376793160 -0.0057366500 -1 0
-0.0379669410 -0.0036088130 -1 0
-0.0381982480 -0.0024005470 -1 0
-0.0383106080 -0.0022118370 -1 0
-0.0382474950 -0.0030622130 -1 0
-0.0379749540 -0.0048866860 -1 0
-0.0374881120 -0.0075387270 -1 0
-0.0368082490 -0.0107988570 -1 0
-0.0359758660 -0.0143880000 -1 0
-0.0350437310 -0.0179866560 -1 0
-0.0340700970 -0.0212622030 -1 0
-0.0331115800 -0.0239047800 -1 0
-0.0322181560 -0.0256674820 -1 0
-0.0314338870 -0.0264021160 -1 0
-0.0308018600 -0.0260809570 -1 0
-0.0303660500 -0.0247989710 -1 0
-0.0301650440 -0.0227570940 -1 0
-0.0302192310 -0.0202322190 -1 0
-0.0305161880 -0.0175413550 -1 0
-0.0309997980 -0.0150060700 -1 0
-0.0315696390 -0.0129206660 -1 0
-0.0320955240 -0.0115254140 -1 0
-0.0324452600 -0.0109849530 -1 0
-0.0325148890 -0.0113719880 -1 0
-0.0322479670 -0.0126575400 -1 0
-0.0316390030 -0.0147103070 -1 0
-0.0307271500 -0.0173079310 -1 0
-0.0295872960 -0.0201608360 0 0
-0.0283201510 -0.0229455020 0 0
-0.0270410320 -0.0253417480 0 0
-0.0258679500 -0.0270684000 0 0
-0.0249091400 -0.0279126040 0 0
-0.0242505920 -0.0277492860 0 0
-0.0239461830 -0.0265491310 0 0
-0.0240131730 -0.0243764770 0 0
-0.0244342040 -0.0213810420 0 0
-0.0251641080 -0.0177865600 0 0
-0.0261373700 -0.0138762760 0 0
-0.0272738610 -0.0099732950 0 0
-0.0284842080 -0.0064143690 0 0
-0.0296759870 -0.0035190400 0 0
-0.0307594430 -0.0015597780 -1 0
-0.0316510950 -0.0007384860 -1 0
-0.0322768270 -0.0011699720 -1 0
-0.0325789590 -0.0028692060 -1 0
-0.0325279040 -0.0057413060 -1 0
-0.0321321200 -0.0095787560 -1 0
-0.0314409230 -0.0140721290 -1 0
-0.0305418100 -0.0188369600 -1 0
-0.0295540120 -0.0234541620 0 0
-0.0286142110 -0.0275165680 0 0
-0.0278528670 -0.0306719880 0 -1
-0.0273697120 -0.0326559050 0 -1
-0.0272199850 -0.0333119630 0 -1
-0.0274150480 -0.0326019230 0 -1
-0.0279321410 -0.0306076830 0 -1
-0.0287255540 -0.0275255330 0 0
-0.0297341430 -0.0236496470 0 0
-0.0308834300 -0.0193428890 -1 0
-0.0320842380 -0.0149977450 -1 0
-0.0332335720 -0.0109934770 -1 0
-0.0342225280 -0.0076557520 -1 0
-0.0349499020 -0.0052241310 -1 0
-0.0353350990 -0.0038311980 -1 0
-0.0353262410 -0.0034947890 -1 0
-0.0349056750 -0.0041236410 -1 0
-0.0340955640 -0.0055358780 -1 0
-0.0329599320 -0.0074867310 -1 0
-0.0315976890 -0.0096997250 -1 0
-0.0301280430 -0.0118975450 -1 0
-0.0286746160 -0.0138308460 0 0
-0.0273510380 -0.0153029080 0 0
-0.0262479360 -0.0161871510 0 0
-0.0254243350 -0.0164346200 0 0
-0.0249066000 -0.0160701950 0 0
-0.0246920010 -0.0151797970 0 0
-0.0247514610 -0.0138933190 0 0
-0.0250314250 -0.0123676230 0 0
-0.0254600760 -0.0107722520 0 0
-0.0259600980 -0.0092783380 0 0
-0.0264615990 -0.0080493490 0 0
-0.0269072130 -0.0072322280 0 0
-0.0272502920 -0.0069483300 0 0
-0.0274530320 -0.0072839410 0 0
-0.0274874380 -0.0082801440 0 0
-0.0273375210 -0.0099218610 0 0
-0.0270018830 -0.0121272590 0 0
-0.0264969710 -0.0147422760 0 0
-0.0258586960 -0.0175468400 0 0
-0.0251390170 -0.0202755430 0 0
-0.0243983510 -0.0226491330 0 0
-0.0236984890 -0.0244102860 0 0
-0.0230984280 -0.0253579910 0 0
-0.0226512420 -0.0253759120 0 0
-0.0224001370 -0.0244501700 0 0
-0.0223745830 -0.0226732690 0 0
-0.0225878800 -0.0202337380 0 0
-0.0230358510 -0.0173934880 0 0
-0.0236954800 -0.0144562190 0 0
-0.0245229440 -0.0117317710 0 0
-0.0254527760 -0.0095019850 0 0
-0.0264020450 -0.0079921470 0 0
-0.0272814880 -0.0073501530 0 0
-0.0280098540 -0.0076347240 0 0
-0.0285243230 -0.0088131550 0 0
-0.0287834760 -0.0107672100 0 0
-0.0287666750 -0.0133042370 0 0
-0.0284755060 -0.0161720660 0 0
-0.0279363050 -0.0190795900 0 0
-0.0271979080 -0.0217250560 0 0
-0.0263226920 -0.0238297910 0 0
-0.0253755450 -0.0251713480 0 0
-0.0244171040 -0.0256098860 0 0
-0.0235034990 -0.0251033280 0 0
-0.0226887790 -0.0237097190 0 0
-0.0220245590 -0.0215782500 0 0
-0.0215553970 -0.0189317260 0 0
-0.0213126530 -0.0160434200 0 0
-0.0213090850 -0.0132116580 0 0
-0.0215334890 -0.0107345260 0 0
-0.0219447500 -0.0088842520 0 0
-0.0224687250 -0.0078796990 0 0
-0.0230037960 -0.0078587710 0 0
-0.0234380550 -0.0088571730 0 0
-0.0236748920 -0.0108006930 0 0
-0.0236584430 -0.0135138160 0 0
-0.0233895910 -0.0167411220 0 0
-0.0229279760 -0.0201750660 0 0
-0.0223806680 -0.0234861670 0 0
-0.0218796250 -0.0263552340 0 0
-0.0215520380 -0.0285073650 0 0
-0.0214921820 -0.0297440250 0 0
-0.0217452550 -0.0299662290 0 0
-0.0223086990 -0.0291825610 0 0
-0.0231475590 -0.0275007310 0 0
-0.0242129860 -0.0251069970 0 0
-0.0254524020 -0.0222403110 0 0
-0.0268079480 -0.0191673120 0 0
-0.0282093160 -0.0161618000 0 0
-0.0295682720 -0.0134885120 0 0
-0.0307784380 -0.0113875010 -1 0
-0.0317224750 -0.0100557450 -1 0
-0.0322879660 -0.0096273610 -1 0
-0.0323893240 -0.0101578230 -1 0
-0.0319887570 -0.0116162360 -1 0
-0.0311083590 -0.0138848860 -1 0
-0.0298286440 -0.0167637410 0 0
-0.0282746090 -0.0199813600 0 0
-0.0265947310 -0.0232164320 0 0
-0.0249383530 -0.0261306550 0 0
-0.0234352960 -0.0284079660 0 0
-0.0221805220 -0.0297923650 0 0
-0.0212253320 -0.0301175510 0 -1
-0.0205765550 -0.0293241160 0 0
-0.0202060560 -0.0274629090 0 0
-0.0200683060 -0.0246857490 0 0
-0.0201165400 -0.0212264890 0 0
-0.0203098650 -0.0173761470 0 0
-0.0206128530 -0.0134554870 0 0
-0.0209925110 -0.0097876820 0 0
-0.0214149210 -0.0066726010 0 0
-0.0218425240 -0.0043629180 0 0
-0.0222331350 -0.0030418080 0 0
-0.0225411030 -0.0028035100 0 0
-0.0227205160 -0.0036399020 0 0
-0.0227299690 -0.0054367620 0 0
-0.0225389950 -0.0079833490 0 0
-0.0221366680 -0.0109970530 0 0
-0.0215402710 -0.0141594860 0 0
-0.0207992310 -0.0171553680 0 0
-0.0199905980 -0.0197064320 0 0
-0.0192048260 -0.0215968910 0 0
-0.0185252220 -0.0226897470 0 0
-0.0180110350 -0.0229338130 0 0
-0.0176933860 -0.0223618490 0 0
-0.0175820740 -0.0210813470 0 0
-0.0176733550 -0.0192606000 0 0
-0.0179532980 -0.0171120210 0 0
-0.0183989900 -0.0148728240 0 0
-0.0189798440 -0.0127829100 0 0
-0.0196575200 -0.0110618040 0 0
-0.0203848840 -0.0098877930 0 0
-0.0211087630 -0.0093817970 0 0
-0.0217784260 -0.0095969300 0 0
-0.0223550690 -0.0105140110 0 0
-0.0228165880 -0.0120438030 0 0
-0.0231561950 -0.0140372870 0 0
-0.0233776610 -0.0163034800 0 0
-0.0234911260 -0.0186310780 0 0
-0.0235109350 -0.0208096540 0 0
-0.0234545190 -0.0226482390 0 0
-0.0233416710 -0.0239904880 0 0
-0.0231946560 -0.0247261850 0 0
-0.0230390520 -0.0247999090 0 0
-0.0229038390 -0.0242174720 0 0
-0.0228189870 -0.0230484700 0 0
-0.0228110240 -0.0214218510 0 0
-0.0228981780 -0.0195128760 0 0
-0.0230848470 -0.0175231150 0 0
-0.0233548690 -0.0156576220 0 0
-0.0236664800 -0.0141034930 0 0
-0.0239545300 -0.0130115730 0 0
-0.0241438580 -0.0124811920 0 0
-0.0241706280 -0.0125485830 0 0
-0.0240009270 -0.0131819040 0 0
-0.0236375740 -0.0142855360 0 0
-0.0231158480 -0.0157123580 0 0
-0.0224941380 -0.0172798680 0 0
-0.0218435280 -0.0187881520 0 0
-0.0212375830 -0.0200401990 0 0
-0.0207430140 -0.0208636160 0 0
-0.0204122080 -0.0211299010 0 0
-0.0202787940 -0.0207674760 0 0
-0.0203568960 -0.0197677330 0 0
-0.0206434920 -0.0181857850 0 0
-0.0211216070 -0.0161371900 0 0
-0.0217620010 -0.0137901090 0 0
-0.0225232660 -0.0113517070 0 0
-0.0233521560 -0.0090492460 0 0
-0.0241850070 -0.0071079980 0 0
-0.0249497490 -0.0057283240 0 0
-0.0255701520 -0.0050637810 0 0
-0.0259749610 -0.0052025160 0 0
-0.0261100950 -0.0061548140 0 0
-0.0259482890 -0.0078493090 0 0
-0.0254926070 -0.0101394740 0 0
-0.0247747130 -0.0128207070 0 0
-0.0238509450 -0.0156556180 0 0
-0.0227976340 -0.0184022340 0 0
-0.0217049030 -0.0208389180 0 0
-0.0206681950 -0.0227816790 0 0
-0.0197780140 -0.0240941860 0 0
-0.0191091590 -0.0246945700 0 0
-0.0187120130 -0.0245614690 0 0
-0.0186094330 -0.0237376620 0 0
-0.0188000370 -0.0223283320 0 0
-0.0192641420 -0.0204925680 0 0
-0.0199675290 -0.0184291240 0 0
-0.0208611820 -0.0163594780 0 0
-0.0218785570 -0.0145110600 0 0
-0.0229338420 -0.0131002110 0 0
-0.0239247720 -0.0123121720 0 0
-0.0247419040 -0.0122776800 0 0
-0.0252834840 -0.0130502090 0 0
-0.0254720580 -0.0145890320 0 0
-0.0252671300 -0.0167520910 0 0
-0.0246708350 -0.0193020610 0 0
-0.0237292020 -0.0219275550 0 0
-0.0225315330 -0.0242787080 0 0
-0.0212048500 -0.0260130240 0 0
-0.0199000280 -0.0268432610 0 0
-0.0187719520 -0.0265776680 0 0
-0.0179593760 -0.0251461440 0 0
-0.0175688650 -0.0226089050 0 0
-0.0176642300 -0.0191463160 0 0
-0.0182607370 -0.0150328630 0 0
-0.0193238230 -0.0106027870 0 0
-0.0207723580 -0.0062150390 0 0
-0.0224845470 -0.0022219440 0 0
-0.0243047770 0.0010572620 0 0
-0.0260533700 0.0033590640 0 0
-0.0275414850 0.0044958470 0 0
-0.0285899750 0.0043724190 0 0
-0.0290498470 0.0029952930 0 0
-0.0288223580 0.0004720580 0 0
-0.0278749810 -0.0029987380 0 0
-0.0262482780 -0.0071444370 0 0
-0.0240510010 -0.0116390520 0 0
-0.0214456360 -0.0161264340 0 0
-0.0186302250 -0.0202459010 0 0
-0.0158211760 -0.0236612910 0 0
-0.0132368290 -0.0260927680 0 0
-0.0110793110 -0.0273472090 0 0
-0.0095146490 -0.0273417420 0 0
-0.0086546360 -0.0261166130 0 0
-0.0085451690 -0.0238350660 0 0
-0.0091633100 -0.0207683270 0 0
-0.0104211110 -0.0172657590 0 0
-0.0121734070 -0.0137149070 0 0
-0.0142300940 -0.0104990370 0 0
-0.0163754580 -0.0079574920 0 0
-0.0183944090 -0.0063513470 0 0
-0.0201011660 -0.0058372330 0 0
-0.0213640520 -0.0064524750 0 0
-0.0221206480 -0.0081135020 0 0
-0.0223793600 -0.0106288290 0 0
-0.0222078250 -0.0137265540 0 0
-0.0217137150 -0.0170917590 0 0
-0.0210237250 -0.0204046340 0 0
-0.0202637920 -0.0233709780 0 0
-0.0195426310 -0.0257423710 0 0
-0.0189405110 -0.0273285530 0 0
-0.0185041620 -0.0280063280 0 0
-0.0182483820 -0.0277275900 0 0
-0.0181631170 -0.0265252660 0 0
-0.0182206750 -0.0245139320 0 0
-0.0183794360 -0.0218833480 0 0
-0.0185879000 -0.0188849850 0 0
-0.0187933970 -0.0158115690 0 0
-0.0189520620 -0.0129697980 0 0
-0.0190330120 -0.0106483860 0 0
-0.0190145930 -0.0090858170 0 0
-0.0188781580 -0.0084423620 0 0
-0.0186066340 -0.0087805410 0 0
-0.0181891970 -0.0100581440 0 0
-0.0176275620 -0.0121359900 0 0
-0.0169394620 -0.0147988230 0 0
-0.0161575580 -0.0177848610 0 0
-0.0153244750 -0.0208179310 0 0
-0.0144864510 -0.0236355330 0 0
-0.0136879750 -0.0260093650 0 0
-0.0129689630 -0.0277600690 0 0
-0.0123648970 -0.0287690790 0 0
-0.0119080970 -0.0289878390 0 0
-0.0116276890 -0.0284436190 0 0
-0.0115484170 -0.0272414330 0 0
-0.0116894130 -0.0255596980 0 0
-0.0120619160 -0.0236353410 0 0
-0.0126647770 -0.0217366180 0 0
-0.0134795450 -0.0201275380 0 0
-0.0144686770 -0.0190322950 0 0
-0.0155789250 -0.0186082180 0 0
-0.0167490000 -0.0189318950 0 0
-0.0179193000 -0.0199978270 0 0
-0.0190413170 -0.0217248460 0 0
-0.0200831480 -0.0239649890 0 0
-0.0210275040 -0.0265133600 0 0
-0.0218630650 -0.0291216010 0 0
-0.0225755940 -0.0315176080 0 -1
-0.0231463500 -0.0334312440 0 -1
-0.0235602200 -0.0346229870 0 -1
-0.0238184780 -0.0349110500 0 -1
-0.0239474880 -0.0341926430 0 -1
-0.0239973750 -0.0324565180 0 -1
-0.0240303120 -0.0297865190 0 0
-0.0241030380 -0.0263572160 0 0
-0.0242510620 -0.0224210390 0 0
-0.0244807750 -0.0182851330 0 0
-0.0247711490 -0.0142790710 0 0
-0.0250833940 -0.0107183730 0 0
-0.0253758390 -0.0078701040 0 0
-0.0256190450 -0.0059262050 0 0
-0.0258028680 -0.0049889960 0 0
-0.0259293360 -0.0050711100 0 0
-0.0259945590 -0.0061073960 0 0
-0.0259716970 -0.0079717420 0 0
-0.0258073280 -0.0104914930 0 0
-0.0254356430 -0.0134566090 0 0
-0.0248045340 -0.0166270430 0 0
-0.0239013490 -0.0197454720 0 0
-0.0227668830 -0.0225591300 0 0
-0.0214925560 -0.0248469860 0 0
-0.0202040980 -0.0264452130 0 0
-0.0190402590 -0.0272663460 0 0
-0.0181330260 -0.0273104120 0 0
-0.0175902680 -0.0266661980 0 0
-0.0174800260 -0.0255002360 0 0
-0.0178182980 -0.0240337150 0 0
-0.0185636530 -0.0225124970 0 0
-0.0196211150 -0.0211775850 0 0
-0.0208565380 -0.0202404800 0 0
-0.0221188110 -0.0198632070 0 0
-0.0232619660 -0.0201419000 0 0
-0.0241604570 -0.0210954900 0 0
-0.0247184810 -0.0226623620 0 0
-0.0248775540 -0.0247058440 0 0
-0.0246226500 -0.0270277130 0 0
-0.0239837520 -0.0293888400 0 0
-0.0230310450 -0.0315356740 0 -1
-0.0218646880 -0.0332292670 0 -1
-0.0206022680 -0.0342716780 0 -1
-0.0193671080 -0.0345249430 0 -1
-0.0182775100 -0.0339205110 0 -1
-0.0174347770 -0.0324603210 0 -1
-0.0169097880 -0.0302128680 0 -1
-0.0167312220 -0.0273077920 0 0
-0.0168798400 -0.0239305140 0 0
-0.0172915740 -0.0203150580 0 0
-0.0178696680 -0.0167309710 0 0
-0.0185031490 -0.0134616200 0 0
-0.0190852600 -0.0107755080 0 0
-0.0195248120 -0.0088962510 0 0
-0.0197493340 -0.0079780030 0 0
-0.0197064650 -0.0080907480 0 0
-0.0193698080 -0.0092154080 0 0
-0.0187471200 -0.0112460980 0 0
-0.0178833210 -0.0139981810 0 0
-0.0168545800 -0.0172230040 0 0
-0.0157565470 -0.0206303380 0 0
-0.0146923720 -0.0239172220 0 0
-0.0137640100 -0.0267989460 0 0
-0.0130663720 -0.0290364300 0 0
-0.0126817920 -0.0304566360 0 -1
-0.0126731340 -0.0309669120 0 -1
-0.0130756570 -0.0305656680 0 -1
-0.0138887730 -0.0293492740 0 0
-0.0150695010 -0.0275116550 0 0
-0.0165308860 -0.0253315450 0 0
-0.0181486470 -0.0231444670 0 0
-0.0197765470 -0.0213018580 0 0
-0.0212681560 -0.0201247310 0 0
-0.0224998330 -0.0198599620 0 0
-0.0233868200 -0.0206456360 0 0
-0.0238869260 -0.0224904900 0 0
-0.0239948800 -0.0252706930 0 0
-0.0237349950 -0.0287445240 0 0
-0.0231558260 -0.0325824490 0 -1
-0.0223259190 -0.0364073460 0 -1
-0.0213294750 -0.0398387270 0 -1
-0.0202617570 -0.0425358390 0 -1
-0.0192231870 -0.0442345810 0 -1
-0.0183099490 -0.0447728110 0 -1
-0.0176010480 -0.0441005750 0 -1
-0.0171466220 -0.0422758830 0 -1
-0.0169640460 -0.0394501890 0 -1
-0.0170428900 -0.0358491090 0 -1
-0.0173533350 -0.0317522450 0 -1
-0.0178530920 -0.0274728060 0 0
-0.0184916660 -0.0233363750 0 0
-0.0192119720 -0.0196587780 0 0
-0.0199506140 -0.0167230870 0 0
-0.0206405150 -0.0147559960 0 0
-0.0212183280 -0.0139054310 0 0
-0.0216342210 -0.0142225200 0 0
-0.0218588430 -0.0156513390 0 0
-0.0218842470 -0.0180306520 0 0
-0.0217206420 -0.0211107730 0 0
-0.0213940850 -0.0245830680 0 0
-0.0209476330 -0.0281143880 0 0
-0.0204421270 -0.0313795800 0 -1
-0.0199513210 -0.0340894660 0 -1
-0.0195518220 -0.0360142650 0 -1
-0.0193134120 -0.0370031450 0 -1
-0.0192927870 -0.0370000240 0 -1
-0.0195276700 -0.0360533920 0 -1
-0.0200282150 -0.0343155880 0 -1
-0.0207681040 -0.0320284960 0 -1
-0.0216812170 -0.0294973570 0 0
-0.0226678730 -0.0270571700 0 0
-0.0236098430 -0.0250352450 0 0
-0.0243899710 -0.0237129680 0 0
-0.0249118720 -0.0232916980 0 0
-0.0251142950 -0.0238693830 0 0
-0.0249756330 -0.0254325620 0 0
-0.0245102360 -0.0278634190 0 0
-0.0237634650 -0.0309581210 0 -1
-0.0228095370 -0.0344529390 0 -1
-0.0217488630 -0.0380554520 0 -1
-0.0206989270 -0.0414766750 0 -1
-0.0197773320 -0.0444584890 0 -1
-0.0190820050 -0.0467928300 0 -1
-0.0186765630 -0.0483328430 0 -1
-0.0185864650 -0.0489981570 0 -1
-0.0188040390 -0.0487763130 0 -1
-0.0192949980 -0.0477215560 0 -1
-0.0200023420 -0.0459510120 0 -1
-0.0208508440 -0.0436372420 0 -1
-0.0217561790 -0.0409960300 0 -1
-0.0226369710 -0.0382697370 0 -1
-0.0234242250 -0.0357079350 0 -1
-0.0240644170 -0.0335465970 0 -1
-0.0245165250 -0.0319865290 0 -1
-0.0247472530 -0.0311727250 0 -1
-0.0247304670 -0.0311776520 0 -1
-0.0244535050 -0.0319911020 0 -1
-0.0239259330 -0.0335179680 0 -1
-0.0231828730 -0.0355850070 0 -1
-0.0222800200 -0.0379577210 0 -1
-0.0212853290 -0.0403661480 0 -1
-0.0202732290 -0.0425355240 0 -1
-0.0193205060 -0.0442175360 0 -1
-0.0184984600 -0.0452189760 0 -1
-0.0178602200 -0.0454250150 0 -1
-0.0174297190 -0.0448139260 0 -1
-0.0172003280 -0.0434605880 0 -1
-0.0171440600 -0.0415287050 0 -1
-0.0172250260 -0.0392536650 0 -1
-0.0174102160 -0.0369176500 0 -1
-0.0176734030 -0.0348191480 0 -1
-0.0179912050 -0.0332414030 0 -1
-0.0183360310 -0.0324238090 0 -1
-0.0186741600 -0.0325369970 0 -1
-0.0189720700 -0.0336614980 0 -1
-0.0192056330 -0.0357718800 0 -1
-0.0193649930 -0.0387301670 0 -1
-0.0194533990 -0.0422932620 0 -1
-0.0194826750 -0.0461372900 0 -1
-0.0194668960 -0.0498961580 0 -1
-0.0194147230 -0.0532061160 0 -1
-0.0193240130 -0.0557471650 0 -1
-0.0191837420 -0.0572753900 0 -1
-0.0189838060 -0.0576435720 0 -1
-0.0187274610 -0.0568096180 0 -1
-0.0184388920 -0.0548346160 0 -1
-0.0181603470 -0.0518736170 0 -1
-0.0179386670 -0.0481615090 0 -1
-0.0178074390 -0.0439952820 0 -1
-0.0177738830 -0.0397129150 0 -1
-0.0178169220 -0.0356682810 0 -1
-0.0178969050 -0.0322017910 0 -1
-0.0179719880 -0.0296079850 0 0
-0.0180133130 -0.0281033190 0 0
-0.0180122310 -0.0277996330 0 0
-0.0179774530 -0.0286897910 0 0
-0.0179248640 -0.0306496190 0 -1
-0.0178651030 -0.0334552900 0 -1
-0.0177946200 -0.0368113580 0 -1
-0.0176951610 -0.0403839580 0 -1
-0.0175438050 -0.0438341310 0 -1
-0.0173301040 -0.0468476170 0 -1
-0.0170715980 -0.0491601080 0 -1
-0.0168189060 -0.0505784690 0 -1
-0.0166473210 -0.0509968800 0 -1
-0.0166383390 -0.0504050770 0 -1
-0.0168573270 -0.0488869620 0 -1
-0.0173337710 -0.0466105880 0 -1
-0.0180499940 -0.0438118540 0 -1
-0.0189412810 -0.0407745590 0 -1
-0.0199055780 -0.0378095730 0 -1
-0.0208184870 -0.0352339920 0 -1
-0.0215500810 -0.0333476250 0 -1
-0.0219813150 -0.0324031530 0 -1
-0.0220190680 -0.0325711840 0 -1
-0.0216109630 -0.0339086220 0 -1
-0.0207598130 -0.0363408480 0 -1
-0.0195320310 -0.0396634930 0 -1
-0.0180518560 -0.0435634700 0 -1
-0.0164793150 -0.0476551150 0 -1
-0.0149796240 -0.0515253710 0 -1
-0.0136955020 -0.0547811170 0 -1
-0.0127298630 -0.0570923300 0 -1
-0.0121409330 -0.0582270430 0 -1
-0.0119478600 -0.0580760340 0 -1
-0.0121416230 -0.0566650920 0 -1
-0.0126952740 -0.0541517500 0 -1
-0.0135694960 -0.0508048160 0 -1
-0.0147112430 -0.0469693340 0 -1
-0.0160462720 -0.0430236500 0 -1
-0.0174727380 -0.0393365870 0 -1
-0.0188654280 -0.0362315360 0 -1
-0.0200925930 -0.0339605700 0 -1
-0.0210376180 -0.0326878960 0 -1
-0.0216168810 -0.0324812760 0 -1
-0.0217907900 -0.0333110150 0 -1
-0.0215682200 -0.0350561980 0 -1
-0.0210040440 -0.0375170470 0 -1
-0.0201896900 -0.0404325530 0 -1
-0.0192386610 -0.0435037170 0 -1
-0.0182697830 -0.0464218330 0 -1
-0.0173898790 -0.0488980560 0 -1
-0.0166779040 -0.0506883320 0 -1
-0.0161753340 -0.0516094070 0 -1
-0.0158870940 -0.0515467380 0 -1
-0.0157915750 -0.0504601710 0 -1
-0.0158540000 -0.0483920310 0 -1
-0.0160386690 -0.0454753100 0 -1
-0.0163183820 -0.0419344520 0 -1
-0.0166802950 -0.0380727150 0 -1
-0.0171271740 -0.0342456470 0 -1
-0.0176730470 -0.0308251310 0 -1
-0.0183325950 -0.0281604510 0 0
-0.0191054640 -0.0265419870 0 0
-0.0199613830 -0.0261711450 0 0
-0.0208351740 -0.0271382020 0 0
-0.0216359760 -0.0294090530 0 0
-0.0222665120 -0.0328227550 0 -1
-0.0226448360 -0.0371018970 0 -1
-0.0227223870 -0.0418758220 0 -1
-0.0224942420 -0.0467141030 0 -1
-0.0220002110 -0.0511673150 0 -1
-0.0213191520 -0.0548129660 0 -1
-0.0205597600 -0.0573028590 0 -1
-0.0198483480 -0.0584047950 0 -1
-0.0193127000 -0.0580302410 0 -1
-0.0190633880 -0.0562418470 0 -1
-0.0191764070 -0.0532395440 0 -1
-0.0196804090 -0.0493292270 0 -1
-0.0205506870 -0.0448814350 0 -1
-0.0217122680 -0.0402882410 0 -1
-0.0230528680 -0.0359244610 0 -1
-0.0244430290 -0.0321155630 0 -1
-0.0257589640 -0.0291120750 0 0
-0.0269023990 -0.0270707380 0 0
-0.0278110200 -0.0260445630 0 0
-0.0284566970 -0.0259834910 0 0
-0.0288349340 -0.0267449080 0 0
-0.0289530490 -0.0281116380 0 0
-0.0288245240 -0.0298153060 0 0
-0.0284723300 -0.0315638420 0 -1
-0.0279366310 -0.0330720360 0 -1
-0.0272783580 -0.0340929200 0 -1
-0.0265734570 -0.0344461490 0 -1
-0.0258996410 -0.0340387180 0 -1
-0.0253221420 -0.0328739180 0 -1
-0.0248849290 -0.0310466340 0 -1
-0.0246096010 -0.0287260700 0 0
-0.0244989160 -0.0261304020 0 0
-0.0245406250 -0.0235001750 0 0
-0.0247100330 -0.0210761470 0 0
-0.0249718960 -0.0190830040 0 0
-0.0252816600 -0.0177160990 0 0
-0.0255856560 -0.0171271680 0 0
-0.0258219450 -0.0174078250 0 0
-0.0259250720 -0.0185738590 0 0
-0.0258352160 -0.0205547430 0 0
-0.0255085130 -0.0231914160 0 0
-0.0249254030 -0.0262449590 0 0
-0.0240963000 -0.0294181440 0 0
-0.0230641420 -0.0323881840 0 -1
-0.0219020980 -0.0348441900 0 -1
-0.0207048510 -0.0365215880 0 -1
-0.0195746280 -0.0372288490 0 -1
-0.0186062130 -0.0368652650 0 -1
-0.0178745230 -0.0354294960 0 -1
-0.0174253750 -0.0330190130 0 -1
-0.0172698910 -0.0298212850 0 0
-0.0173844990 -0.0260971190 0 0
-0.0177182560 -0.0221569930 0 0
-0.0182055780 -0.0183341060 0 0
-0.0187772360 -0.0149588400 0 0
-0.0193636890 -0.0123351530 0 0
-0.0198947230 -0.0107153480 0 0
-0.0203050230 -0.0102713310 0 0
-0.0205475000 -0.0110661080 0 0
-0.0206057450 -0.0130331750 0 0
-0.0204972740 -0.0159718170 0 0
-0.0202661630 -0.0195635500 0 0
-0.0199683300 -0.0234091230 0 0
-0.0196554890 -0.0270784470 0 0
-0.0193646460 -0.0301627510 0 -1
-0.0191166420 -0.0323209210 0 -1
-0.0189231400 -0.0333155190 0 -1
-0.0187988500 -0.0330352370 0 -1
-0.0187718670 -0.0315017620 0 -1
-0.0188835650 -0.0288610290 0 0
-0.0191763890 -0.0253611460 0 0
-0.0196759940 -0.0213220000 0 0
-0.0203759430 -0.0171031470 0 0
-0.0212311050 -0.0130746200 0 0
-0.0221630990 -0.0095905810 0 0
-0.0230767420 -0.0069621920 0 0
-0.0238811830 -0.0054280260 0 0
-0.0245069190 -0.0051268020 0 0
-0.0249135480 -0.0060806640 0 0
-0.0250892150 -0.0081935840 0 0
-0.0250449040 -0.0112630870 0 0
-0.0248061210 -0.0150012030 0 0
-0.0244060230 -0.0190626840 0 0
-0.0238838940 -0.0230800460 0 0
-0.0232872810 -0.0267024170 0 0
-0.0226725870 -0.0296310610 0 0
-0.0221021160 -0.0316439140 0 -1
-0.0216390500 -0.0326058400 0 -1
-0.0213412200 -0.0324674090 0 -1
-0.0212529090 -0.0312588110 0 -1
-0.0213943130 -0.0290843350 0 0
-0.0217516170 -0.0261175370 0 0
-0.0222736370 -0.0225930500 0 0
-0.0228792980 -0.0187913100 0 0
-0.0234743610 -0.0150154370 0 0
-0.0239702640 -0.0115619530 0 0
-0.0242965970 -0.0086890100 0 0
-0.0244040960 -0.0065876430 0 0
-0.0242630480 -0.0053618440 0 0
-0.0238641970 -0.0050207180 0 0
-0.0232231390 -0.0054827650 0 0
-0.0223824600 -0.0065906430 0 0
-0.0214068520 -0.0081338460 0 0
-0.0203744750 -0.0098745450 0 0
-0.0193725230 -0.0115704520 0 0
-0.0184982960 -0.0129923870 0 0
-0.0178566740 -0.0139399970 0 0
-0.0175454100 -0.0142591850 0 0
-0.0176313930 -0.0138598190 0 0
-0.0181297380 -0.0127289850 0 0
-0.0189961730 -0.0109353090 0 0
-0.0201361640 -0.0086216570 0 0
-0.0214266780 -0.0059868840 0 0
-0.0227406610 -0.0032616340 0 0
-0.0239640310 -0.0006841940 0 0
-0.0250017710 0.0015210100 0 0
-0.0257769970 0.0031625970 0 0
-0.0262288610 0.0040993380 0 0
-0.0263135930 0.0042538180 0 0
-0.0260096640 0.0036208970 0 0
-0.0253245280 0.0022698830 0 0
-0.0242998080 0.0003392410 0 0
-0.0230133880 -0.0019770800 0 0
-0.0215771930 -0.0044496110 0 0
-0.0201291060 -0.0068348750 0 0
-0.0188185790 -0.0088957320 0 0
-0.0177884170 -0.0104214050 0 0
-0.0171574180 -0.0112474090 0 0
-0.0170072650 -0.0112725740 0 0
-0.0173738180 -0.0104702080 0 0
-0.0182411790 -0.0088929760 0 0
-0.0195392590 -0.0066721010 0 0
-0.0211484400 -0.0040103140 0 0
-0.0229133160 -0.0011677790 0 0
-0.0246629850 0.0015592970 0 0
-0.0262332250 0.0038677000 0 0
-0.0274866890 0.0054830230 0 0
-0.0283283070 0.0061974140 0 0
-0.0287129470 0.0059012560 0 0
-0.0286436410 0.0046013960 0 0
-0.0281619190 0.0024217130 0 0
-0.0273344660 -0.0004147030 0 0
-0.0262426260 -0.0036178850 0 0
-0.0249805620 -0.0068687640 0 0
-0.0236598860 -0.0098531940 0 0
-0.0224103370 -0.0122894570 0 0
-0.0213686810 -0.0139517860 0 0
-0.0206585350 -0.0146906780 0 0
-0.0203699000 -0.0144471500 0 0
-0.0205447430 -0.0132598640 0 0
-0.0211706360 -0.0112671840 0 0
-0.0221823390 -0.0087032070 0 0
-0.0234700950 -0.0058814020 0 0
-0.0248933030 -0.0031612750 0 0
-0.0262985350 -0.0009023350 0 0
-0.0275402360 0.0005837540 0 0
-0.0285017720 0.0010737080 0 0
-0.0291130190 0.0004619590 0 0
-0.0293580700 -0.0012236510 0 0
-0.0292681470 -0.0038232830 0 0
-0.0289039220 -0.0070658590 0 0
-0.0283389150 -0.0106074490 0 0
-0.0276509200 -0.0140806110 0 0
-0.0269176400 -0.0171445520 0 0
-0.0262107340 -0.0195256880 0 0
-0.0255896050 -0.0210414750 0 0
-0.0250991570 -0.0216063660 0 0
-0.0247705280 -0.0212238870 0 0
-0.0246199620 -0.0199700800 0 0
-0.0246438210 -0.0179733060 0 0
-0.0248127690 -0.0153960360 0 0
-0.0250703190 -0.0124232260 0 0
-0.0253395580 -0.0092572710 0 0
-0.0255384300 -0.0061146830 0 0
-0.0255991560 -0.0032177130 0 0
-0.0254836210 -0.0007771030 0 0
-0.0251879210 0.0010312100 0 0
-0.0247351900 0.0020882440 0 0
-0.0241617880 0.0023475400 0 0
-0.0235043510 0.0018427480 0 0
-0.0227933490 0.0006870700 0 0
-0.0220539520 -0.0009365470 0 0
-0.0213105060 -0.0027954520 0 0
-0.0205905650 -0.0046357960 0 0
-0.0199268610 -0.0062141010 0 0
-0.0193574600 -0.0073252180 0 0
-0.0189246870 -0.0078222560 0 0
-0.0186719800 -0.0076273600 0 0
-0.0186371080 -0.0067342710 0 0
-0.0188423930 -0.0052049490 0 0
-0.0192858260 -0.0031623750 0 0
-0.0199373840 -0.0007802420 0 0
-0.0207417430 0.0017301940 0 0
-0.0216251950 0.0041354260 0 0
-0.0225047280 0.0061969250 0 0
-0.0232989850 0.0076901370 0 0
-0.0239397460 0.0084249640 0 0
-0.0243799450 0.0082678530 0 0
-0.0245950830 0.0071644430 0 0
-0.0245786730 0.0051578800 0 0
-0.0243346690 0.0023950860 0 0
-0.0238713520 -0.0008847320 0 0
-0.0232006320 -0.0043793190 0 0
-0.0223414310 -0.0077647970 0 0
-0.0213219520 -0.0107395320 0 0
-0.0201789540 -0.0130596690 0 0
-0.0189566850 -0.0145602000 0 0
-0.0177070560 -0.0151621810 0 0
-0.0164893260 -0.0148697410 0 0
-0.0153671720 -0.0137602990 0 0
-0.0144027790 -0.0119714830 0 0
-0.0136491210 -0.0096878180 0 0
-0.0131421960 -0.0071276640 0 0
-0.0128939750 -0.0045290290 0 0
-0.0128867840 -0.0021339100 0 0
-0.0130727580 -0.0001724540 0 0
-0.0133828830 0.0011524460 0 0
-0.0137443080 0.0016821250 0 0
-0.0140971390 0.0013227310 0 0
-0.0144018970 0.0000660218 0 0
-0.0146374300 -0.0019982030 0 0
-0.0147965030 -0.0046845450 0 0
-0.0148845910 -0.0077299240 0 0
-0.0149208490 -0.0108236630 0 0
-0.0149369190 -0.0136450820 0 0
-0.0149713460 -0.0159030510 0 0
-0.0150620070 -0.0173708660 0 0
-0.0152407730 -0.0179101410 0 0
-0.0155315100 -0.0174809100 0 0
-0.0159490630 -0.0161394150 0 0
-0.0164970490 -0.0140271460 0 0
-0.0171646580 -0.0113543390 0 0
-0.0179242450 -0.0083797840 0 0
-0.0187307500 -0.0053878180 0 0
-0.0195228790 -0.0026637910 0 0
-0.0202265490 -0.0004703280 0 0
-0.0207615080 0.0009740470 0 0
-0.0210507410 0.0015143090 0 0
-0.0210300410 0.0010763970 0 0
-0.0206543120 -0.0003194990 0 0
-0.0199006010 -0.0025529380 0 0
-0.0187721600 -0.0054069880 0 0
-0.0173066340 -0.0085840420 0 0
-0.0155858180 -0.0117351760 0 0
-0.0137399310 -0.0145011200 0 0
-0.0119388780 -0.0165580930 0 0
-0.0103684170 -0.0176595000 0 0
-0.0091984000 -0.0176665940 0 0
-0.0085552000 -0.0165646530 0 0
-0.0085060330 -0.0144631750 0 0
-0.0090547440 -0.0115797510 0 0
-0.0101450880 -0.0082102960 0 0
-0.0116681890 -0.0046927580 0 0
-0.0134725340 -0.0013721110 0 0
-0.0153771720 0.0014304150 0 0
-0.0171893860 0.0034451150 0 0
-0.0187254640 0.0044785480 0 0
-0.0198314000 0.0044322190 0 0
-0.0204011420 0.0033128130 0 0
-0.0203895480 0.0012341420 0 0
-0.0198158780 -0.0015899840 0 0
-0.0187562750 -0.0048645360 0 0
-0.0173291660 -0.0082433430 0 0
-0.0156799850 -0.0113652370 0 0
-0.0139681500 -0.0138902100 0 0
-0.0123536650 -0.0155328790 0 0
-0.0109806220 -0.0160930470 0 0
-0.0099606640 -0.0154813750 0 0
-0.0093622370 -0.0137341540 0 0
-0.0092074810 -0.0110106040 0 0
-0.0094745130 -0.0075710150 0 0
-0.0101028740 -0.0037407580 0 0
-0.0110010120 0.0001307150 0 0
-0.0120554080 0.0037074900 0 0
-0.0131420920 0.0066973210 0 0
-0.0141409440 0.0088736460 0 0
-0.0149506580 0.0100895650 0 0
-0.0155013490 0.0102839930 0 0
-0.0157625820 0.0094809100 0 0
-0.0157446700 0.0077823910 0 0
-0.0154925880 0.0053553450 0 0
-0.0150757490 0.0024133570 0 0
-0.0145779000 -0.0008020780 0 0
-0.0140876320 -0.0040373490 0 0
-0.0136879300 -0.0070404450 0 0
-0.0134461780 -0.0095757460 0 0
-0.0134085880 -0.0114412900 0 0
-0.0135998570 -0.0124878880 0 0
-0.0140249430 -0.0126378710 0 0
-0.0146708350 -0.0118990740 0 0
-0.0155090090 -0.0103689800 0 0
-0.0164987700 -0.0082265230 0 0
-0.0175902730 -0.0057128320 0 0
-0.0187272420 -0.0031049120 0 0
-0.0198511400 -0.0006873310 0 0
-0.0209069300 0.0012745180 0 0
-0.0218475670 0.0025586120 0 0
-0.0226347690 0.0030076560 0 0
-0.0232373610 0.0025461650 0 0
-0.0236319990 0.0011913670 0 0
-0.0238100740 -0.0009431610 0 0
-0.0237880970 -0.0036530100 0 0
-0.0236130740 -0.0066607280 0 0
-0.0233563250 -0.0096463670 0 0
-0.0230976640 -0.0122860080 0 0
-0.0229086610 -0.0142904600 0 0
-0.0228430390 -0.0154372040 0 0
-0.0229354390 -0.0155925060 0 0
-0.0232034430 -0.0147237690 0 0
-0.0236480830 -0.0129022520 0 0
-0.0242523520 -0.0102955820 0 0
-0.0249798240 -0.0071503860 0 0
-0.0257757950 -0.0037668380 0 0
-0.0265722810 -0.0004674790 0 0
-0.0272959470 0.0024361930 0 0
-0.0278768030 0.0046742900 0 0
-0.0282564820 0.0060416720 0 0
-0.0283949350 0.0064123730 0 0
-0.0282737100 0.0057474200 0 0
-0.0278959950 0.0040987320 0 0
-0.0272859230 0.0016090910 0 0
-0.0264876590 -0.0014949780 0 0
-0.0255621810 -0.0049202550 0 0
-0.0245806880 -0.0083334940 0 0
-0.0236161690 -0.0113955970 0 0
-0.0227355150 -0.0138009070 0 0
-0.0219945280 -0.0153172480 0 0
-0.0214373130 -0.0158185810 0 0
-0.0210985170 -0.0153011880 0 0
-0.0210035710 -0.0138784480 0 0
-0.0211635410 -0.0117564360 0 0
-0.0215675450 -0.0091987750 0 0
-0.0221794240 -0.0064907770 0 0
-0.0229421890 -0.0039091740 0 0
-0.0237875990 -0.0016990530 0 0
-0.0246450680 -0.0000577014 0 0
-0.0254466980 0.0008761200 0 0
-0.0261302990 0.0010304830 0 0
-0.0266434090 0.0004080540 0 0
-0.0269478960 -0.0009084830 0 0
-0.0270223920 -0.0027573300 0 0
-0.0268620800 -0.0049087530 0 0
-0.0264786960 -0.0070888510 0 0
-0.0259026870 -0.0090141850 0 0
-0.0251854550 -0.0104296310 0 0
-0.0243982070 -0.0111389450 0 0
-0.0236267550 -0.0110221440 0 0
-0.0229642120 -0.0100416890 0 0
-0.0225018220 -0.0082426260 0 0
-0.0223150580 -0.0057490750 0 0
-0.0224440010 -0.0027567890 0 0
-0.0228747570 0.0004793880 0 0
-0.0235332580 0.0036652750 0 0
-0.0242981490 0.0064958760 0 0
-0.0250291850 0.0086898830 0 0
-0.0255987690 0.0100229670 0 0
-0.0259126400 0.0103526920 0 0
-0.0259140140 0.0096319160 0 0
-0.0255768740 0.0079119290 0 0
-0.0248985250 0.0053375510 0 0
-0.0238976010 0.0021338800 0 0
-0.0226167720 -0.0014167800 0 0
-0.0211254050 -0.0050063740 0 0
-0.0195184840 -0.0083348160 0 0
-0.0179105950 -0.0111380360 0 0
-0.0164249570 -0.0132059750 0 0
-0.0151787370 -0.0143924130 0 0
-0.0142678250 -0.0146213920 0 0
-0.0137555010 -0.0138930540 0 0
-0.0136677770 -0.0122880670 0 0
-0.0139947430 -0.0099670810 0 0
-0.0146949940 -0.0071610690 0 0
-0.0157005310 -0.0041500170 0 0
-0.0169218230 -0.0012312560 0 0
-0.0182555670 0.0013165500 0 0
-0.0195972970 0.0032656940 0 0
-0.0208563930 0.0044621480 0 0
-0.0219667320 0.0048366500 0 0
-0.0228862590 0.0044049680 0 0
-0.0235852420 0.0032591410 0 0
-0.0240321990 0.0015514180 0 0
-0.0241886020 -0.0005269820 0 0
-0.0240159720 -0.0027685640 0 0
-0.0234901780 -0.0049690170 0 0
-0.0226149980 -0.0069414330 0 0
-0.0214299990 -0.0085281290 0 0
-0.0200113350 -0.0096133340 0 0
-0.0184656220 -0.0101348740 0 0
-0.0169179100 -0.0100898010 0 0
-0.0154951450 -0.0095311030 0 0
-0.0143074950 -0.0085567430 0 0
-0.0134316190 -0.0072950620 0 0
-0.0128999290 -0.0058911710 0 0
-0.0126982320 -0.0044964070 0 0
-0.0127722710 -0.0032593270 0 0
-0.0130409430 -0.0023158660 0 0
-0.0134122120 -0.0017774360 0 0
-0.0137983710 -0.0017173920 0 0
-0.0141280740 -0.0021584790 0 0
-0.0143525900 -0.0030655120 0 0
-0.0144457290 -0.0043463650 0 0
-0.0144005700 -0.0058611800 0 0
-0.0142273720 -0.0074376190 0 0
-0.0139544360 -0.0088900200 0 0
-0.0136288950 -0.0100404660 0 0
-0.0133123780 -0.0107391550 0 0
-0.0130707440 -0.0108810350 0 0
-0.0129633870 -0.0104160930 0 0
-0.0130372950 -0.0093527910 0 0
-0.0133254030 -0.0077564500 0 0
-0.0138451630 -0.0057439500 0 0
-0.0145942720 -0.0034743580 0 0
-0.0155447700 -0.0011353820 0 0
-0.0166411720 0.0010721980 0 0
-0.0178074770 0.0029492950 0 0
-0.0189609640 0.0043120770 0 0
-0.0200254050 0.0050065620 0 0
-0.0209378670 0.0049255180 0 0
-0.0216486350 0.0040256450 0 0
-0.0221183010 0.0023410660 0 0
-0.0223165870 -0.0000109391 0 0
-0.0222247570 -0.0028350280 0 0
-0.0218410440 -0.0058743030 0 0
-0.0211873520 -0.0088354980 0 0
-0.0203145690 -0.0114184930 0 0
-0.0193036510 -0.0133466590 0 0
-0.0182604890 -0.0143964070 0 0
-0.0173039110 -0.0144246610 0 0
-0.0165480120 -0.0133907690 0 0
-0.0160829540 -0.0113669970 0 0
-0.0159606220 -0.0085324130 0 0
-0.0161904810 -0.0051493100 0 0
-0.0167454180 -0.0015278870 0 0
-0.0175711180 0.0020104280 0 0
-0.0185923050 0.0051618380 0 0
-0.0197161710 0.0076590680 0 0
-0.0208385390 0.0092854380 0 0
-0.0218557420 0.0098904360 0 0
-0.0226790220 0.0094073710 0 0
-0.0232452740 0.0078674320 0 0
-0.0235207200 0.0054030900 0 0
-0.0234991070 0.0022375380 0 0
-0.0231979300 -0.0013374170 0 0
-0.0226554460 -0.0049898530 0 0
-0.0219295300 -0.0083795600 0 0
-0.0210960240 -0.0111925900 0 0
-0.0202428280 -0.0131760500 0 0
-0.0194595840 -0.0141671440 0 0
-0.0188268600 -0.0141102040 0 0
-0.0184084550 -0.0130588560 0 0
-0.0182472700 -0.0111647470 0 0
-0.0183630010 -0.0086567360 0 0
-0.0187501720 -0.0058144080 0 0
-0.0193761570 -0.0029386370 0 0
-0.0201801820 -0.0003214400 0 0
-0.0210764660 0.0017823880 0 0
-0.0219645050 0.0031794720 0 0
-0.0227452080 0.0037561810 0 0
-0.0233373760 0.0034891880 0 0
-0.0236885290 0.0024460860 0 0
-0.0237772180 0.0007751580 0 0
-0.0236084750 -0.0013146280 0 0
-0.0232069790 -0.0035804490 0 0
-0.0226118120 -0.0057742140 0 0
-0.0218736090 -0.0076673750 0 0
-0.0210524350 -0.0090694870 0 0
-0.0202132540 -0.0098408240 0 0
-0.0194168750 -0.0098988190 0 0
-0.0187092830 -0.0092174910 0 0
-0.0181165980 -0.0078214240 0 0
-0.0176503470 -0.0057789960 0 0
-0.0173194670 -0.0031994610 0 0
-0.0171393010 -0.0002343380 0 0
-0.0171302160 0.0029215120 0 0
-0.0173069080 0.0060350170 0 0
-0.0176650310 0.0088499960 0 0
-0.0181715770 0.0111134610 0 0
-0.0187627730 0.0126111510 0 0
-0.0193499500 0.0132060110 0 0
-0.0198316150 0.0128702720 0 0
-0.0201095010 0.0117015120 0 0
-0.0201058490 0.0099165730 0 0
-0.0197797670 0.0078238150 0 0
-0.0191406720 0.0057795640 0 0
-0.0182542360 0.0041373680 0 0
-0.0172353330 0.0032016820 0 0
-0.0162271210 0.0031974820 0 0
-0.0153725280 0.0042579840 0 0
-0.0147882080 0.0064220070 0 0
-0.0145481440 0.0096337310 0 0
-0.0146780520 0.0137466820 0 0
-0.0151588600 0.0185365300 0 0
-0.0159367830 0.0237231680 0 0
-0.0169355130 0.0289991490 0 0
-0.0180649360 0.0340599720 0 1
-0.0192250490 0.0386316740 0 1
-0.0203101440 0.0424940390 0 1
-0.0212181460 0.0454993700 0 1
-0.0218639300 0.0475850820 0 1
-0.0221917530 0.0487788920 0 1
-0.0221829630 0.0491989290 0 1
-0.0218569800 0.0490511410 0 1
-0.0212646130 0.0486219940 0 1
-0.0204762810 0.0482607170 0 1
-0.0195714810 0.0483463460 0 1
-0.0186332740 0.0492398010 0 1
-0.0177446900 0.0512288850 0 1
-0.0169817510 0.0544808180 0 1
-0.0164026840 0.0590170130 0 1
-0.0160377100 0.0647164940 0 1
-0.0158842960 0.0713435730 0 1
-0.0159102660 0.0785886890 0 1
-0.0160645170 0.0861111600 0 1
-0.0162914790 0.0935768600 0 1
-0.0165416170 0.1006880670 0 1
-0.0167726090 0.1072049720 0 1
-0.0169457720 0.1129599690 0 1
-0.0170272570 0.1178670030 0 1
-0.0169949520 0.1219275560 0 1
-0.0168429160 0.1252324460 0 1
-0.0165787220 0.1279566650 0 1
-0.0162183500 0.1303444030 0 1
-0.0157844620 0.1326839640 0 1
-0.0153079810 0.1352763630 0 1
-0.0148294140 0.1384035510 0 1
-0.0143977910 0.1423004320 0 1
-0.0140673190 0.1471318010 0 1
-0.0138929200 0.1529752050 0 1
-0.0139265810 0.1598118420 0 1
-0.0142147480 0.1675265810 0 1
-0.0147939140 0.1759153510 0 1
-0.0156827500 0.1846967910 0 1
-0.0168740980 0.1935270620 0 1
-0.0183300490 0.2020205530 0 1
-0.0199797950 0.2097798990 0 1
-0.0217219770 0.2164346600 0 1
-0.0234354990 0.2216836430 0 1
-0.0249966180 0.2253336030 0 1
-0.0262951390 0.2273267560 0 1
-0.0272470580 0.2277511890 0 1
-0.0278043940 0.2268315850 0 1
-0.0279602390 0.2249018530 0 1
-0.0277469940 0.2223655400 0 1
-0.0272296310 0.2196513910 0 1
-0.0264968940 0.2171695360 0 1
-0.0256515830 0.2152718250 0 1
-0.0248005870 0.2142198960 0 1
-0.0240455430 0.2141646940 0 1
-0.0234743910 0.2151391870 0 1
-0.0231538550 0.2170627190 0 1
-0.0231227400 0.2197540620 0 1
-0.0233853020 0.2229513100 0 1
-0.0239064790 0.2263384150 0 1
-0.0246141040 0.2295779690 0 1
-0.0254092900 0.2323470080 0 1
-0.0261797600 0.2343697610 0 1
-0.0268117910 0.2354415470 0 1
-0.0272015580 0.2354414940 0 1
-0.0272679570 0.2343356390 0 1
-0.0269651150 0.2321741150 0 1
-0.0262893690 0.2290854060 0 1
-0.0252777410 0.2252676140 0 1
-0.0239997560 0.2209743980 0 1
-0.0225467410 0.2164940500 0 1
-0.0210225370 0.2121224780 0 1
-0.0195374790 0.2081329450 0 1
-0.0182031700 0.2047465780 0 1
-0.0171238930 0.2021081050 0 1
-0.0163849390 0.2002708010 0 1
-0.0160420920 0.1991926500 0 1
-0.0161142980 0.1987429320 0 1
-0.0165791190 0.1987173290 0 1
-0.0173720640 0.1988599800 0 1
-0.0183916750 0.1988907750 0 1
-0.0195108850 0.1985347660 0 1
-0.0205939490 0.1975492700 0 1
-0.0215165290 0.1957448440 0 1
-0.0221843680 0.1929991790 0 1
-0.0225449630 0.1892656790 0 1
-0.0225882170 0.1845789640 0 1
-0.0223373780 0.1790573930 0 1
-0.0218381480 0.1728999540 0 1
-0.0211531720 0.1663743210 0 1
-0.0203600810 0.1597951570 0 1
-0.0195457270 0.1534942580 0 1
-0.0187948070 0.1477851120 0 1
-0.0181788060 0.1429262100 0 1
-0.0177514570 0.1390900920 0 1
-0.0175505360 0.1363451080 0 1
-0.0176009380 0.1346530670 0 1
-0.0179154270 0.1338806350 0 1
-0.0184931170 0.1338187200 0 1
-0.0193161530 0.1342040510 0 1
-0.0203443350 0.1347403630 0 1
-0.0215093900 0.1351200200 0 1
-0.0227137670 0.1350486270 0 1
-0.0238388820 0.1342735280 0 1
-0.0247630590 0.1326124400 0 1
-0.0253827830 0.1299748830 0 1
-0.0256284500 0.1263709950 0 1
-0.0254708960 0.1219083490 0 1
-0.0249213460 0.1167811670 0 1
-0.0240282280 0.1112547320 0 1
-0.0228720450 0.1056448810 0 1
-0.0215582130 0.1002917640 0 1
-0.0202066290 0.0955280990 0 1
-0.0189365350 0.0916438450 0 1
-0.0178485060 0.0888510290 0 1
-0.0170098730 0.0872542520 0 1
-0.0164497820 0.0868336930 0 1
-0.0161640970 0.0874451650 0 1
-0.0161251730 0.0888374050 0 1
-0.0162918190 0.0906840900 0 1
-0.0166169520 0.0926258670 0 1
-0.0170514180 0.0943144790 0 1
-0.0175442010 0.0954506880 0 1
-0.0180416810 0.0958112900 0 1
-0.0184888860 0.0952642750 0 1
-0.0188340110 0.0937734890 0 1
-0.0190353480 0.0913957350 0 1
-0.0190675140 0.0882731760 0 1
-0.0189237520 0.0846213820 0 1
-0.0186150730 0.0807109960 0 1
-0.0181700120 0.0768415740 0 1
-0.0176366090 0.0733087370 0 1
-0.0170838500 0.0703686090 0 1
-0.0165983550 0.0682059500 0 1
-0.0162737720 0.0669126050 0 1
-0.0161932700 0.0664800930 0 1
-0.0164100800 0.0668063290 0 1
-0.0169343350 0.0677137760 0 1
-0.0177316150 0.0689744600 0 1
-0.0187321670 0.0703367430 0 1
-0.0198455220 0.0715498810 0 1
-0.0209749880 0.0723840710 0 1
-0.0220294110 0.0726453470 0 1
-0.0229326490 0.0721863840 0 1
-0.0236303990 0.0709148270 0 1
-0.0240916570 0.0687999400 0 1
-0.0243037010 0.0658776370 0 1
-0.0242651940 0.0622535690 0 1
-0.0239850800 0.0581027690 0 1
-0.0234886730 0.0536633010 0 1
-0.0228240630 0.0492221100 0 1
-0.0220620170 0.0450917660 0 1
-0.0212884970 0.0415775900 0 1
-0.0205932410 0.0389386970 0 1
-0.0200582300 0.0373518270 0 1
-0.0197474190 0.0368869610 0 1
-0.0196985820 0.0374981040 0 1
-0.0199195440 0.0390272180 0 1
-0.0203891910 0.0412186340 0 1
-0.0210609530 0.0437432370 0 1
-0.0218682000 0.0462324530 0 1
-0.0227324290 0.0483203320 0 1
-0.0235723040 0.0496886260 0 1
-0.0243106980 0.0501064270 0 1
-0.0248800820 0.0494559690 0 1
-0.0252273140 0.0477410480 0 1
-0.0253172020 0.0450799270 0 1
-0.0251350930 0.0416868910 0 1
-0.0246895730 0.0378467000 0 1
-0.0240142480 0.0338857540 0 1
-0.0231664840 0.0301419880 0 1
-0.0222224020 0.0269333840 0 0
-0.0212690120 0.0245249190 0 0
-0.0203948770 0.0230966080 0 0
-0.0196800280 0.0227190570 0 0
-0.0191854370 0.0233434060 0 0
-0.0189439770 0.0248083660 0 0
-0.0189559470 0.0268623390 0 0
-0.0191906280 0.0291968750 0 0
-0.0195929370 0.0314861950 0 1
-0.0200932880 0.0334254080 0 1
-0.0206185990 0.0347605420 0 1
-0.0211028500 0.0353070250 0 1
-0.0214957930 0.0349572370 0 1
-0.0217681260 0.0336807660 0 1
-0.0219118640 0.0315216380 0 1
-0.0219360570 0.0285950190 0 0
-0.0218599640 0.0250835750 0 0
-0.0217068850 0.0212313760 0 0
-0.0215000210 0.0173311650 0 0
-0.0212593790 0.0137010470 0 0
-0.0209996570 0.0106504120 0 0
-0.0207307170 0.0084407240 0 0
-0.0204605340 0.0072504380 0 0
-0.0201977470 0.0071522580 0 0
-0.0199509980 0.0081069400 0 0
-0.0197254000 0.0099729620 0 0
-0.0195191850 0.0125274570 0 0
-0.0193223560 0.0154925470 0 0
-0.0191168570 0.0185631580 0 0
-0.0188785640 0.0214346730 0 0
-0.0185824390 0.0238292660 0 0
-0.0182095270 0.0255189990 0 0
-0.0177526400 0.0263437250 0 0
-0.0172199000 0.0262225370 0 0
-0.0166366810 0.0251584350 0 0
-0.0160447320 0.0232369140 0 0
-0.0154973250 0.0206196770 0 0
-0.0150517250 0.0175328500 0 0
-0.0147606830 0.0142474200 0 0
-0.0146630450 0.0110521630 0 0
-0.0147750800 0.0082237060 0 0
-0.0150865910 0.0059988360 0 0
-0.0155630210 0.0045513740 0 0
-0.0161502000 0.0039745670 0 0
-0.0167808230 0.0042711420 0 0
-0.0173851730 0.0053532670 0 0
-0.0179044860 0.0070523830 0 0
-0.0183014750 0.0091370940 0 0
-0.0185647890 0.0113374160 0 0
-0.0187070850 0.0133736980 0 0
-0.0187571250 0.0149868590 0 0
-0.0187468730 0.0159651940 0 0
-0.0186975940 0.0161633810 0 0
-0.0186112310 0.0155113630 0 0
-0.0184706230 0.0140139000 0 0
-0.0182478470 0.0117444340 0 0
-0.0179179860 0.0088373500 0 0
-0.0174732800 0.0054805620 0 0
-0.0169311970 0.0019074780 0 0
-0.0163333510 -0.0016145560 0 0
-0.0157379010 -0.0048026400 0 0
-0.0152103730 -0.0073848980 0 0
-0.0148155450 -0.0091322730 0 0
-0.0146101280 -0.0098884330 0 0
-0.0146358290 -0.0095901990 0 0
-0.0149140120 -0.0082751560 0 0
-0.0154434330 -0.0060779500 0 0
-0.0162015150 -0.0032176910 0 0
-0.0171481810 0.0000225295 0 0
-0.0182299200 0.0033230190 0 0
-0.0193822770 0.0063593000 0 0
-0.0205316650 0.0088352530 0 0
-0.0215991790 0.0105146660 0 0
-0.0225074720 0.0112467850 0 0
-0.0231882120 0.0109802920 0 0
-0.0235867180 0.0097630020 0 0
-0.0236636890 0.0077291840 0 0
-0.0233972280 0.0050788840 0 0
-0.0227869570 0.0020539430 0 0
-0.0218578140 -0.0010851550 0 0
-0.0206612190 -0.0040797540 0 0
-0.0192751120 -0.0066916830 0 0
-0.0178035490 -0.0087207480 0 0
-0.0163716310 -0.0100200150 0 0
-0.0151113100 -0.0105079350 0 0
-0.0141390170 -0.0101768370 0 0
-0.0135321730 -0.0090969130 0 0
-0.0133131820 -0.0074148930 0 0
-0.0134455290 -0.0053464800 0 0
-0.0138416730 -0.0031604140 0 0
-0.0143809960 -0.0011522880 0 0
-0.0149344540 0.0003902720 0 0
-0.0153883990 0.0012247230 0 0
-0.0156601420 0.0011856250 0 0
-0.0157044630 0.0002071500 0 0
-0.0155156950 -0.0016654140 0 0
-0.0151282400 -0.0042760960 0 0
-0.0146122280 -0.0073714550 0 0
-0.0140596990 -0.0106266510 0 0
-0.0135637910 -0.0136828230 0 0
-0.0131993910 -0.0161915060 0 0
-0.0130115520 -0.0178591270 0 0
-0.0130131210 -0.0184836960 0 0
-0.0131893850 -0.0179774970 0 0
-0.0135054460 -0.0163735640 0 0
-0.0139147380 -0.0138180730 0 0
-0.0143701000 -0.0105521150 0 0
-0.0148350150 -0.0068852100 0 0
-0.0152884070 -0.0031627480 0 0
-0.0157205020 0.0002693930 0 0
-0.0161243500 0.0030993790 0 0
-0.0164891120 0.0050795880 0 0
-0.0167978790 0.0060486450 0 0
-0.0170289680 0.0059422120 0 0
-0.0171579990 0.0047921940 0 0
-0.0171595530 0.0027169800 0 0
-0.0170100420 -0.0000937906 0 0
-0.0166937110 -0.0033970900 0 0
-0.0162114010 -0.0069155610 0 0
-0.0155881160 -0.0103580730 0 0
-0.0148741600 -0.0134422110 0 0
-0.0141393080 -0.0159173230 0 0
-0.0134645060 -0.0175861470 0 0
-0.0129333560 -0.0183242990 0 0
-0.0126222800 -0.0180966220 0 0
-0.0125897230 -0.0169664870 0 0
-0.0128662800 -0.0150934200 0 0
-0.0134472690 -0.0127176590 0 0
-0.0142895380 -0.0101337690 0 0
-0.0153144330 -0.0076573240 0 0
-0.0164176780 -0.0055900990 0 0
-0.0174847950 -0.0041891820 0 0
-0.0184081400 -0.0036430860 0 0
-0.0191002830 -0.0040554100 0 0
-0.0195007100 -0.0054353690 0 0
-0.0195780670 -0.0076945390 0 0
-0.0193325710 -0.0106503910 0 0
-0.0187996850 -0.0140386260 0 0
-0.0180511210 -0.0175363820 0 0
-0.0171883460 -0.0207960830 0 0
-0.0163278040 -0.0234854620 0 0
-0.0155823690 -0.0253263010 0 0
-0.0150452340 -0.0261253380 0 0
-0.0147797480 -0.0257940590 0 0
-0.0148149030 -0.0243562590 0 0
-0.0151449560 -0.0219433000 0 0
-0.0157329840 -0.0187777310 0 0
-0.0165185230 -0.0151470350 0 0
-0.0174269180 -0.0113712390 0 0
-0.0183767160 -0.0077703230 0 0
-0.0192848850 -0.0046369730 0 0
-0.0200735030 -0.0022160130 0 0
-0.0206788910 -0.0006883300 0 0
-0.0210590030 -0.0001582310 0 0
-0.0211953540 -0.0006455110 0 0
-0.0210901180 -0.0020833070 0 0
-0.0207614100 -0.0043216780 0 0
-0.0202400330 -0.0071375170 0 0
-0.0195687180 -0.0102530860 0 0
-0.0188014710 -0.0133642960 0 0
-0.0180012580 -0.0161748310 0 0
-0.0172377480 -0.0184289280 0 0
-0.0165863020 -0.0199379600 0 0
-0.0161250870 -0.0205991200 0 0
-0.0159265260 -0.0204044940 0 0
-0.0160444740 -0.0194392330 0 0
-0.0165022040 -0.0178699650 0 0
-0.0172837940 -0.0159255300 0 0
-0.0183296280 -0.0138709020 0 0
-0.0195397370 -0.0119759340 0 0
-0.0207883990 -0.0104844610 0 0
-0.0219458530 -0.0095907520 0 0
-0.0228983310 -0.0094260410 0 0
-0.0235610980 -0.0100520380 0 0
-0.0238837410 -0.0114566280 0 0
-0.0238497800 -0.0135503130 0 0
-0.0234746440 -0.0161671970 0 0
-0.0228047530 -0.0190757860 0 0
-0.0219155800 -0.0220008290 0 0
-0.0209039910 -0.0246518790 0 0
-0.0198743170 -0.0267524150 0 0
-0.0189238470 -0.0280659510 0 0
-0.0181338330 -0.0284180850 0 0
-0.0175658750 -0.0277139960 0 0
-0.0172579130 -0.0259508630 0 0
-0.0172162600 -0.0232238880 0 0
-0.0174081970 -0.0197236520 0 0
-0.0177637530 -0.0157231000 0 0
-0.0181897430 -0.0115539760 0 0
-0.0185895450 -0.0075750790 0 0
-0.0188788750 -0.0041373920 0 0
-0.0189933050 -0.0015504300 0 0
-0.0188906020 -0.0000516024 0 0
-0.0185524020 0.0002193490 0 0
-0.0179843950 -0.0007627810 0 0
-0.0172113330 -0.0029038540 0 0
-0.0162685760 -0.0059992490 0 0
-0.0151975110 -0.0097560390 0 0
-0.0140493630 -0.0138263300 0 0
-0.0128935240 -0.0178473520 0 0
-0.0118212640 -0.0214809550 0 0
-0.0109386510 -0.0244449410 0 0
-0.0103508650 -0.0265327000 0 0
-0.0101448230 -0.0276221980 0 0
-0.0103745510 -0.0276774360 0 0
-0.0110511170 -0.0267453510 0 0
-0.0121392780 -0.0249494080 0 0
-0.0135614670 -0.0224795030 0 0
-0.0152069690 -0.0195779600 0 0
-0.0169439150 -0.0165220470 0 0
-0.0186328860 -0.0136032950 0 0
-0.0201405690 -0.0111038090 0 0
-0.0213511230 -0.0092707090 0 0
-0.0221741230 -0.0082913450 0 0
-0.0225504080 -0.0082725900 0 0
-0.0224565480 -0.0092266870 0 0
-0.0219053630 -0.0110658370 0 0
-0.0209403730 -0.0136082300 0 0
-0.0196279560 -0.0165966190 0 0
-0.0180535890 -0.0197271760 0 0
-0.0163228810 -0.0226839840 0 0
-0.0145615440 -0.0251731940 0 0
-0.0129092340 -0.0269518030 0 0
-0.0115073610 -0.0278500120 0 0
-0.0104844660 -0.0277886390 0 0
-0.0099428850 -0.0267903810 0 0
-0.0099479070 -0.0249804330 0 0
-0.0105190250 -0.0225737850 0 0
-0.0116239680 -0.0198513510 0 0
-0.0131769170 -0.0171294370 0 0
-0.0150419810 -0.0147262150 0 0
-0.0170440200 -0.0129278480 0 0
-0.0189891110 -0.0119572120 0 0
-0.0206924290 -0.0119492520 0 0
-0.0220049750 -0.0129369550 0 0
-0.0228305660 -0.0148493150 0 0
-0.0231312260 -0.0175200540 0 0
-0.0229248450 -0.0207058070 0 0
-0.0222793370 -0.0241128360 0 0
-0.0213041620 -0.0274296130 0 0
-0.0201371900 -0.0303605210 0 -1
-0.0189260610 -0.0326566770 0 -1
-0.0178074740 -0.0341416360 0 -1
-0.0168907020 -0.0347292370 0 -1
-0.0162494270 -0.0344307440 0 -1
-0.0159205550 -0.0333512830 0 -1
-0.0159061420 -0.0316779090 0 -1
-0.0161768410 -0.0296608460 0 0
-0.0166770900 -0.0275875760 0 0
-0.0173314790 -0.0257497690 0 0
-0.0180518040 -0.0244064580 0 0
-0.0187450730 -0.0237503800 0 0
-0.0193218130 -0.0238844290 0 0
-0.0197035480 -0.0248122810 0 0
-0.0198291170 -0.0264436500 0 0
-0.0196595160 -0.0286111380 0 0
-0.0191812350 -0.0310938800 0 -1
-0.0184083570 -0.0336437040 0 -1
-0.0173824870 -0.0360113640 0 -1
-0.0161699680 -0.0379716510 0 -1
-0.0148571390 -0.0393456080 0 -1
-0.0135433750 -0.0400162380 0 -1
-0.0123312920 -0.0399342870 0 -1
-0.0113157190 -0.0391138210 0 -1
-0.0105731710 -0.0376213060 0 -1
-0.0101529130 -0.0355638600 0 -1
-0.0100717690 -0.0330805540 0 -1
-0.0103143230 -0.0303366750 0 -1
-0.0108368340 -0.0275181140 0 0
-0.0115710000 -0.0248232250 0 0
-0.0124256820 -0.0224507970 0 0
-0.0132891130 -0.0205837270 0 0
-0.0140360950 -0.0193696200 0 0
-0.0145419560 -0.0189026210 0 0
-0.0147009830 -0.0192115940 0 0
-0.0144452280 -0.0202563070 0 0
-0.0137592400 -0.0219300420 0 0
-0.0126864560 -0.0240667740 0 0
-0.0113248600 -0.0264521480 0 0
-0.0098129910 -0.0288387990 0 0
-0.0083106880 -0.0309670730 0 -1
-0.0069788150 -0.0325910810 0 -1
-0.0059588340 -0.0335085270 0 -1
-0.0053532890 -0.0335909250 0 -1
-0.0052127740 -0.0328078370 0 -1
-0.0055348850 -0.0312374470 0 -1
-0.0062744470 -0.0290589690 0 0
-0.0073582830 -0.0265281440 0 0
-0.0086966990 -0.0239418130 0 0
-0.0101890460 -0.0216001970 0 0
-0.0117266670 -0.0197742060 0 0
-0.0131972520 -0.0186802400 0 0
-0.0144919660 -0.0184613450 0 0
-0.0155144770 -0.0191742950 0 0
-0.0161902310 -0.0207841240 0 0
-0.0164744960 -0.0231674760 0 0
-0.0163574680 -0.0261246110 0 0
-0.0158643470 -0.0293988330 0 0
-0.0150500360 -0.0327016410 0 -1
-0.0139911730 -0.0357411840 0 -1
-0.0127788230 -0.0382504240 0 -1
-0.0115130890 -0.0400109500 0 -1
-0.0102985920 -0.0408696580 0 -1
-0.0092389890 -0.0407475160 0 -1
-0.0084302900 -0.0396422860 0 -1
-0.0079548570 -0.0376288660 0 -1
-0.0078763910 -0.0348585050 0 -1
-0.0082329850 -0.0315536590 0 -1
-0.0090263360 -0.0279944920 0 0
-0.0102104200 -0.0244952170 0 0
-0.0116861210 -0.0213717710 0 0
-0.0133066240 -0.0189063310 0 0
-0.0148950610 -0.0173159830 0 0
-0.0162723190 -0.0167303000 0 0
-0.0172887810 -0.0171793880 0 0
-0.0178515040 -0.0185930900 0 0
-0.0179390660 -0.0208113350 0 0
-0.0175999840 -0.0236028960 0 0
-0.0169366280 -0.0266877140 0 0
-0.0160809080 -0.0297600040 0 0
-0.0151689370 -0.0325131220 0 -1
-0.0143209330 -0.0346675070 0 -1
-0.0136300290 -0.0359998250 0 -1
-0.0131600550 -0.0363686210 0 -1
-0.0129487280 -0.0357315460 0 -1
-0.0130109420 -0.0341512660 0 -1
-0.0133395430 -0.0317904230 0 -1
-0.0139048340 -0.0288978070 0 0
-0.0146553470 -0.0257871110 0 0
-0.0155222710 -0.0228085880 0 0
-0.0164284540 -0.0203151030 0 0
-0.0172992000 -0.0186260680 0 0
-0.0180696800 -0.0179926180 0 0
-0.0186863650 -0.0185666360 0 0
-0.0191050760 -0.0203788120 0 0
-0.0192900850 -0.0233332310 0 0
-0.0192160210 -0.0272211810 0 0
-0.0188720250 -0.0317479760 0 -1
-0.0182676560 -0.0365628750 0 -1
-0.0174398520 -0.0412862960 0 -1
-0.0164581220 -0.0455347140 0 -1
-0.0154226530 -0.0489465540 0 -1
-0.0144517050 -0.0512113360 0 -1
-0.0136606820 -0.0521014140 0 -1
-0.0131397070 -0.0515023250 0 -1
-0.0129374430 -0.0494346090 0 -1
-0.0130561740 -0.0460595000 0 -1
-0.0134566100 -0.0416649540 0 -1
-0.0140665070 -0.0366346620 0 -1
-0.0147904890 -0.0314059310 0 -1
-0.0155229730 -0.0264219380 0 0
-0.0161641100 -0.0220838010 0 0
-0.0166331260 -0.0187094350 0 0
-0.0168736090 -0.0165056720 0 0
-0.0168517370 -0.0155559670 0 0
-0.0165540890 -0.0158217400 0 0
-0.0159892400 -0.0171543790 0 0
-0.0151890170 -0.0193161480 0 0
-0.0142032060 -0.0220085750 0 0
-0.0130902840 -0.0249054580 0 0
-0.0119129710 -0.0276858570 0 0
-0.0107404690 -0.0300627750 0 -1
-0.0096495040 -0.0318055690 0 -1
-0.0087168880 -0.0327561630 0 -1
-0.0080058210 -0.0328398260 0 -1
-0.0075555390 -0.0320712600 0 -1
-0.0073809810 -0.0305555300 0 -1
-0.0074786980 -0.0284814720 0 0
-0.0078295730 -0.0261050330 0 0
-0.0083954740 -0.0237223350 0 0
-0.0091170260 -0.0216353350 0 0
-0.0099198590 -0.0201146180 0 0
-0.0107276600 -0.0193646840 0 0
-0.0114739320 -0.0194982230 0 0
-0.0121073860 -0.0205249870 0 0
-0.0125932130 -0.0223563090 0 0
-0.0129154560 -0.0248213590 0 0
-0.0130820950 -0.0276892680 0 0
-0.0131285340 -0.0306924640 0 -1
-0.0131134400 -0.0335489930 0 -1
-0.0131059480 -0.0359839340 0 -1
-0.0131699390 -0.0377511620 0 -1
-0.0133524910 -0.0386560170 0 -1
-0.0136795820 -0.0385779350 0 -1
-0.0141572530 -0.0374897850 0 -1
-0.0147745270 -0.0354683810 0 -1
-0.0155056930 -0.0326913830 0 -1
-0.0163114900 -0.0294199970 0 0
-0.0171394040 -0.0259708710 0 0
-0.0179246130 -0.0226823950 0 0
-0.0185936140 -0.0198802300 0 0
-0.0190704670 -0.0178447790 0 0
-0.0192850680 -0.0167825430 0 0
-0.0191847110 -0.0168040020 0 0
-0.0187481920 -0.0179106000 0 0
-0.0179966580 -0.0199934550 0 0
-0.0169953540 -0.0228462340 0 0
-0.0158449150 -0.0261915930 0 0
-0.0146644980 -0.0297160180 0 0
-0.0135716900 -0.0331056490 0 -1
-0.0126651160 -0.0360772510 0 -1
-0.0120132310 -0.0384022690 0 -1
-0.0116491440 -0.0399242480 0 -1
-0.0115705330 -0.0405692420 0 -1
-0.0117446020 -0.0403483060 0 -1
-0.0121171470 -0.0393531020 0 -1
-0.0126234340 -0.0377466440 0 -1
-0.0131988160 -0.0357490580 0 -1
-0.0137871680 -0.0336161210 0 -1
-0.0143448760 -0.0316105260 0 -1
-0.0148395370 -0.0299704750 0 0
-0.0152452210 -0.0288822360 0 0
-0.0155372890 -0.0284611100 0 0
-0.0156894830 -0.0287425090 0 0
-0.0156756400 -0.0296833720 0 0
-0.0154759370 -0.0311725760 0 -1
-0.0150841480 -0.0330468000 0 -1
-0.0145122600 -0.0351070640 0 -1
-0.0137911100 -0.0371336310 0 -1
-0.0129672380 -0.0389006990 0 -1
-0.0120978130 -0.0401926070 0 -1
-0.0112465980 -0.0408214190 0 -1
-0.0104826180 -0.0406446460 0 -1
-0.0098796130 -0.0395810950 0 -1
-0.0095113510 -0.0376229660 0 -1
-0.0094392790 -0.0348433390 0 -1
-0.0096956400 -0.0313979460 0 -1
-0.0102709880 -0.0275185490 0 0
-0.0111136500 -0.0234953890 0 0
-0.0121413450 -0.0196491000 0 0
-0.0132580170 -0.0162960920 0 0
-0.0143676020 -0.0137130410 0 0
-0.0153806440 -0.0121062300 0 0
-0.0162148550 -0.0115908740 0 0
-0.0167946120 -0.0121830910 0 0
-0.0170552170 -0.0138032020 0 0
-0.0169534400 -0.0162866630 0 0
-0.0164800720 -0.0194001760 0 0
-0.0156684290 -0.0228627300 0 0
-0.0145947730 -0.0263715960 0 0
-0.0133687080 -0.0296317780 0 0
-0.0121146140 -0.0323854620 0 -1
-0.0109501310 -0.0344373440 0 -1
-0.0099703180 -0.0356726230 0 -1
-0.0092418020 -0.0360649100 0 -1
-0.0088036130 -0.0356721840 0 -1
-0.0086688950 -0.0346220080 0 -1
-0.0088250600 -0.0330903190 0 -1
-0.0092335920 -0.0312788570 0 -1
-0.0098318560 -0.0293949240 0 0
-0.0105389890 -0.0276353960 0 0
-0.0112662380 -0.0261748350 0 0
-0.0119299940 -0.0251559310 0 0
-0.0124646520 -0.0246805940 0 0
-0.0128327090 -0.0248006870 0 0
-0.0130306570 -0.0255084210 0 0
-0.0130910770 -0.0267291100 0 0
-0.0130809370 -0.0283213880 0 0
-0.0130918410 -0.0300885270 0 -1
-0.0132176470 -0.0318009900 0 -1
-0.0135251820 -0.0332274670 0 -1
-0.0140332720 -0.0341688430 0 -1
-0.0147103380 -0.0344873720 0 -1
-0.0154888240 -0.0341244640 0 -1
-0.0162885290 -0.0331049510 0 -1
-0.0170396060 -0.0315300390 0 -1
-0.0176970640 -0.0295623250 0 0
-0.0182434630 -0.0274054840 0 0
-0.0186819840 -0.0252806780 0 0
-0.0190247380 -0.0234021810 0 0
-0.0192817660 -0.0219549130 0 0
-0.0194547670 -0.0210763880 0 0
-0.0195366520 -0.0208447340 0 0
-0.0195152690 -0.0212733480 0 0
-0.0193776890 -0.0223118060 0 0
-0.0191124450 -0.0238525660 0 0
-0.0187112930 -0.0257427300 0 0
-0.0181732640 -0.0277992190 0 0
-0.0175103080 -0.0298256690 0 0
-0.0167517690 -0.0316302640 0 -1
-0.0159457270 -0.0330438820 0 -1
-0.0151561030 -0.0339368380 0 -1
-0.0144551750 -0.0342314690 0 -1
-0.0139126440 -0.0339082780 0 -1
-0.0135845130 -0.0330051690 0 -1
-0.0135048170 -0.0316105470 0 -1
-0.0136807490 -0.0298522640 0 0
-0.0140917190 -0.0278855830 0 0
-0.0146942200 -0.0258821580 0 0
-0.0154318640 -0.0240193880 0 0
-0.0162453650 -0.0224689610 0 0
-0.0170772960 -0.0213841940 0 0
-0.0178712400 -0.0208859620 0 0
-0.0185692490 -0.0210474220 0 0
-0.0191120860 -0.0218794980 0 0
-0.0194443040 -0.0233212020 0 0
-0.0195231910 -0.0252388510 0 0
-0.0193286170 -0.0274359890 0 0
-0.0188704750 -0.0296732780 0 0
-0.0181910990 -0.0316954520 0 -1
-0.0173612340 -0.0332605370 0 -1
-0.0164699700 -0.0341662730 0 -1
-0.0156113670 -0.0342711040 0 -1
-0.0148712160 -0.0335095660 0 -1
-0.0143162180 -0.0319016130 0 -1
-0.0139865160 -0.0295538010 0 0
-0.0138922460 -0.0266506200 0 0
-0.0140145880 -0.0234361490 0 0
-0.0143112750 -0.0201881070 0 0
-0.0147254930 -0.0171885210 0 0
-0.0151952290 -0.0146964460 0 0
-0.0156596310 -0.0129262230 0 0
-0.0160621910 -0.0120312770 0 0
-0.0163538220 -0.0120924540 0 0
-0.0164970760 -0.0131116460 0 0
-0.0164692530 -0.0150118470 0 0
-0.0162633570 -0.0176424970 0 0
-0.0158890180 -0.0207888090 0 0
-0.0153747190 -0.0241862650 0 0
-0.0147692710 -0.0275414450 0 0
-0.0141390870 -0.0305576220 0 -1
-0.0135597700 -0.0329621230 0 -1
-0.0131045300 -0.0345329650 0 -1
-0.0128343320 -0.0351228740 0 -1
-0.0127932800 -0.0346788400 0 -1
-0.0130085210 -0.0332547820 0 -1
-0.0134903810 -0.0310134850 0 -1
-0.0142289260 -0.0282129960 0 0
-0.0151882630 -0.0251757820 0 0
-0.0163050590 -0.0222461560 0 0
-0.0174960250 -0.0197460370 0 0
-0.0186715470 -0.0179373870 0 0
-0.0197476990 -0.0169962550 0 0
-0.0206515140 -0.0170010100 0 0
-0.0213204490 -0.0179342270 0 0
-0.0217014100 -0.0196944540 0 0
-0.0217547290 -0.0221133010 0 0
-0.0214634910 -0.0249742800 0 0
-0.0208436910 -0.0280313060 0 0
-0.0199506660 -0.0310262230 0 -1
-0.0188793400 -0.0337060110 0 -1
-0.0177569080 -0.0358410620 0 -1
-0.0167275250 -0.0372447050 0 -1
-0.0159306350 -0.0377917720 0 -1
-0.0154776080 -0.0374334490 0 -1
-0.0154331910 -0.0362059700 0 -1
-0.0158066360 -0.0342305660 0 -1
-0.0165530320 -0.0317037650 0 -1
-0.0175818920 -0.0288793520 0 0
-0.0187689480 -0.0260431220 0 0
-0.0199680630 -0.0234814170 0 0
-0.0210237140 -0.0214471740 0 0
-0.0217867820 -0.0201293150 0 0
-0.0221340930 -0.0196310820 0 0
-0.0219879330 -0.0199609210 0 0
-0.0213292560 -0.0210362790 0 0
-0.0201995340 -0.0226974090 0 0
-0.0186911930 -0.0247274250 0 0
-0.0169317040 -0.0268757990 0 0
-0.0150673720 -0.0288833320 0 0
-0.0132498180 -0.0305066020 0 -1
-0.0116243670 -0.0315404250 0 -1
-0.0103175530 -0.0318376360 0 -1
-0.0094230380 -0.0313246750 0 -1
-0.0089899180 -0.0300105790 0 -1
-0.0090183060 -0.0279882430 0 0
-0.0094633920 -0.0254283900 0 0
-0.0102454270 -0.0225665500 0 0
-0.0112620190 -0.0196827200 0 0
-0.0124005250 -0.0170740780 0 0
-0.0135493750 -0.0150227590 0 0
-0.0146068680 -0.0137623320 0 0
-0.0154869070 -0.0134480900 0 0
-0.0161229430 -0.0141371970 0 0
-0.0164710960 -0.0157825950 0 0
-0.0165124690 -0.0182394010 0 0
-0.0162549490 -0.0212799790 0 0
-0.0157343930 -0.0246154810 0 0
-0.0150136130 -0.0279229260 0 0
-0.0141774180 -0.0308757610 0 -1
-0.0133238720 -0.0331751500 0 -1
-0.0125537550 -0.0345797590 0 -1
-0.0119605800 -0.0349311250 0 -1
-0.0116226310 -0.0341702800 0 -1
-0.0115966510 -0.0323428400 0 -1
-0.0119117960 -0.0295934870 0 0
-0.0125640140 -0.0261522970 0 0
-0.0135133550 -0.0223142400 0 0
-0.0146863810 -0.0184124490 0 0
-0.0159836710 -0.0147872200 0 0
-0.0172910180 -0.0117542550 0 0
-0.0184916730 -0.0095761470 0 0
-0.0194764380 -0.0084407140 0 0
-0.0201511600 -0.0084483160 0 0
-0.0204437050 -0.0096070950 0 0
-0.0203102670 -0.0118330410 0 0
-0.0197386800 -0.0149537370 0 0
-0.0187484710 -0.0187175360 0 0
-0.0173891670 -0.0228103400 0 0
-0.0157376080 -0.0268805030 0 0
-0.0138942860 -0.0305704070 0 -1
-0.0119781180 -0.0335510110 0 -1
-0.0101180300 -0.0355545790 0 -1
-0.0084410690 -0.0364014550 0 -1
-0.0070593670 -0.0360182790 0 -1
-0.0060582410 -0.0344457990 0 -1
-0.0054858320 -0.0318352310 0 -1
-0.0053459970 -0.0284337120 0 0
-0.0055989260 -0.0245609750 0 0
-0.0061714830 -0.0205797670 0 0
-0.0069727700 -0.0168624570 0 0
-0.0079077820 -0.0137567450 0 0
-0.0088858380 -0.0115532350 0 0
-0.0098253900 -0.0104572480 0 0
-0.0106572300 -0.0105677210 0 0
-0.0113262930 -0.0118665030 0 0
-0.0117929890 -0.0142207960 0 0
-0.0120362620 -0.0173989130 0 0
-0.0120584470 -0.0210958440 0 0
-0.0118877920 -0.0249641370 0 0
-0.0115749610 -0.0286470590 0 0
-0.0111863940 -0.0318118470 0 -1
-0.0107994970 -0.0341809900 0 -1
-0.0104975800 -0.0355593820 0 -1
-0.0103591310 -0.0358541610 0 -1
-0.0104426430 -0.0350833530 0 -1
-0.0107743170 -0.0333706900 0 -1
-0.0113439480 -0.0309270270 0 -1
-0.0121082750 -0.0280224760 0 0
-0.0129981740 -0.0249553280 0 0
-0.0139273070 -0.0220230670 0 0
-0.0148010590 -0.0194981830 0 0
-0.0155245540 -0.0176091130 0 0
-0.0160095640 -0.0165257440 0 0
-0.0161817200 -0.0163482060 0 0
-0.0159897450 -0.0170970200 0 0
-0.0154158980 -0.0187050210 0 0
-0.0144827530 -0.0210159920 0 0
-0.0132516660 -0.0237957540 0 0
-0.0118140480 -0.0267563360 0 0
-0.0102805320 -0.0295879670 0 0
-0.0087708690 -0.0319929460 0 -1
-0.0074041830 -0.0337190010 0 -1
-0.0062888770 -0.0345913290 0 -1
-0.0055123900 -0.0345391940 0 -1
-0.0051319240 -0.0336098200 0 -1
-0.0051680270 -0.0319640230 0 -1
-0.0056020900 -0.0298532160 0 0
-0.0063779720 -0.0275826480 0 0
-0.0074081270 -0.0254687800 0 0
-0.0085836660 -0.0237979350 0 0
-0.0097865800 -0.0227908870 0 0
-0.0109031000 -0.0225777480 0 0
-0.0118368750 -0.0231875230 0 0
-0.0125181810 -0.0245527920 0 0
-0.0129059670 -0.0265244740 0 0
-0.0129844390 -0.0288904860 0 0
-0.0127588190 -0.0313960570 0 -1
-0.0122530220 -0.0337669310 0 -1
-0.0115093570 -0.0357353350 0 -1
-0.0105895600 -0.0370654520 0 -1
-0.0095751150 -0.0375752540 0 -1
-0.0085633870 -0.0371537180 0 -1
-0.0076574880 -0.0357733480 0 -1
-0.0069514410 -0.0334971830 0 -1
-0.0065154100 -0.0304781120 0 -1
-0.0063858550 -0.0269477160 0 0
-0.0065621350 -0.0231937370 0 0
-0.0070085970 -0.0195291680 0 0
-0.0076614420 -0.0162588290 0 0
-0.0084381770 -0.0136492000 0 0
-0.0092457150 -0.0119046440 0 0
-0.0099863950 -0.0111504900 0 0
-0.0105653310 -0.0114228840 0 0
-0.0109005040 -0.0126659690 0 0
-0.0109325760 -0.0147370130 0 0
-0.0106309840 -0.0174197380 0 0
-0.0099958510 -0.0204449750 0 0
-0.0090579590 -0.0235157820 0 0
-0.0078787420 -0.0263332970 0 0
-0.0065491400 -0.0286210660 0 0
-0.0051839740 -0.0301479260 0 -1
-0.0039094780 -0.0307500110 0 -1
-0.0028458720 -0.0303506090 0 -1
-0.0020911300 -0.0289749610 0 0
-0.0017112080 -0.0267567560 0 0
-0.0017372760 -0.0239322690 0 0
-0.0021672620 -0.0208178350 0 0
-0.0029681550 -0.0177706910 0 0
-0.0040768150 -0.0151412270 0 0
-0.0054014050 -0.0132288760 0 0
-0.0068282300 -0.0122496440 0 0
-0.0082345030 -0.0123165760 0 0
-0.0095021360 -0.0134327760 0 0
-0.0105290350 -0.0154972300 0 0
-0.0112379310 -0.0183212900 0 0
-0.0115833980 -0.0216510680 0 0
-0.0115574520 -0.0251919950 0 0
-0.0111927810 -0.0286342300 0 0
-0.0105609570 -0.0316786660 0 -1
-0.0097652180 -0.0340625230 0 -1
-0.0089300240 -0.0355819860 0 -1
-0.0081871490 -0.0361090610 0 -1
-0.0076566730 -0.0356012460 0 -1
-0.0074260910 -0.0341038840 0 -1
-0.0075351660 -0.0317452060 0 -1
-0.0079709570 -0.0287243050 0 0
-0.0086721040 -0.0252946600 0 0
-0.0095412980 -0.0217470110 0 0
-0.0104653650 -0.0183916840 0 0
-0.0113379840 -0.0155362670 0 0
-0.0120773060 -0.0134565780 0 0
-0.0126337260 -0.0123647270 0 0
-0.0129874220 -0.0123811040 0 0
-0.0131394050 -0.0135167850 0 0
-0.0131025850 -0.0156703340 0 0
-0.0128958010 -0.0186390480 0 0
-0.0125384710 -0.0221415470 0 0
-0.0120457690 -0.0258470830 0 0
-0.0114290580 -0.0294072140 0 0
-0.0107036370 -0.0324880590 0 -1
-0.0098987690 -0.0348033580 0 -1
-0.0090627110 -0.0361462010 0 -1
-0.0082599160 -0.0364136840 0 -1
-0.0075628070 -0.0356192030 0 -1
-0.0070420040 -0.0338907550 0 -1
-0.0067564580 -0.0314560230 0 -1
-0.0067431990 -0.0286154260 0 0
-0.0070090210 -0.0257057840 0 0
-0.0075283650 -0.0230607670 0 0
-0.0082479360 -0.0209762710 0 0
-0.0090940910 -0.0196856750 0 0
-0.0099793690 -0.0193437530 0 0
-0.0108088130 -0.0200152330 0 0
-0.0114897910 -0.0216662260 0 0
-0.0119463750 -0.0241610260 0 0
-0.0121338000 -0.0272695040 0 0
-0.0120464130 -0.0306888110 0 -1
-0.0117159820 -0.0340770100 0 -1
-0.0112024030 -0.0370907010 0 -1
-0.0105816180 -0.0394195910 0 -1
-0.0099351320 -0.0408159390 0 -1
-0.0093439720 -0.0411184160 0 -1
-0.0088864670 -0.0402674620 0 -1
-0.0086347700 -0.0383082550 0 -1
-0.0086450820 -0.0353812060 0 -1
-0.0089434650 -0.0317045180 0 -1
-0.0095161500 -0.0275537670 0 0
-0.0103115930 -0.0232404310 0 0
-0.0112527710 -0.0190890710 0 0
-0.0122527910 -0.0154125360 0 0
-0.0132284420 -0.0124852870 0 0
-0.0141098520 -0.0105169150 0 0
-0.0148464620 -0.0096294310 0 0
-0.0154099560 -0.0098418470 0 0
-0.0157937380 -0.0110658960 0 0
-0.0160088430 -0.0131162340 0 0
-0.0160778710 -0.0157343070 0 0
-0.0160286360 -0.0186198370 0 0
-0.0158888660 -0.0214628910 0 0
-0.0156841800 -0.0239730970 0 0
-0.0154408370 -0.0259062450 0 0
-0.0151908280 -0.0270884390 0 0
-0.0149738720 -0.0274346670 0 0
-0.0148325540 -0.0269574780 0 0
-0.0148024530 -0.0257644040 0 0
-0.0149034990 -0.0240454070 0 0
-0.0151373290 -0.0220509150 0 0
-0.0154894560 -0.0200609730 0 0
-0.0159319090 -0.0183498340 0 0
-0.0164242490 -0.0171541860 0 0
-0.0169142810 -0.0166512320 0 0
-0.0173402640 -0.0169471470 0 0
-0.0176347740 -0.0180734810 0 0
-0.0177310180 -0.0199888670 0 0
-0.0175739170 -0.0225828700 0 0
-0.0171347950 -0.0256799000 0 0
-0.0164239650 -0.0290451390 0 0
-0.0154965090 -0.0323969780 0 -1
-0.0144486090 -0.0354289640 0 -1
-0.0134031980 -0.0378407250 0 -1
-0.0124892730 -0.0393737780 0 -1
-0.0118227880 -0.0398457650 0 -1
-0.0114917110 -0.0391760960 0 -1
-0.0115430820 -0.0373977150 0 -1
-0.0119745040 -0.0346534130 0 -1
-0.0127363500 -0.0311785710 0 -1
-0.0137449780 -0.0272735120 0 0
-0.0148997500 -0.0232690590 0 0
-0.0160972180 -0.0194904680 0 0
-0.0172407950 -0.0162257210 0 0
-0.0182471270 -0.0137020730 0 0
-0.0190502160 -0.0120716920 0 0
-0.0196034490 -0.0114054670 0 0
-0.0198800040 -0.0116929860 0 0
-0.0198728530 -0.0128468030 0 0
-0.0195948010 -0.0147107000 0 0
-0.0190785160 -0.0170724510 0 0
-0.0183772450 -0.0196810920 0 0
-0.0175655800 -0.0222686380 0 0
-0.0167367610 -0.0245753450 0 0
-0.0159939010 -0.0263754600 0 0
-0.0154364350 -0.0274996290 0 0
-0.0151453280 -0.0278513470 0 0
-0.0151704010 -0.0274153880 0 0
-0.0155221080 -0.0262568960 0 0
-0.0161687740 -0.0245119280 0 0
-0.0170397740 -0.0223718230 0 0
-0.0180355900 -0.0200630200 0 0
-0.0190442450 -0.0178232520 0 0
-0.0199598940 -0.0158764500 0 0
-0.0206975000 -0.0144104270 0 0
-0.0211998520 -0.0135611420 0 0
-0.0214366800 -0.0134050380 0 0
-0.0213981680 -0.0139576240 0 0
-0.0210874930 -0.0151747310 0 0
-0.0205178760 -0.0169542750 0 0
-0.0197164980 -0.0191393390 0 0
-0.0187312530 -0.0215253170 0 0
-0.0176320340 -0.0238739990 0 0
-0.0165020570 -0.0259353440 0 0
-0.0154235890 -0.0274739810 0 0
-0.0144663580 -0.0282949880 0 0
-0.0136827930 -0.0282644650 0 0
-0.0131079360 -0.0273238060 0 0
-0.0127595110 -0.0254985280 0 0
-0.0126364620 -0.0229010460 0 0
-0.0127177260 -0.0197248420 0 0
-0.0129628780 -0.0162284830 0 0
-0.0133154760 -0.0127114020 0 0
-0.0137108470 -0.0094860460 0 0
-0.0140889380 -0.0068496130 0 0
-0.0144072730 -0.0050556070 0 0
-0.0146457990 -0.0042857850 0 0
-0.0148010500 -0.0046259450 0 0
-0.0148756700 -0.0060505000 0 0
-0.0148712910 -0.0084202360 0 0
-0.0147880130 -0.0114954440 0 0
-0.0146289270 -0.0149626730 0 0
-0.0144063310 -0.0184691810 0 0
-0.0141474220 -0.0216586960 0 0
-0.0138983350 -0.0242053930 0 0
-0.0137242000 -0.0258450390 0 0
-0.0137020230 -0.0264018160 0 0
-0.0139059530 -0.0258087560 0 0
-0.0143884540 -0.0241188760 0 0
-0.0151629170 -0.0215036140 0 0
-0.0161940590 -0.0182366500 0 0
-0.0174014480 -0.0146645330 0 0
-0.0186758490 -0.0111684170 0 0
-0.0199004480 -0.0081230120 0 0
-0.0209671730 -0.0058585330 0 0
-0.0217854700 -0.0046288170 0 0
-0.0222883580 -0.0045862350 0 0
-0.0224392150 -0.0057640400 0 0
-0.0222367680 -0.0080685910 0 0
-0.0217138500 -0.0112851290 0 0
-0.0209283620 -0.0150992320 0 0
-0.0199495050 -0.0191318250 0 0
-0.0188458910 -0.0229814710 0 0
-0.0176810320 -0.0262674250 0 0
-0.0165156540 -0.0286693870 0 0
-0.0154105400 -0.0299609650 0 0
-0.0144248060 -0.0300331970 0 -1
-0.0136118820 -0.0289045600 0 0
-0.0130174950 -0.0267156230 0 0
-0.0126772280 -0.0237095030 0 0
-0.0126083520 -0.0202016510 0 0
-0.0127976840 -0.0165432020 0 0
-0.0131938710 -0.0130829370 0 0
-0.0137101790 -0.0101333840 0 0
-0.0142363800 -0.0079448900 0 0
-0.0146550340 -0.0066885730 0 0
-0.0148597610 -0.0064471920 0 0
-0.0147734360 -0.0072134320 0 0
-0.0143610750 -0.0088964200 0 0
-0.0136335620 -0.0113358430 0 0
-0.0126436080 -0.0143198370 0 0
-0.0114771120 -0.0176024950 0 0
-0.0102416010 -0.0209195470 0 0
-0.0090525870 -0.0240031960 0 0
-0.0080190930 -0.0265983400 0 0
-0.0072309520 -0.0284818330 0 0
-0.0067512000 -0.0294844410 0 0
-0.0066146180 -0.0295129280 0 0
-0.0068296320 -0.0285678800 0 0
-0.0073797770 -0.0267517540 0 0
-0.0082232730 -0.0242631340 0 0
-0.0092918380 -0.0213765860 0 0
-0.0104915820 -0.0184104940 0 0
-0.0117099290 -0.0156873600 0 0
-0.0128301780 -0.0134927990 0 0
-0.0137484230 -0.0120401420 0 0
-0.0143836550 -0.0114462180 0 0
-0.0146786990 -0.0117213670 0 0
-0.0145986370 -0.0127741130 0 0
-0.0141323440 -0.0144284790 0 0
-0.0132963910 -0.0164499610 0 0
-0.0121386470 -0.0185754820 0 0
-0.0107400620 -0.0205430490 0 0
-0.0092130400 -0.0221171420 0 0
-0.0076944740 -0.0231064300 0 0
-0.0063328030 -0.0233728190 0 0
-0.0052698500 -0.0228352150 0 0
-0.0046197160 -0.0214741420 0 0
-0.0044490890 -0.0193397900 0 0
-0.0047641350 -0.0165584860 0 0
-0.0055076890 -0.0133296510 0 0
-0.0065683090 -0.0099104390 0 0
-0.0077998150 -0.0065910470 0 0
-0.0090469870 -0.0036650920 0 0
-0.0101718910 -0.0013989490 0 0
-0.0110746350 -0.0000038933 0 0
-0.0117026300 0.0003858340 0 0
-0.0120466440 -0.0002722480 0 0
-0.0121287660 -0.0019213210 0 0
-0.0119897120 -0.0044058710 0 0
-0.0116787560 -0.0074831820 0 0
-0.0112460080 -0.0108468950 0 0
-0.0107373280 -0.0141591820 0 0
-0.0101924040 -0.0170853960 0 0
-0.0096450260 -0.0193267740 0 0
-0.0091243570 -0.0206495940 0 0
-0.0086568690 -0.0209095100 0 0
-0.0082681920 -0.0200688510 0 0
-0.0079831040 -0.0182043160 0 0
-0.0078223620 -0.0155028650 0 0
-0.0077973570 -0.0122442130 0 0
-0.0079057490 -0.0087699550 0 0
-0.0081305870 -0.0054427930 0 0
-0.0084424040 -0.0026026320 0 0
-0.0088022020 -0.0005268700 0 0
-0.0091644820 0.0005998670 0 0
-0.0094806970 0.0007034130 0 0
-0.0097037030 -0.0001764910 0 0
-0.0097939610 -0.0018971580 0 0
-0.0097273620 -0.0042356310 0 0
-0.0095033510 -0.0069175680 0 0
-0.0091512580 -0.0096470740 0 0
-0.0087313520 -0.0121349920 0 0
-0.0083268810 -0.0141244980 0 0
-0.0080280600 -0.0154125060 0 0
-0.0079158360 -0.0158655690 0 0
-0.0080536620 -0.0154296880 0 0
-0.0084871720 -0.0141337230 0 0
-0.0092437600 -0.0120868700 0 0
-0.0103253560 -0.0094712100 0 0
-0.0116965450 -0.0065292500 0 0
-0.0132773750 -0.0035447260 0 0
-0.0149488000 -0.0008156440 0 0
-0.0165701690 0.0013784540 0 0
-0.0180010390 0.0028101930 0 0
-0.0191201090 0.0033330810 0 0
-0.0198387600 0.0028998050 0 0
-0.0201090550 0.0015665780 0 0
-0.0199256590 -0.0005165930 0 0
-0.0193215970 -0.0031263470 0 0
-0.0183605660 -0.0059926100 0 0
-0.0171301280 -0.0088277580 0 0
-0.0157369770 -0.0113546470 0 0
-0.0143016830 -0.0133301350 0 0
-0.0129506080 -0.0145631820 0 0
-0.0118043260 -0.0149285230 0 0
-0.0109624060 -0.0143761540 0 0
-0.0104869670 -0.0129355220 0 0
-0.0103916990 -0.0107135060 0 0
-0.0106429630 -0.0078865140 0 0
-0.0111727940 -0.0046879430 0 0
-0.0118965620 -0.0013917840 0 0
-0.0127280750 0.0017080810 0 0
-0.0135895830 0.0043230920 0 0
-0.0144163770 0.0061979580 0 0
-0.0151560320 0.0071378850 0 0
-0.0157651900 0.0070320050 0 0
-0.0162085270 0.0058707610 0 0
-0.0164609460 0.0037542160 0 0
-0.0165110360 0.0008874520 0 0
-0.0163653240 -0.0024388790 0 0
-0.0160528560 -0.0058811280 0 0
-0.0156260580 -0.0090830040 0 0
-0.0151544510 -0.0117164380 0 0
-0.0147130100 -0.0135171510 0 0
-0.0143702240 -0.0143124190 0 0
-0.0141803920 -0.0140395280 0 0
-0.0141820760 -0.0127523810 0 0
-0.0144004760 -0.0106138040 0 0
-0.0148485020 -0.0078734290 0 0
-0.0155230780 -0.0048345660 0 0
-0.0163977890 -0.0018164410 0 0
-0.0174158000 0.0008811140 0 0
-0.0184878530 0.0030053840 0 0
-0.0194994890 0.0043695320 0 0
-0.0203278990 0.0048640140 0 0
-0.0208636120 0.0044625520 0 0
-0.0210306570 0.0032232000 0 0
-0.0208008720 0.0012838240 0 0
-0.0201993660 -0.0011487000 0 0
-0.0192993190 -0.0038155310 0 0
-0.0182073050 -0.0064286380 0 0
-0.0170434770 -0.0086986810 0 0
-0.0159223000 -0.0103658110 0 0
-0.0149374290 -0.0112288970 0 0
-0.0141516760 -0.0111680920 0 0
-0.0135941720 -0.0101573780 0 0
-0.0132669830 -0.0082659270 0 0
-0.0131574340 -0.0056489690 0 0
-0.0132478660 -0.0025306550 0 0
-0.0135189690 0.0008171810 0 0
-0.0139488220 0.0040967790 0 0
-0.0145104220 0.0070058450 0 0
-0.0151687580 0.0092604190 0 0
-0.0158783200 0.0106209120 0 0
-0.0165823080 0.0109197990 0 0
-0.0172147080 0.0100856030 0 0
-0.0177060730 0.0081565560 0 0
-0.0179929640 0.0052799050 0 0
-0.0180288150 0.0016970160 0 0
-0.0177921450 -0.0022830430 0 0
-0.0172888020 -0.0063175730 0 0
-0.0165478470 -0.0100663850 0 0
-0.0156141650 -0.0132238200 0 0
-0.0145425380 -0.0155433990 0 0
-0.0133960710 -0.0168555710 0 0
-0.0122473720 -0.0170796470 0 0
-0.0111768680 -0.0162299610 0 0
-0.0102641040 -0.0144154960 0 0
-0.0095745850 -0.0118318530 0 0
-0.0091489810 -0.0087443020 0 0
-0.0089986760 -0.0054621320 0 0
-0.0091061120 -0.0023072090 0 0
-0.0094270000 0.0004190150 0 0
-0.0098945190 0.0024667090 0 0
-0.0104274090 0.0036645450 0 0
-0.0109415310 0.0039385580 0 0
-0.0113621910 0.0033189650 0 0
-0.0116348900 0.0019336550 0 0
-0.0117326350 -0.0000095010 0 0
-0.0116578110 -0.0022478600 0 0
-0.0114380790 -0.0044929710 0 0
-0.0111188920 -0.0064598240 0 0
-0.0107563810 -0.0078940280 0 0
-0.0104122420 -0.0085956030 0 0
-0.0101499900 -0.0084378120 0 0
-0.0100316440 -0.0073790630 0 0
-0.0101137680 -0.0054667880 0 0
-0.0104414700 -0.0028331430 0 0
-0.0110401030 0.0003173010 0 0
-0.0119064710 0.0037271620 0 0
-0.0130022140 0.0071110560 0 0
-0.0142520880 0.0101826130 0 0
-0.0155503870 0.0126812340 0 0
-0.0167775200 0.0143969940 0 0
-0.0178226710 0.0151921070 0 0
-0.0186031530 0.0150162740 0 0
-0.0190734200 0.0139124930 0 0
-0.0192244930 0.0120111000 0 0
-0.0190797540 0.0095122580 0 0
-0.0186915140 0.0066595500 0 0
-0.0181376430 0.0037097220 0 0
-0.0175150010 0.0009053660 0 0
-0.0169271660 -0.0015436460 0 0
-0.0164670820 -0.0034686820 0 0
-0.0162010990 -0.0047450280 0 0
-0.0161631880 -0.0052944600 0 0
-0.0163604460 -0.0050897960 0 0
-0.0167816740 -0.0041593200 0 0
-0.0174018810 -0.0025879420 0 0
-0.0181839220 -0.0005134740 0 0
-0.0190813910 0.0018815010 0 0
-0.0200417860 0.0043810420 0 0
-0.0210058500 0.0067508640 0 0
-0.0219037310 0.0087584370 0 0
-0.0226536810 0.0101974570 0 0
-0.0231682310 0.0109121300 0 0
-0.0233674480 0.0108156840 0 0
-0.0231943150 0.0099002030 0 0
-0.0226271740 0.0082376170 0 0
-0.0216864400 0.0059725930 0 0
-0.0204345540 0.0033086960 0 0
-0.0189700590 0.0004899280 0 0
-0.0174176670 -0.0022203450 0 0
-0.0159148990 -0.0045621790 0 0
-0.0145952180 -0.0063033730 0 0
-0.0135695740 -0.0072637910 0 0
-0.0129105300 -0.0073363350 0 0
-0.0126430030 -0.0065013720 0 0
-0.0127434000 -0.0048323380 0 0
-0.0131472220 -0.0024907470 0 0
-0.0137638250 0.0002897960 0 0
-0.0144950000 0.0032286460 0 0
-0.0152521960 0.0060288290 0 0
-0.0159677460 0.0084093790 0 0
-0.0165978110 0.0101347410 0 0
-0.0171172800 0.0110376670 0 0
-0.0175093730 0.0110346300 0 0
-0.0177551210 0.0101338800 0 0
-0.0178288180 0.0084352150 0 0
-0.0177036810 0.0061203830 0 0
-0.0173662590 0.0034341890 0 0
-0.0168319720 0.0006577960 0 0
-0.0161536940 -0.0019220910 0 0
-0.0154194680 -0.0040434770 0 0
-0.0147395840 -0.0054962060 0 0
-0.0142272020 -0.0061454290 0 0
-0.0139790930 -0.0059498430 0 0
-0.0140609700 -0.0049707610 0 0
-0.0144982610 -0.0033675630 0 0
-0.0152719380 -0.0013779230 0 0
-0.0163189560 0.0007143760 0 0
-0.0175376570 0.0026180670 0 0
-0.0188002320 0.0040729300 0 0
-0.0199735650 0.0048823300 0 0
-0.0209437770 0.0049354080 0 0
-0.0216345840 0.0042169290 0 0
-0.0220125220 0.0028048380 0 0
-0.0220804840 0.0008568000 0 0
-0.0218678260 -0.0014111150 0 0
-0.0214263330 -0.0037488790 0 0
-0.0208340210 -0.0058962050 0 0
-0.0201972100 -0.0076051380 0 0
-0.0196377270 -0.0086637980 0 0
-0.0192643150 -0.0089208660 0 0
-0.0191440100 -0.0083051230 0 0
-0.0192907100 -0.0068341400 0 0
-0.0196731710 -0.0046110520 0 0
-0.0202324620 -0.0018114350 0 0
-0.0208989750 0.0013373180 0 0
-0.0216034640 0.0045807210 0 0
-0.0222800240 0.0076617700 0 0
-0.0228629970 0.0103426130 0 0
-0.0232837940 0.0124224560 0 0
-0.0234736040 0.0137513640 0 0
-0.0233727260 0.0142399320 0 0
-0.0229412710 0.0138652250 0 0
-0.0221657020 0.0126732330 0 0
-0.0210606080 0.0107771360 0 0
-0.0196686590 0.0083494760 0 0
-0.0180606670 0.0056072650 0 0
-0.0163341500 0.0027920250 0 0
-0.0146067710 0.0001481710 0 0
-0.0130028920 -0.0020980780 0 0
-0.0116367480 -0.0037582100 0 0
-0.0105992690 -0.0046982900 0 0
-0.0099520440 -0.0048520040 0 0
-0.0097250640 -0.0042286330 0 0
-0.0099139130 -0.0029147860 0 0
-0.0104765270 -0.0010694090 0 0
-0.0113326510 0.0010872290 0 0
-0.0123693230 0.0032901570 0 0
-0.0134551160 0.0052532490 0 0
-0.0144619840 0.0067007290 0 0
-0.0152874880 0.0074029440 0 0
-0.0158690510 0.0072076100 0 0
-0.0161868850 0.0060581120 0 0
-0.0162572890 0.0039965800 0 0
-0.0161202660 0.0011558200 0 0
-0.0158266850 -0.0022539390 0 0
-0.0154298280 -0.0059601110 0 0
-0.0149820250 -0.0096455120 0 0
-0.0145329820 -0.0129723150 0 0
-0.0141271880 -0.0156134900 0 0
-0.0138010400 -0.0172880100 0 0
-0.0135816130 -0.0177937940 0 0
-0.0134879430 -0.0170333210 0 0
-0.0135331370 -0.0150280490 0 0
-0.0137239500 -0.0119189690 0 0
-0.0140566250 -0.0079527080 0 0
-0.0145117180 -0.0034552750 0 0
-0.0150515480 0.0012021160 0 0
-0.0156218800 0.0056396770 0 0
-0.0161576440 0.0095037600 0 0
-0.0165910380 0.0124976830 0 0
-0.0168592740 0.0144078990 0 0
-0.0169109720 0.0151228870 0 0
-0.0167119560 0.0146407510 0 0
-0.0162500600 0.0130645000 0 0
-0.0155379490 0.0105880510 0 0
-0.0146142040 0.0074759270 0 0
-0.0135423130 0.0040375390 0 0
-0.0124056090 0.0005972310 0 0
-0.0112970910 -0.0025367460 0 0
-0.0103058640 -0.0051003780 0 0
-0.0095040180 -0.0068964000 0 0
-0.0089379190 -0.0078098350 0 0
-0.0086252280 -0.0078158800 0 0
-0.0085559090 -0.0069798500 0 0
-0.0086956570 -0.0054491440 0 0
-0.0089924800 -0.0034374710 0 0
-0.0093872210 -0.0012027560 0 0
-0.0098251100 0.0009779680 0 0
-0.0102618290 0.0028332320 0 0
-0.0106601110 0.0041206380 0 0
-0.0109811800 0.0046503910 0 0
-0.0111808470 0.0043069610 0 0
-0.0112168310 0.0030628150 0 0
-0.0110639780 0.0009802840 0 0
-0.0107259430 -0.0017959400 0 0
-0.0102352350 -0.0050512990 0 0
-0.0096441240 -0.0085177690 0 0
-0.0090138090 -0.0118954300 0 0
-0.0084056000 -0.0148794820 0 0
-0.0078737380 -0.0171907890 0 0
-0.0074598710 -0.0186062570 0 0
-0.0071906700 -0.0189844150 0 0
-0.0070786360 -0.0182817250 0 0
-0.0071240060 -0.0165563600 0 0
-0.0073158490 -0.0139590050 0 0
-0.0076316030 -0.0107137350 0 0
-0.0080356010 -0.0070942370 0 0
-0.0084787770 -0.0033997810 0 0
-0.0089020650 0.0000682591 0 0
-0.0092433210 0.0030312120 0 0
-0.0094450230 0.0052595740 0 0
-0.0094600100 0.0065975020 0 0
-0.0092544540 0.0069796570 0 0
-0.0088091930 0.0064368200 0 0
-0.0081214360 0.0050908220 0 0
-0.0072079740 0.0031408210 0 0
-0.0061090410 0.0008417340 0 0
-0.0048904210 -0.0015237380 0 0
-0.0036408700 -0.0036755700 0 0
-0.0024629740 -0.0053653710 0 0
-0.0014588830 -0.0064017540 0 0
-0.0007154770 -0.0066706930 0 0
-0.0002931640 -0.0061486350 0 0
-0.0002200610 -0.0049055750 0 0
-0.0004918470 -0.0030959680 0 0
-0.0010753730 -0.0009382550 0 0
-0.0019118170 0.0013120760 0 0
-0.0029184490 0.0033899620 0 0
-0.0039937150 0.0050464310 0 0
-0.0050288190 0.0060729680 0 0
-0.0059221810 0.0063237180 0 0
-0.0065904810 0.0057323060 0 0
-0.0069744240 0.0043201350 0 0
-0.0070420230 0.0021948090 0 0
-0.0067913450 -0.0004609450 0 0
-0.0062516900 -0.0034088990 0 0
-0.0054818550 -0.0063825090 0 0
-0.0045650270 -0.0091185430 0 0
-0.0036003280 -0.0113866060 0 0
-0.0026923710 -0.0130102090 0 0
-0.0019411570 -0.0138782160 0 0
-0.0014334380 -0.0139493590 0 0
-0.0012346780 -0.0132513940 0 0
-0.0013811160 -0.0118739100 0 0
-0.0018744930 -0.0099545740 0 0
-0.0026818160 -0.0076620330 0 0
-0.0037388930 -0.0051804860 0 0
-0.0049572090 -0.0026988080 0 0
-0.0062364120 -0.0004028270 0 0
-0.0074803590 0.0015326210 0 0
-0.0086086700 0.0029536200 0 0
-0.0095587290 0.0037388190 0 0
-0.0102814210 0.0038116620 0 0
-0.0107381710 0.0031511360 0 0
-0.0109041820 0.0017985550 0 0
-0.0107759800 -0.0001415650 0 0
-0.0103759530 -0.0025075700 0 0
-0.0097489150 -0.0050934790 0 0
-0.0089533190 -0.0076669660 0 0
-0.0080533380 -0.0099908870 0 0
-0.0071153070 -0.0118473110 0 0
-0.0062076910 -0.0130620530 0 0
-0.0054011040 -0.0135261500 0 0
-0.0047651870 -0.0132110220 0 0
-0.0043615610 -0.0121752060 0 0
-0.0042342920 -0.0105607320 0 0
-0.0044006690 -0.0085780070 0 0
-0.0048458340 -0.0064808370 0 0
-0.0055242860 -0.0045361180 0 0
-0.0063675120 -0.0029936440 0 0
-0.0072926930 -0.0020599980 0 0
-0.0082085560 -0.0018773190 0 0
-0.0090196120 -0.0025062490 0 0
-0.0096326430 -0.0039148540 0 0
-0.0099679620 -0.0059777910 0 0
-0.0099734860 -0.0084883890 0 0
-0.0096352990 -0.0111824970 0 0
-0.0089803800 -0.0137699530 0 0
-0.0080738290 -0.0159680010 0 0
-0.0070145640 -0.0175316630 0 0
-0.0059281490 -0.0182782140 0 0
-0.0049523070 -0.0181047830 0 0
-0.0042153440 -0.0169980780 0 0
-0.0038137620 -0.0150349070 0 0
-0.0037971660 -0.0123733480 0 0
-0.0041661330 -0.0092362190 0 0
-0.0048814250 -0.0058890480 0 0
-0.0058758240 -0.0026145520 0 0
-0.0070614610 0.0003144550 0 0
-0.0083324410 0.0026613970 0 0
-0.0095666500 0.0042482700 0 0
-0.0106310920 0.0049709060 0 0
-0.0113936560 0.0048062410 0 0
-0.0117409250 0.0038131110 0 0
-0.0115984430 0.0021277390 0 0
-0.0109480900 -0.0000476844 0 0
-0.0098366580 -0.0024648960 0 0
-0.0083709240 -0.0048556220 0 0
-0.0066995180 -0.0069591290 0 0
-0.0049881230 -0.0085477220 0 0
-0.0033960200 -0.0094484650 0 0
-0.0020588450 -0.0095597670 0 0
-0.0010786160 -0.0088608990 0 0
-0.0005186800 -0.0074131590 0 0
-0.0003998530 -0.0053534730 0 0
-0.0006974150 -0.0028822120 0 0
-0.0013429920 -0.0002457510 0 0
-0.0022340440 0.0022867400 0 0
-0.0032487600 0.0044512340 0 0
-0.0042624410 0.0060174450 0 0
-0.0051628180 0.0068130790 0 0
-0.0058621620 0.0067409670 0 0
-0.0063034080 0.0057889570 0 0
-0.0064597840 0.0040330330 0 0
-0.0063313020 0.0016327920 0 0
-0.0059417650 -0.0011825410 0 0
-0.0053368510 -0.0041378160 0 0
-0.0045821110 -0.0069425080 0 0
-0.0037586160 -0.0093230350 0 0
-0.0029535980 -0.0110512290 0 0
-0.0022475370 -0.0119653110 0 0
-0.0017034110 -0.0119833120 0 0
-0.0013611280 -0.0111106530 0 0
-0.0012351020 -0.0094425750 0 0
-0.0013127280 -0.0071602680 0 0
-0.0015542590 -0.0045178460 0 0
-0.0018968120 -0.0018174720 0 0
-0.0022653680 0.0006266430 0 0
-0.0025889420 0.0025292130 0 0
-0.0028136050 0.0036701770 0 0
-0.0029065960 0.0039181610 0 0
-0.0028556880 0.0032385080 0 0
-0.0026695650 0.0016886160 0 0
-0.0023778010 -0.0005946640 0 0
-0.0020279200 -0.0034116850 0 0
-0.0016816670 -0.0065190570 0 0
-0.0014121810 -0.0096516140 0 0
-0.0012998900 -0.0125480640 0 0
-0.0014255980 -0.0149785600 0 0
-0.0018633710 -0.0167698660 0 0
-0.0026757430 -0.0178243920 0 0
-0.0039094810 -0.0181309500 0 0
-0.0055894990 -0.0177651250 0 0
-0.0077124930 -0.0168782440 0 0
-0.0102435790 -0.0156773810 0 0
-0.0131172010 -0.0144011300 0 0
-0.0162419990 -0.0132958180 0 0
-0.0195085200 -0.0125954060 0 0
-0.0227983120 -0.0125051420 0 0
-0.0259938860 -0.0131860730 0 0
-0.0289906830 -0.0147390710 0 0
-0.0317113100 -0.0171917030 -1 0
-0.0341181890 -0.0204925760 -1 0
-0.0362186550 -0.0245143820 -1 0
-0.0380603420 -0.0290639570 -1 0
-0.0397200050 -0.0338976620 -1 -1
-0.0412902010 -0.0387411490 -1 -1
-0.0428668300 -0.0433125320 -1 -1
-0.0445388840 -0.0473471110 -1 -1
-0.0463806220 -0.0506210940 -1 -1
-0.0484453190 -0.0529721870 -1 -1
-0.0507593440 -0.0543154410 -1 -1
-0.0533178150 -0.0546526310 -1 -1
-0.0560857620 -0.0540731720 -1 -1
-0.0590058690 -0.0527452920 -1 -1
-0.0620089510 -0.0508980880 -1 -1
-0.0650231280 -0.0487976290 -1 -1
-0.0679799100 -0.0467215590 -1 -1
-0.0708165480 -0.0449353370 -1 -1
-0.0734757430 -0.0436706760 -1 -1
-0.0759057450 -0.0431061940 -1 -1
-0.0780632640 -0.0433518030 -1 -1
-0.0799190770 -0.0444385360 -1 -1
-0.0814640190 -0.0463143040 -1 -1
-0.0827126820 -0.0488457170 -1 -1
-0.0837037040 -0.0518271490 -1 -1
-0.0844972690 -0.0549989290 -1 -1
-0.0851710380 -0.0580746340 -1 -1
-0.0858158190 -0.0607739650 -1 -1
-0.0865321380 -0.0628556370 -1 -1
-0.0874269170 -0.0641449380 -1 -1
-0.0886067810 -0.0645516840 -1 -1
-0.0901647820 -0.0640763550 -1 -1
-0.0921611980 -0.0628059590 -1 -1
-0.0946043290 -0.0609032400 -1 -1
-0.0974390760 -0.0585907910 -1 -1
-0.1005472750 -0.0561296310 -1 -1
-0.1037585130 -0.0537939340 -1 -1
-0.1068683750 -0.0518453420 -1 -1
-0.1096620880 -0.0505085580 -1 -1
-0.1119418760 -0.0499491030 -1 -1
-0.1135540960 -0.0502563600 -1 -1
-0.1144104930 -0.0514352410 -1 -1
-0.1144996520 -0.0534065310 -1 -1
-0.1138874700 -0.0560137120 -1 -1
-0.1127064170 -0.0590352040 -1 -1
-0.1111342000 -0.0622024120 -1 -1
-0.1093657750 -0.0652233960 -1 -1
-0.1075868610 -0.0678103250 -1 -1
-0.1059577810 -0.0697075880 -1 -1
-0.1046099100 -0.0707179440 -1 -1
-0.1036475040 -0.0707255890 -1 -1
-0.1031454020 -0.0697144200 -1 -1
-0.1031403340 -0.0677771010 -1 -1
-0.1036214090 -0.0651099140 -1 -1
-0.1045270520 -0.0619922610 -1 -1
-0.1057527480 -0.0587550050 -1 -1
-0.1071683260 -0.0557445210 -1 -1
-0.1086380890 -0.0532875200 -1 -1
-0.1100365450 -0.0516585140 -1 -1
-0.1112570230 -0.0510513040 -1 -1
-0.1122153040 -0.0515574810 -1 -1
-0.1128523040 -0.0531554620 -1 -1
-0.1131366760 -0.0557123340 -1 -1
-0.1130633700 -0.0589991000 -1 -1
-0.1126468510 -0.0627174240 -1 -1
-0.1119164620 -0.0665332970 -1 -1
-0.1109215330 -0.0701124740 -1 -1
-0.1097420230 -0.0731544100 -1 -1
-0.1084924230 -0.0754227360 -1 -1
-0.1073110260 -0.0767684890 -1 -1
-0.1063371660 -0.0771408950 -1 -1
-0.1056870850 -0.0765835270 -1 -1
-0.1054385990 -0.0752189950 -1 -1
-0.1056260710 -0.0732283790 -1 -1
-0.1062402890 -0.0708303880 -1 -1
-0.1072296260 -0.0682623980 -1 -1
-0.1085037380 -0.0657639340 -1 -1
-0.1099418590 -0.0635620230 -1 -1
-0.1114056850 -0.0618567100 -1 -1
-0.1127550350 -0.0608056090 -1 -1
-0.1138631270 -0.0605084950 -1 -1
-0.1146288200 -0.0609941090 -1 -1
-0.1149854070 -0.0622112160 -1 -1
-0.1149062440 -0.0640269840 -1 -1
-0.1144061690 -0.0662362330 -1 -1
-0.1135374170 -0.0685820380 -1 -1
-0.1123809310 -0.0707841590 -1 -1
-0.1110360030 -0.0725707590 -1 -1
-0.1096104290 -0.0737096210 -1 -1
-0.1082110610 -0.0740351400 -1 -1
-0.1069346700 -0.0734672520 -1 -1
-0.1058608010 -0.0720195440 -1 -1
-0.1050483190 -0.0697956490 -1 -1
-0.1045344160 -0.0669751880 -1 -1
-0.1043321610 -0.0637924940 -1 -1
-0.1044252600 -0.0605125710 -1 -1
-0.1047644080 -0.0574083610 -1 -1
-0.1052704650 -0.0547409720 -1 -1
-0.1058454320 -0.0527416970 -1 -1
-0.1063885140 -0.0515938450 -1 -1
-0.1068125660 -0.0514140490 -1 -1
-0.1070560780 -0.0522351730 -1 -1
-0.1070885560 -0.0539949470 -1 -1
-0.1069104560 -0.0565351150 -1 -1
-0.1065487150 -0.0596135360 -1 -1
-0.1060479770 -0.0629281190 -1 -1
-0.1054596380 -0.0661495740 -1 -1
-0.1048336800 -0.0689583770 -1 -1
-0.1042174360 -0.0710801010 -1 -1
-0.1036599990 -0.0723141290 -1 -1
-0.1032162710 -0.0725528420 -1 -1
-0.1029454420 -0.0717896640 -1 -1
-0.1029024800 -0.0701158460 -1 -1
-0.1031248010 -0.0677074930 -1 -1
-0.1036198380 -0.0648053350 -1 -1
-0.1043599610 -0.0616900000 -1 -1
-0.1052848650 -0.0586553930 -1 -1
-0.1063051580 -0.0559818890 -1 -1
-0.1073053600 -0.0539105160 -1 -1
-0.1081523770 -0.0526197700 -1 -1
-0.1087130280 -0.0522078540 -1 -1
-0.1088756260 -0.0526832980 -1 -1
-0.1085683160 -0.0539656490 -1 -1
-0.1077711100 -0.0558958110 -1 -1
-0.1065223560 -0.0582538960 -1 -1
-0.1049196710 -0.0607820240 -1 -1
-0.1031125660 -0.0632099150 -1 -1
-0.1012844330 -0.0652811900 -1 -1
-0.0996267340 -0.0667774320 -1 -1
-0.0983131490 -0.0675375590 -1 -1
-0.0974802960 -0.0674723080 -1 -1
-0.0972158660 -0.0665754370 -1 -1
-0.0975516110 -0.0649322430 -1 -1
-0.0984597360 -0.0627222280 -1 -1
-0.0998527720 -0.0602096350 -1 -1
-0.1015887620 -0.0577174280 -1 -1
-0.1034852200 -0.0555858890 -1 -1
-0.1053426240 -0.0541225550 -1 -1
-0.1069722200 -0.0535535580 -1 -1
-0.1082202040 -0.0539864260 -1 -1
-0.1089836200 -0.0553910970 -1 -1
-0.1092184420 -0.0576019230 -1 -1
-0.1089415110 -0.0603405800 -1 -1
-0.1082253030 -0.0632568250 -1 -1
-0.1071845550 -0.0659806050 -1 -1
-0.1059573450 -0.0681757630 -1 -1
-0.1046846420 -0.0695840240 -1 -1
-0.1034921540 -0.0700506340 -1 -1
-0.1024783760 -0.0695299570 -1 -1
-0.1017106540 -0.0680755730 -1 -1
-0.1012272000 -0.0658214280 -1 -1
-0.1010418880 -0.0629597770 -1 -1
-0.1011496740 -0.0597199560 -1 -1
-0.1015304490 -0.0563495810 -1 -1
-0.1021496140 -0.0530975120 -1 -1
-0.1029563020 -0.0501975890 -1 -1
-0.1038825380 -0.0478535830 -1 -1
-0.1048457800 -0.0462266360 -1 -1
-0.1057548470 -0.0454258130 -1 -1
-0.1065177450 -0.0455010690 -1 -1
-0.1070495290 -0.0464376500 -1 -1
-0.1072796190 -0.0481528790 -1 -1
-0.1071602130 -0.0504982590 -1 -1
-0.1066760150 -0.0532686170 -1 -1
-0.1058506610 -0.0562182170 -1 -1
-0.1047451010 -0.0590828650 -1 -1
-0.1034496690 -0.0616043810 -1 -1
-0.1020759450 -0.0635524450 -1 -1
-0.1007510610 -0.0647425860 -1 -1
-0.0996108990 -0.0650517080 -1 -1
-0.0987878120 -0.0644300280 -1 -1
-0.0983925590 -0.0629067290 -1 -1
-0.0984938180 -0.0605888710 -1 -1
-0.0991018090 -0.0576547480 -1 -1
-0.1001640080 -0.0543417520 -1 -1
-0.1015751220 -0.0509275460 -1 -1
-0.1031947520 -0.0477048160 -1 -1
-0.1048653200 -0.0449528470 -1 -1
-0.1064287420 -0.0429098650 -1 -1
-0.1077429760 -0.0417491150 -1 -1
-0.1086966470 -0.0415613600 -1 -1
-0.1092180750 -0.0423455210 -1 -1
-0.1092779190 -0.0440072580 -1 -1
-0.1088884690 -0.0463650060 -1 -1
-0.1081020380 -0.0491646720 -1 -1
-0.1070072170 -0.0521044500 -1 -1
-0.1057201510 -0.0548678690 -1 -1
-0.1043701460 -0.0571601550 -1 -1
-0.1030823300 -0.0587428430 -1 -1
-0.1019619250 -0.0594620870 -1 -1
-0.1010840690 -0.0592659030 -1 -1
-0.1004905900 -0.0582073870 -1 -1
-0.1001917750 -0.0564345980 -1 -1
-0.1001698070 -0.0541703100 -1 -1
-0.1003830050 -0.0516849720 -1 -1
-0.1007721380 -0.0492660030 -1 -1
-0.1012689370 -0.0471869470 -1 -1
-0.1018057240 -0.0456795310 -1 -1
-0.1023249050 -0.0449109780 -1 -1
-0.1027856630 -0.0449690750 -1 -1
-0.1031650470 -0.0458570270 -1 -1
-0.1034539740 -0.0474983040 -1 -1
-0.1036516450 -0.0497498870 -1 -1
-0.1037617490 -0.0524210210 -1 -1
-0.1037919010 -0.0552938070 -1 -1
-0.1037554670 -0.0581421180 -1 -1
-0.1036738340 -0.0607467940 -1 -1
-0.1035775360 -0.0629073220 -1 -1
-0.1035045370 -0.0644520450 -1 -1
-0.1034936540 -0.0652484470 -1 -1
-0.1035729710 -0.0652134670 -1 -1
-0.1037482640 -0.0643234900 -1 -1
-0.1039995920 -0.0626228250 -1 -1
-0.1042885300 -0.0602273710 -1 -1
-0.1045701550 -0.0573203200 -1 -1
-0.1048026270 -0.0541391800 -1 -1
-0.1049520970 -0.0509547340 -1 -1
-0.1049949780 -0.0480435370 -1 -1
-0.1049199210 -0.0456578420 -1 -1
-0.1047294910 -0.0439980270 -1 -1
-0.1044401100 -0.0431913800 -1 -1
-0.1040789090 -0.0432790530 -1 -1
-0.1036774340 -0.0442121720 -1 -1
-0.1032646460 -0.0458583930 -1 -1
-0.1028628440 -0.0480193810 -1 -1
-0.1024885690 -0.0504565680 -1 -1
-0.1021576280 -0.0529191150 -1 -1
-0.1018911430 -0.0551674220 -1 -1
-0.1017194200 -0.0569887320 -1 -1
-0.1016817190 -0.0582061140 -1 -1
-0.1018214100 -0.0586853570 -1 -1
-0.1021775220 -0.0583443920 -1 -1
-0.1027741730 -0.0571663410 -1 -1
-0.1036086850 -0.0552119680 -1 -1
-0.1046409460 -0.0526246450 -1 -1
-0.1057902120 -0.0496227100 -1 -1
-0.1069437330 -0.0464786770 -1 -1
-0.1079744320 -0.0434890650 -1 -1
-0.1087617330 -0.0409404890 -1 -1
-0.1092110880 -0.0390768660 -1 -1
-0.1092680940 -0.0380714650 -1 -1
-0.1089238110 -0.0380071840 -1 -1
-0.1082120900 -0.0388678620 -1 -1
-0.1072027030 -0.0405414940 -1 -1
-0.1059917490 -0.0428336750 -1 -1
-0.1046879150 -0.0454888950 -1 -1
-0.1033951250 -0.0482180390 -1 -1
-0.1021960440 -0.0507298260 -1 -1
-0.1011417400 -0.0527625570 -1 -1
-0.1002503390 -0.0541126290 -1 -1
-0.0995141930 -0.0546566860 -1 -1
-0.0989130680 -0.0543641290 -1 -1
-0.0984287590 -0.0532977870 -1 -1
-0.0980546330 -0.0516037700 -1 -1
-0.0977959440 -0.0494949430 -1 -1
-0.0976628960 -0.0472315430 -1 -1
-0.0976620600 -0.0450983000 -1 -1
-0.0977900120 -0.0433765600 -1 -1
-0.0980292170 -0.0423140420 -1 -1
-0.0983453140 -0.0420981890 -1 -1
-0.0986870640 -0.0428371000 -1 -1
-0.0989905780 -0.0445477620 -1 -1
-0.0991872710 -0.0471497330 -1 -1
-0.0992140870 -0.0504649760 -1 -1
-0.0990251210 -0.0542278530 -1 -1
-0.0986030450 -0.0581090450 -1 -1
-0.0979673010 -0.0617520940 -1 -1
-0.0971752200 -0.0648156790 -1 -1
-0.0963130320 -0.0670130610 -1 -1
-0.0954787840 -0.0681422520 -1 -1
-0.0947655820 -0.0681038670 -1 -1
-0.0942521340 -0.0669064960 -1 -1
-0.0939987830 -0.0646612840 -1 -1
-0.0940431170 -0.0615681620 -1 -1
-0.0943939170 -0.0578961060 -1 -1
-0.0950262040 -0.0539597440 -1 -1
-0.0958789310 -0.0500944520 -1 -1
-0.0968567240 -0.0466303680 -1 -1
-0.0978389360 -0.0438644910 -1 -1
-0.0986966660 -0.0420316510 -1 -1
-0.0993127260 -0.0412785000 -1 -1
-0.0995992930 -0.0416459570 -1 -1
-0.0995115000 -0.0430637310 -1 -1
-0.0990550760 -0.0453576660 -1 -1
-0.0982840520 -0.0482683070 -1 -1
-0.0972878320 -0.0514779840 -1 -1
-0.0961730190 -0.0546438590 -1 -1
-0.0950462430 -0.0574341390 -1 -1
-0.0940011930 -0.0595626350 -1 -1
-0.0931106310 -0.0608163800 -1 -1
-0.0924229770 -0.0610746830 -1 -1
-0.0919633380 -0.0603202240 -1 -1
-0.0917382500 -0.0586407280 -1 -1
-0.0917405450 -0.0562190790 -1 -1
-0.0919507090 -0.0533131000 -1 -1
-0.0923353780 -0.0502287360 -1 -1
-0.0928458500 -0.0472891860 -1 -1
-0.0934184170 -0.0448013420 -1 -1
-0.0939780010 -0.0430227180 -1 -1
-0.0944466440 -0.0421343360 -1 -1
-0.0947560740 -0.0422239750 -1 -1
-0.0948600490 -0.0432802580 -1 -1
-0.0947416620 -0.0451960880 -1 -1
-0.0944137850 -0.0477808800 -1 -1
-0.0939138550 -0.0507816170 -1 -1
-0.0932960190 -0.0539112230 -1 -1
-0.0926245670 -0.0568800770 -1 -1
-0.0919711420 -0.0594249870 -1 -1
-0.0914145560 -0.0613314820 -1 -1
-0.0910395040 -0.0624491590 -1 -1
-0.0909306020 -0.0627025020 -1 -1
-0.0911604020 -0.0620987570 -1 -1
-0.0917740310 -0.0607311550 -1 -1
-0.0927760170 -0.0587735640 -1 -1
-0.0941231420 -0.0564638700 -1 -1
-0.0957248130 -0.0540773900 -1 -1
-0.0974525700 -0.0518952210 -1 -1
-0.0991595080 -0.0501726850 -1 -1
-0.1007062190 -0.0491111090 -1 -1
-0.1019840920 -0.0488361090 -1 -1
-0.1029259870 -0.0493863430 -1 -1
-0.1035024650 -0.0507143140 -1 -1
-0.1037106630 -0.0526966040 -1 -1
-0.1035633230 -0.0551491830 -1 -1
-0.1030820230 -0.0578445560 -1 -1
-0.1022968840 -0.0605297330 -1 -1
-0.1012522210 -0.0629454260 -1 -1
-0.1000137170 -0.0648467290 -1 -1
-0.0986716260 -0.0660251900 -1 -1
-0.0973356380 -0.0663315530 -1 -1
-0.0961199780 -0.0656956440 -1 -1
-0.0951234070 -0.0641376440 -1 -1
-0.0944138830 -0.0617672500 -1 -1
-0.0940250860 -0.0587711700 -1 -1
-0.0939629340 -0.0553917540 -1 -1
-0.0942131190 -0.0519009530 -1 -1
-0.0947427500 -0.0485740450 -1 -1
-0.0954969510 -0.0456656730 -1 -1
-0.0963956500 -0.0433890240 -1 -1
-0.0973351690 -0.0418983190 -1 -1
-0.0981973480 -0.0412752780 -1 -1
-0.0988652160 -0.0415215310 -1 -1
-0.0992398390 -0.0425596300 -1 -1
-0.0992530660 -0.0442433900 -1 -1
-0.0988750110 -0.0463751230 -1 -1
-0.0981179950 -0.0487255950 -1 -1
-0.0970373800 -0.0510534410 -1 -1
-0.0957270070 -0.0531232310 -1 -1
-0.0943079620 -0.0547233840 -1 -1
-0.0929137080 -0.0556845350 -1 -1
-0.0916751370 -0.0558965860 -1 -1
-0.0907057930 -0.0553221360 -1 -1
-0.0900880680 -0.0540049760 -1 -1
-0.0898643440 -0.0520717990 -1 -1
-0.0900353490 -0.0497237450 -1 -1
-0.0905634060 -0.0472156090 -1 -1
-0.0913775920 -0.0448252580 -1 -1
-0.0923805160 -0.0428200380 -1 -1
-0.0934570980 -0.0414271910 -1 -1
-0.0944842170 -0.0408126150 -1 -1
-0.0953399130 -0.0410685020 -1 -1
-0.0959129420 -0.0422077000 -1 -1
-0.0961145590 -0.0441626800 -1 -1
-0.0958921320 -0.0467888220 -1 -1
-0.0952406880 -0.0498731080 -1 -1
-0.0942072410 -0.0531495810 -1 -1
-0.0928851930 -0.0563213440 -1 -1
-0.0914004380 -0.0590874780 -1 -1
-0.0898936660 -0.0611732180 -1 -1
-0.0885037600 -0.0623608990 -1 -1
-0.0873553600 -0.0625168650 -1 -1
-0.0865498730 -0.0616089170 -1 -1
-0.0861568430 -0.0597113490 -1 -1
-0.0862051270 -0.0569973850 -1 -1
-0.0866771580 -0.0537203580 -1 -1
-0.0875095000 -0.0501865120 -1 -1
-0.0886003990 -0.0467236270 -1 -1
-0.0898236870 -0.0436487270 -1 -1
-0.0910471640 -0.0412365420 -1 -1
-0.0921514070 -0.0396914030 -1 -1
-0.0930440720 -0.0391266420 -1 -1
-0.0936670200 -0.0395543650 -1 -1
-0.0939969510 -0.0408862900 -1 -1
-0.0940413380 -0.0429448530 -1 -1
-0.0938308820 -0.0454830340 -1 -1
-0.0934107300 -0.0482111590 -1 -1
-0.0928345720 -0.0508282270 -1 -1
-0.0921647070 -0.0530536500 -1 -1
-0.0914760540 -0.0546546030 -1 -1
-0.0908567930 -0.0554659430 -1 -1
-0.0903987940 -0.0554027910 -1 -1
-0.0901788060 -0.0544672690 -1 -1
-0.0902392940 -0.0527494620 -1 -1
-0.0905772900 -0.0504205900 -1 -1
-0.0911425480 -0.0477165540 -1 -1
-0.0918421420 -0.0449130270 -1 -1
-0.0925496690 -0.0422961260 -1 -1
-0.0931209670 -0.0401329190 -1 -1
-0.0934192750 -0.0386447410 -1 -1
-0.0933450810 -0.0379857220 -1 -1
-0.0928571360 -0.0382285850 -1 -1
-0.0919755080 -0.0393586690 -1 -1
-0.0907705190 -0.0412762830 -1 -1
-0.0893470090 -0.0438080080 -1 -1
-0.0878290610 -0.0467268560 -1 -1
-0.0863453600 -0.0497777090 -1 -1
-0.0850150900 -0.0527022710 -1 -1
-0.0839363670 -0.0552597510 -1 -1
-0.0831799030 -0.0572427780 -1 -1
-0.0827878300 -0.0584899420 -1 -1
-0.0827739150 -0.0588970350 -1 -1
-0.0831225430 -0.0584281900 -1 -1
-0.0837896850 -0.0571252650 -1 -1
-0.0847106510 -0.0551114240 -1 -1
-0.0858129940 -0.0525855160 -1 -1
-0.0870284420 -0.0498071950 -1 -1
-0.0882997930 -0.0470748820 -1 -1
-0.0895815670 -0.0446976980 -1 -1
-0.0908339560 -0.0429615520 -1 -1
-0.0920121990 -0.0420926740 -1 -1
-0.0930576260 -0.0422264210 -1 -1
-0.0938975800 -0.0433892550 -1 -1
-0.0944561610 -0.0454969790 -1 -1
-0.0946700190 -0.0483674060 -1 -1
-0.0945016700 -0.0517433300 -1 -1
-0.0939481520 -0.0553211630 -1 -1
-0.0930460600 -0.0587810690 -1 -1
-0.0918723500 -0.0618153870 -1 -1
-0.0905395020 -0.0641538740 -1 -1
-0.0891849030 -0.0655858490 -1 -1
-0.0879546120 -0.0659786490 -1 -1
-0.0869831160 -0.0652898230 -1 -1
-0.0863739000 -0.0635705820 -1 -1
-0.0861862190 -0.0609605800 -1 -1
-0.0864297610 -0.0576751070 -1 -1
-0.0870655320 -0.0539848130 -1 -1
-0.0880111550 -0.0501886440 -1 -1
-0.0891498930 -0.0465840910 -1 -1
-0.0903426680 -0.0434408290 -1 -1
-0.0914429540 -0.0409807590 -1 -1
-0.0923157240 -0.0393632650 -1 -1
-0.0928590730 -0.0386736700 -1 -1
-0.0930217150 -0.0389141630 -1 -1
-0.0928097130 -0.0399981690 -1 -1
-0.0922823400 -0.0417515840 -1 -1
-0.0915413440 -0.0439257480 -1 -1
-0.0907153790 -0.0462242400 -1 -1
-0.0899377110 -0.0483402100 -1 -1
-0.0893197890 -0.0499971510 -1 -1
-0.0889318750 -0.0509846600 -1 -1
-0.0888011470 -0.0511819110 -1 -1
-0.0889249080 -0.0505660230 -1 -1
-0.0892856230 -0.0492076860 -1 -1
-0.0898569950 -0.0472583180 -1 -1
-0.0906017810 -0.0449319820 -1 -1
-0.0914690950 -0.0424837870 -1 -1
-0.0923964390 -0.0401856820 -1 -1
-0.0933157080 -0.0383013060 -1 -1
-0.0941590180 -0.0370627500 -1 -1
-0.0948609330 -0.0366509840 -1 -1
-0.0953575720 -0.0371788420 -1 -1
-0.0955874380 -0.0386754230 -1 -1
-0.0954981030 -0.0410744830 -1 -1
-0.0950576040 -0.0442122320 -1 -1
-0.0942655150 -0.0478378950 -1 -1
-0.0931578020 -0.0516362700 -1 -1
-0.0918024080 -0.0552599230 -1 -1
-0.0902893110 -0.0583682150 -1 -1
-0.0887220630 -0.0606678180 -1 -1
-0.0872134620 -0.0619469810 -1 -1
-0.0858821020 -0.0620975250 -1 -1
-0.0848445040 -0.0611232980 -1 -1
-0.0842004490 -0.0591367190 -1 -1
-0.0840151410 -0.0563447830 -1 -1
-0.0843050290 -0.0530255610 -1 -1
-0.0850315070 -0.0494975370 -1 -1
-0.0861025720 -0.0460855320 -1 -1
-0.0873812660 -0.0430877440 -1 -1
-0.0887006100 -0.0407486590 -1 -1
-0.0898846140 -0.0392408180 -1 -1
-0.0907727190 -0.0386548400 -1 -1
-0.0912423270 -0.0389950790 -1 -1
-0.0912241210 -0.0401797510 -1 -1
-0.0907082210 -0.0420467690 -1 -1
-0.0897428930 -0.0443668200 -1 -1
-0.0884283570 -0.0468630930 -1 -1
-0.0869063330 -0.0492359120 -1 -1
-0.0853439790 -0.0511913880 -1 -1
-0.0839126270 -0.0524730510 -1 -1
-0.0827655780 -0.0528925260 -1 -1
-0.0820195150 -0.0523531130 -1 -1
-0.0817421840 -0.0508617670 -1 -1
-0.0819485570 -0.0485284460 -1 -1
-0.0826056550 -0.0455547410 -1 -1
-0.0836422590 -0.0422147940 -1 -1
-0.0849589530 -0.0388309280 -1 -1
-0.0864377100 -0.0357447240 -1 -1
-0.0879535090 -0.0332831920 -1 -1
-0.0893877930 -0.0317214290 -1 -1
-0.0906383730 -0.0312475270 -1 -1
-0.0916226870 -0.0319381290 -1 -1
-0.0922790210 -0.0337504270 -1 -1
-0.0925707660 -0.0365304300 -1 -1
-0.0924918800 -0.0400330390 -1 -1
-0.0920680430 -0.0439489890 -1 -1
-0.0913512790 -0.0479350720 -1 -1
-0.0904112400 -0.0516451540 -1 -1
-0.0893280050 -0.0547600870 -1 -1
-0.0881876470 -0.0570151310 -1 -1
-0.0870778360 -0.0582237040 -1 -1
-0.0860810450 -0.0582949950 -1 -1
-0.0852667010 -0.0572422220 -1 -1
-0.0846861300 -0.0551805440 -1 -1
-0.0843715820 -0.0523163130 -1 -1
-0.0843353960 -0.0489294480 -1 -1
-0.0845657500 -0.0453498830 -1 -1
-0.0850222400 -0.0419289420 -1 -1
-0.0856373330 -0.0390070000 -1 -1
-0.0863247210 -0.0368804850 -1 -1
-0.0869913120 -0.0357723760 -1 -1
-0.0875497260 -0.0358093270 -1 -1
-0.0879288330 -0.0370073950 -1 -1
-0.0880808210 -0.0392686030 -1 -1
-0.0879851180 -0.0423898500 -1 -1
-0.0876490730 -0.0460829440 -1 -1
-0.0871045000 -0.0500024910 -1 -1
-0.0864015830 -0.0537786600 -1 -1
-0.0856035530 -0.0570523250 -1 -1
-0.0847833530 -0.0595098680 -1 -1
-0.0840207640 -0.0609142950 -1 -1
-0.0833977780 -0.0611286490 -1 -1
-0.0829911300 -0.0601285470 -1 -1
-0.0828623330 -0.0580033020 -1 -1
-0.0830456380 -0.0549466750 -1 -1
-0.0835345700 -0.0512387190 -1 -1
-0.0842718810 -0.0472206700 -1 -1
-0.0851519260 -0.0432652210 -1 -1
-0.0860400630 -0.0397437920 -1 -1
-0.0868024760 -0.0369920610 -1 -1
-0.0873340350 -0.0352764440 -1 -1
-0.0875758900 -0.0347658590 -1 -1
-0.0875208560 -0.0355126270 -1 -1
-0.0872077190 -0.0374451120 -1 -1
-0.0867070910 -0.0403740840 -1 -1
-0.0861029060 -0.0440129220 -1 -1
-0.0854746370 -0.0480087230 -1 -1
-0.0848853450 -0.0519791240 -1 -1
-0.0843783930 -0.0555495950 -1 -1
-0.0839809600 -0.0583876640 -1 -1
-0.0837094190 -0.0602328010 -1 -1
-0.0835731900 -0.0609206400 -1 -1
-0.0835771220 -0.0603981900 -1 -1
-0.0837231090 -0.0587267920 -1 -1
-0.0840093860 -0.0560728690 -1 -1
-0.0844263410 -0.0526893790 -1 -1
-0.0849524830 -0.0488908470 -1 -1
-0.0855556820 -0.0450240660 -1 -1
-0.0861996400 -0.0414367070 -1 -1
-0.0868520240 -0.0384454420 -1 -1
-0.0874908120 -0.0363047280 -1 -1
-0.0881044010 -0.0351797570 -1 -1
-0.0886829410 -0.0351292630 -1 -1
-0.0892065320 -0.0361019910 -1 -1
-0.0896397880 -0.0379460580 -1 -1
-0.0899350830 -0.0404272780 -1 -1
-0.0900406700 -0.0432535710 -1 -1
-0.0899120510 -0.0461052930 -1 -1
-0.0895253970 -0.0486706180 -1 -1
-0.0888871390 -0.0506815800 -1 -1
-0.0880339560 -0.0519450390 -1 -1
-0.0870240960 -0.0523635270 -1 -1
-0.0859263750 -0.0519421190 -1 -1
-0.0848121810 -0.0507802120 -1 -1
-0.0837510040 -0.0490512990 -1 -1
-0.0828065480 -0.0469764630 -1 -1
-0.0820307360 -0.0447971680 -1 -1
-0.0814558130 -0.0427512260 -1 -1
-0.0810882910 -0.0410536030 -1 -1
-0.0809091200 -0.0398813220 -1 -1
-0.0808800150 -0.0393605800 -1 -1
-0.0809510170 -0.0395553290 -1 -1
-0.0810652400 -0.0404585790 -1 -1
-0.0811623090 -0.0419888650 -1 -1
-0.0811847550 -0.0439946280 -1 -1
-0.0810876340 -0.0462681170 -1 -1
-0.0808463090 -0.0485677340 -1 -1
-0.0804594230 -0.0506449380 -1 -1
-0.0799501340 -0.0522709950 -1 -1
-0.0793681290 -0.0532602380 -1 -1
-0.0787882940 -0.0534886430 -1 -1
-0.0783009170 -0.0529073100 -1 -1
-0.0779956780 -0.0515494580 -1 -1
-0.0779465410 -0.0495289290 -1 -1
-0.0782007300 -0.0470296080 -1 -1
-0.0787704340 -0.0442871620 -1 -1
-0.0796270200 -0.0415650020 -1 -1
-0.0807000420 -0.0391266950 -1 -1
-0.0818836460 -0.0372081130 -1 -1
-0.0830513620 -0.0359924130 -1 -1
-0.0840767910 -0.0355902190 -1 -1
-0.0848536420 -0.0360281910 -1 -1
-0.0853082590 -0.0372488480 -1 -1
-0.0854027590 -0.0391203110 -1 -1
-0.0851335900 -0.0414509610 -1 -1
-0.0845309130 -0.0440057900 -1 -1
-0.0836578510 -0.0465252590 -1 -1
-0.0826044660 -0.0487476860 -1 -1
-0.0814750720 -0.0504329460 -1 -1
-0.0803736470 -0.0513838840 -1 -1
-0.0793937580 -0.0514637130 -1 -1
-0.0786151470 -0.0506093650 -1 -1
-0.0781033100 -0.0488405010 -1 -1
-0.0779077720 -0.0462631180 -1 -1
-0.0780583780 -0.0430661570 -1 -1
-0.0785606240 -0.0395093020 -1 -1
-0.0793906880 -0.0359011340 -1 -1
-0.0804921350 -0.0325688900 -1 -1
-0.0817778010 -0.0298234120 -1 0
-0.0831387510 -0.0279243840 -1 0
-0.0844583510 -0.0270510420 -1 0
-0.0856263000 -0.0272827520 -1 0
-0.0865480490 -0.0285922780 -1 0
-0.0871497630 -0.0308527450 -1 -1
-0.0873826770 -0.0338572660 -1 -1
-0.0872283060 -0.0373468650 -1 -1
-0.0867011790 -0.0410389540 -1 -1
-0.0858464590 -0.0446501630 -1 -1
-0.0847343350 -0.0479127480 -1 -1
-0.0834538620 -0.0505873780 -1 -1
-0.0821063150 -0.0524748400 -1 -1
-0.0807976870 -0.0534280190 -1 -1
-0.0796307220 -0.0533648980 -1 -1
-0.0786950710 -0.0522821260 -1 -1
-0.0780545050 -0.0502658340 -1 -1
-0.0777358470 -0.0474940400 -1 -1
-0.0777267280 -0.0442262180 -1 -1
-0.0779828150 -0.0407797920 -1 -1
-0.0784387530 -0.0374966180 -1 -1
-0.0790178790 -0.0347042030 -1 -1
-0.0796397130 -0.0326773710 -1 -1
-0.0802262950 -0.0316057050 -1 -1
-0.0807088180 -0.0315709800 -1 -1
-0.0810355100 -0.0325379020 -1 -1
-0.0811793580 -0.0343600090 -1 -1
-0.0811412380 -0.0367996580 -1 -1
-0.0809447670 -0.0395580230 -1 -1
-0.0806253250 -0.0423102050 -1 -1
-0.0802202030 -0.0447411540 -1 -1
-0.0797642410 -0.0465782380 -1 -1
-0.0792899820 -0.0476164820 -1 -1
-0.0788298970 -0.0477349360 -1 -1
-0.0784192320 -0.0469059470 -1 -1
-0.0780971450 -0.0451997220 -1 -1
-0.0779035330 -0.0427838920 -1 -1
-0.0778723200 -0.0399142510 -1 -1
-0.0780244610 -0.0369124950 -1 -1
-0.0783629330 -0.0341310690 -1 -1
-0.0788715620 -0.0319108090 -1 -1
-0.0795186140 -0.0305387520 -1 -1
-0.0802616470 -0.0302118030 -1 -1
-0.0810488070 -0.0310109640 -1 -1
-0.0818178280 -0.0328906060 -1 -1
-0.0824984270 -0.0356844690 -1 -1
-0.0830215280 -0.0391259260 -1 -1
-0.0833345850 -0.0428784490 -1 -1
-0.0834171240 -0.0465725970 -1 -1
-0.0832860840 -0.0498454480 -1 -1
-0.0829853580 -0.0523773820 -1 -1
-0.0825672290 -0.0539217630 -1 -1
-0.0820787740 -0.0543255670 -1 -1
-0.0815583180 -0.0535409230 -1 -1
-0.0810391120 -0.0516277750 -1 -1
-0.0805554690 -0.0487477660 -1 -1
-0.0801454430 -0.0451501000 -1 -1
