-0.0180280580 0.0093068350 0 0
-0.0176906140 0.0075600520 0 0
-0.0170521580 0.0050860610 0 0
-0.0161734920 0.0020897370 0 0
-0.0151317600 -0.0011840580 0 0
-0.0140093490 -0.0044678240 0 0
-0.0128850910 -0.0074912920 0 0
-0.0118293380 -0.0100042070 0 0
-0.0109024580 -0.0118006660 0 0
-0.0101551690 -0.0127411390 0 0
-0.0096275910 -0.0127671580 0 0
-0.0093446970 -0.0119064610 0 0
-0.0093104340 -0.0102702370 0 0
-0.0095056940 -0.0080442780 0 0
-0.0098905130 -0.0054737870 0 0
-0.0104055820 -0.0028407420 0 0
-0.0109718360 -0.0004342030 0 0
-0.0114934180 0.0014832940 0 0
-0.0118680210 0.0027081840 0 0
-0.0120025990 0.0031217210 0 0
-0.0118297970 0.0027039970 0 0
-0.0113212600 0.0015326720 0 0
-0.0104954340 -0.0002324200 0 0
-0.0094186930 -0.0023735510 0 0
-0.0081990860 -0.0046427390 0 0
-0.0069725890 -0.0067890520 0 0
-0.0058836330 -0.0085836540 0 0
-0.0050635750 -0.0098419460 0 0
-0.0046121100 -0.0104414230 0 0
-0.0045864140 -0.0103319470 0 0
-0.0049990290 -0.0095359750 0 0
-0.0058211450 -0.0081408150 0 0
-0.0069881700 -0.0062875180 0 0
-0.0084073880 -0.0041586540 0 0
-0.0099682740 -0.0019638340 0 0
-0.0115544880 0.0000782495 0 0
-0.0130560770 0.0017600130 0 0
-0.0143807210 0.0029045500 0 0
-0.0154617900 0.0033823220 0 0
-0.0162604400 0.0031237640 0 0
-0.0167616350 0.0021270510 0 0
-0.0169677970 0.0004606250 0 0
-0.0168948650 -0.0017397900 0 0
-0.0165726940 -0.0042811230 0 0
-0.0160472060 -0.0069322770 0 0
-0.0153801390 -0.0094519400 0 0
-0.0146448120 -0.0116179030 0 0
-0.0139193130 -0.0132499780 0 0
-0.0132790920 -0.0142238410 0 0
-0.0127907460 -0.0144776770 0 0
-0.0125084880 -0.0140137090 0 0
-0.0124727450 -0.0128955850 0 0
-0.0127079930 -0.0112422580 0 0
-0.0132172930 -0.0092186230 0 0
-0.0139750880 -0.0070224490 0 0
-0.0149239670 -0.0048674590 0 0
-0.0159793100 -0.0029633260 0 0
-0.0170410180 -0.0014942120 0 0
-0.0180096480 -0.0005987000 0 0
-0.0188020030 -0.0003550660 0 0
-0.0193596590 -0.0007751020 0 0
-0.0196485090 -0.0018069740 0 0
-0.0196529440 -0.0033446300 0 0
-0.0193691220 -0.0052400870 0 0
-0.0188011380 -0.0073159200 0 0
-0.0179627840 -0.0093774520 0 0
-0.0168845250 -0.0112257610 0 0
-0.0156219270 -0.0126727470 0 0
-0.0142598710 -0.0135582470 0 0
-0.0129077300 -0.0137677340 0 0
-0.0116844660 -0.0132477420 0 0
-0.0106977500 -0.0120149460 0 0
-0.0100242980 -0.0101557850 0 0
-0.0096979730 -0.0078172790 0 0
-0.0097091480 -0.0051925490 0 0
-0.0100142350 -0.0025037520 0 0
-0.0105497140 0.0000167642 0 0
-0.0112438120 0.0021464760 0 0
-0.0120227980 0.0036927180 0 0
-0.0128140440 0.0045117140 0 0
-0.0135492990 0.0045252830 0 0
-0.0141680370 0.0037331710 0 0
-0.0146187010 0.0022184070 0 0
-0.0148590740 0.0001431200 0 0
-0.0148604370 -0.0022661010 0 0
-0.0146170900 -0.0047414800 0 0
-0.0141559020 -0.0070031150 0 0
-0.0135382520 -0.0087909980 0 0
-0.0128521960 -0.0098960890 0 0
-0.0121988780 -0.0101852430 0 0
-0.0116778770 -0.0096161980 0 0
-0.0113740520 -0.0082417580 0 0
-0.0113473510 -0.0062040500 0 0
-0.0116261860 -0.0037197030 0 0
-0.0122043870 -0.0010566170 0 0
-0.0130423770 0.0014961730 0 0
-0.0140735570 0.0036619710 0 0
-0.0152147230 0.0052079800 0 0
-0.0163768270 0.0059699250 0 0
-0.0174724320 0.0058664780 0 0
-0.0184186580 0.0049021980 0 0
-0.0191383550 0.0031604740 0 0
-0.0195648870 0.0007907190 0 0
-0.0196534200 -0.0020062530 0 0
-0.0193949530 -0.0049936150 0 0
-0.0188247630 -0.0079155710 0 0
-0.0180195080 -0.0105168030 0 0
-0.0170842410 -0.0125643430 0 0
-0.0161350720 -0.0138705490 0 0
-0.0152836890 -0.0143138190 0 0
-0.0146272710 -0.0138529020 0 0
-0.0142417470 -0.0125323750 0 0
-0.0141736080 -0.0104798260 0 0
-0.0144304240 -0.0078960260 0 0
-0.0149763200 -0.0050379140 0 0
-0.0157370900 -0.0021937090 0 0
-0.0166136460 0.0003484640 0 0
-0.0174990370 0.0023341960 0 0
-0.0182942020 0.0035728080 0 0
-0.0189193930 0.0039580460 0 0
-0.0193212260 0.0034760200 0 0
-0.0194765860 0.0022008190 0 0
-0.0193930230 0.0002812630 0 0
-0.0191042420 -0.0020773940 0 0
-0.0186602600 -0.0046345570 0 0
-0.0181146520 -0.0071373100 0 0
-0.0175155640 -0.0093439380 0 0
-0.0169067210 -0.0110457550 0 0
-0.0163363950 -0.0120856730 0 0
-0.0158646770 -0.0123731060 0 0
-0.0155611460 -0.0118941750 0 0
-0.0154935720 -0.0107148120 0 0
-0.0157142140 -0.0089748570 0 0
-0.0162492340 -0.0068734310 0 0
-0.0170928660 -0.0046474920 0 0
-0.0182056770 -0.0025460110 0 0
-0.0195163300 -0.0008025390 0 0
-0.0209271630 0.0003905590 0 0
-0.0223232960 0.0009026860 0 0
-0.0235842580 0.0006771330 0 0
-0.0245985690 -0.0002671330 0 0
-0.0252802070 -0.0018427810 0 0
-0.0255813510 -0.0039066320 0 0
-0.0254960920 -0.0062741550 0 0
-0.0250553360 -0.0087355570 0 0
-0.0243167400 -0.0110751440 0 0
-0.0233540780 -0.0130942910 0 0
-0.0222497780 -0.0146340080 0 0
-0.0210915210 -0.0155904460 0 0
-0.0199689110 -0.0159194110 0 0
-0.0189651790 -0.0156314580 0 0
-0.0181450220 -0.0147826890 0 0
-0.0175449360 -0.0134661550 0 0
-0.0171697740 -0.0118061790 0 0
-0.0169944940 -0.0099546300 0 0
-0.0169696380 -0.0080857470 0 0
-0.0170303990 -0.0063859970 0 0
-0.0171082370 -0.0050377560 0 0
-0.0171423700 -0.0041987110 0 0
-0.0170884570 -0.0039812850 0 0
-0.0169230570 -0.0044363450 0 0
-0.0166433780 -0.0055429220 0 0
-0.0162626440 -0.0072040540 0 0
-0.0158028460 -0.0092498450 0 0
-0.0152883800 -0.0114494020 0 0
-0.0147433660 -0.0135321520 0 0
-0.0141919550 -0.0152174210 0 0
-0.0136590200 -0.0162488930 0 0
-0.0131706870 -0.0164284090 0 0
-0.0127562900 -0.0156425130 0 0
-0.0124514130 -0.0138768220 0 0
-0.0122983180 -0.0112177750 0 0
-0.0123400230 -0.0078445540 0 0
-0.0126084530 -0.0040130980 0 0
-0.0131123300 -0.0000325767 0 0
-0.0138309250 0.0037646310 0 0
-0.0147140590 0.0070566080 0 0
-0.0156854520 0.0095650190 0 0
-0.0166497070 0.0110832340 0 0
-0.0175045030 0.0114964880 0 0
-0.0181559590 0.0107930260 0 0
-0.0185332150 0.0090651750 0 0
-0.0185993250 0.0064991780 0 0
-0.0183560490 0.0033548240 0 0
-0.0178417190 -0.0000617011 0 0
-0.0171240860 -0.0034286440 0 0
-0.0162902870 -0.0064407260 0 0
-0.0154356180 -0.0088387730 0 0
-0.0146535990 -0.0104328090 0 0
-0.0140285670 -0.0111162110 0 0
-0.0136294360 -0.0108709670 0 0
-0.0135037810 -0.0097655340 0 0
-0.0136730980 -0.0079470690 0 0
-0.0141295170 -0.0056292660 0 0
-0.0148340220 -0.0030761620 0 0
-0.0157180610 -0.0005816300 0 0
-0.0166910460 0.0015555960 0 0
-0.0176538560 0.0030612650 0 0
-0.0185153580 0.0037181630 0 0
-0.0192061200 0.0033971970 0 0
-0.0196831350 0.0020790990 0 0
-0.0199248120 -0.0001399270 0 0
-0.0199228430 -0.0030601050 0 0
-0.0196780400 -0.0064038970 0 0
-0.0192017480 -0.0098495090 0 0
-0.0185208160 -0.0130661860 0 0
-0.0176831550 -0.0157471870 0 0
-0.0167599090 -0.0176381440 0 0
-0.0158411960 -0.0185596530 0 0
-0.0150265950 -0.0184233940 0 0
-0.0144137120 -0.0172403710 0 0
-0.0140855890 -0.0151192660 0 0
-0.0140963690 -0.0122545670 0 0
-0.0144583180 -0.0089067000 0 0
-0.0151359790 -0.0053768360 0 0
-0.0160508900 -0.0019780600 0 0
-0.0170960610 0.0009955780 0 0
-0.0181559810 0.0032991910 0 0
-0.0191260070 0.0047620970 0 0
-0.0199263710 0.0053033070 0 0
-0.0205096600 0.0049346990 0 0
-0.0208628290 0.0037527350 0 0
-0.0210042680 0.0019223620 0 0
-0.0209758370 -0.0003432800 0 0
-0.0208320050 -0.0028049490 0 0
-0.0206301360 -0.0052195570 0 0
-0.0204234700 -0.0073611280 0 0
-0.0202560340 -0.0090391960 0 0
-0.0201606580 -0.0101132530 0 0
-0.0201618550 -0.0105016490 0 0
-0.0202815190 -0.0101849180 0 0
-0.0205425280 -0.0092067680 0 0
-0.0209665110 -0.0076762500 0 0
-0.0215657980 -0.0057694070 0 0
-0.0223335050 -0.0037234520 0 0
-0.0232372930 -0.0018167440 0 0
-0.0242197800 -0.0003335840 0 0
-0.0252045100 0.0004795050 0 0
-0.0261051090 0.0004545690 0 0
-0.0268366990 -0.0004707660 0 0
-0.0273293310 -0.0022458320 0 0
-0.0275411180 -0.0047181390 0 0
-0.0274656490 -0.0076577450 0 0
-0.0271299460 -0.0107886590 0 0
-0.0265854330 -0.0138220960 0 0
-0.0258975260 -0.0164870440 0 0
-0.0251369130 -0.0185551770 0 0
-0.0243726320 -0.0198597530 0 0
-0.0236662500 -0.0203088770 0 0
-0.0230669100 -0.0198920520 0 0
-0.0226079770 -0.0186780860 0 0
-0.0223056490 -0.0168044970 0 0
-0.0221585410 -0.0144609780 0 0
-0.0221477400 -0.0118695100 0 0
-0.0222389770 -0.0092632650 0 0
-0.0223882640 -0.0068669340 0 0
-0.0225489360 -0.0048805140 0 0
-0.0226754510 -0.0034660380 0 0
-0.0227223520 -0.0027349250 0 0
-0.0226431100 -0.0027349300 0 0
-0.0223942750 -0.0034396870 0 0
-0.0219430370 -0.0047465110 0 0
-0.0212722280 -0.0064857310 0 0
-0.0203828520 -0.0084396560 0 0
-0.0192987860 -0.0103669860 0 0
-0.0180724700 -0.0120298160 0 0
-0.0167850040 -0.0132207440 0 0
-0.0155378830 -0.0137855650 0 0
-0.0144391390 -0.0136373270 0 0
-0.0135878150 -0.0127614530 0 0
-0.0130599850 -0.0112147290 0 0
-0.0128984490 -0.0091207100 0 0
-0.0131066940 -0.0066615330 0 0
-0.0136468650 -0.0040637580 0 0
-0.0144421550 -0.0015771560 0 0
-0.0153850600 0.0005502130 0 0
-0.0163516430 0.0020951320 0 0
-0.0172181960 0.0028785260 0 0
-0.0178754060 0.0027826830 0 0
-0.0182378270 0.0017667490 0 0
-0.0182492580 -0.0001222720 0 0
-0.0178855080 -0.0027461060 0 0
-0.0171563990 -0.0058818700 0 0
-0.0161075310 -0.0092407120 0 0
-0.0148196350 -0.0124978910 0 0
-0.0134026550 -0.0153296090 0 0
-0.0119841960 -0.0174491260 0 0
-0.0106944250 -0.0186357220 0 0
-0.0096497460 -0.0187543770 0 0
-0.0089379070 -0.0177666910 0 0
-0.0086086050 -0.0157326560 0 0
-0.0086722520 -0.0128025010 0 0
-0.0091048290 -0.0092001180 0 0
-0.0098542720 -0.0052015990 0 0
-0.0108461150 -0.0011121090 0 0
-0.0119888500 0.0027573050 0 0
-0.0131807680 0.0061133160 0 0
-0.0143195770 0.0087045820 0 0
-0.0153132730 0.0103446020 0 0
-0.0160881910 0.0109297370 0 0
-0.0165919700 0.0104498150 0 0
-0.0167937180 0.0089896960 0 0
-0.0166855490 0.0067208160 0 0
-0.0162866050 0.0038832650 0 0
-0.0156461950 0.0007613000 0 0
-0.0148417800 -0.0023436980 0 0
-0.0139702230 -0.0051400720 0 0
-0.0131341550 -0.0073718450 0 0
-0.0124276350 -0.0088423950 0 0
-0.0119255670 -0.0094319940 0 0
-0.0116783580 -0.0091062220 0 0
-0.0117102920 -0.0079165040 0 0
-0.0120207920 -0.0059960890 0 0
-0.0125892130 -0.0035518050 0 0
-0.0133817430 -0.0008488100 0 0
-0.0143559220 0.0018133850 0 0
-0.0154594090 0.0041317140 0 0
-0.0166252300 0.0058329240 0 0
-0.0177704590 0.0067050630 0 0
-0.0188040630 0.0066230910 0 0
-0.0196420280 0.0055645310 0 0
-0.0202210440 0.0036113040 0 0
-0.0205046360 0.0009364370 0 0
-0.0204839460 -0.0022208800 0 0
-0.0201777240 -0.0055849830 0 0
-0.0196313500 -0.0088718290 0 0
-0.0189118320 -0.0118125350 0 0
-0.0180984810 -0.0141724300 0 0
-0.0172726320 -0.0157672170 0 0
-0.0165100840 -0.0164773860 0 0
-0.0158765950 -0.0162601610 0 0
-0.0154239460 -0.0151565900 0 0
-0.0151860290 -0.0132910100 0 0
-0.0151769470 -0.0108611740 0 0
-0.0153913500 -0.0081194790 0 0
-0.0158061400 -0.0053475180 0 0
-0.0163845130 -0.0028267190 0 0
-0.0170824860 -0.0008083750 0 0
-0.0178548810 0.0005126370 0 0
-0.0186575980 0.0010163060 0 0
-0.0194456580 0.0006661420 0 0
-0.0201696970 -0.0004907630 0 0
-0.0207759430 -0.0023297390 0 0
-0.0212128560 -0.0046595310 0 0
-0.0214418630 -0.0072392420 0 0
-0.0214471000 -0.0098011910 0 0
-0.0212420140 -0.0120769150 0 0
-0.0208723880 -0.0138231110 0 0
-0.0204128580 -0.0148456560 0 0
-0.0199542570 -0.0150195070 0 0
-0.0195844590 -0.0143015740 0 0
-0.0193697410 -0.0127348560 0 0
-0.0193436550 -0.0104434980 0 0
-0.0195064760 -0.0076195320 0 0
-0.0198322840 -0.0045041830 0 0
-0.0202778870 -0.0013680150 0 0
-0.0207903990 0.0015079260 0 0
-0.0213131800 0.0038520660 0 0
-0.0217898180 0.0054266340 0 0
-0.0221661270 0.0060562180 0 0
-0.0223923850 0.0056554670 0 0
-0.0224282430 0.0042483950 0 0
-0.0222491080 0.0019728680 0 0
-0.0218502970 -0.0009329440 0 0
-0.0212472160 -0.0041608240 0 0
-0.0204735430 -0.0073732080 0 0
-0.0195795010 -0.0102456450 0 0
-0.0186290780 -0.0125037070 0 0
-0.0176944220 -0.0139500310 0 0
-0.0168479420 -0.0144794490 0 0
-0.0161538010 -0.0140823410 0 0
-0.0156605690 -0.0128383980 0 0
-0.0153963790 -0.0109031600 0 0
-0.0153662750 -0.0084887500 0 0
-0.0155509000 -0.0058408010 0 0
-0.0159066140 -0.0032149900 0 0
-0.0163676080 -0.0008561730 0 0
-0.0168508340 0.0010195370 0 0
-0.0172640150 0.0022412880 0 0
-0.0175164420 0.0026993700 0 0
-0.0175323180 0.0023585430 0 0
-0.0172646420 0.0012651960 0 0
-0.0167052030 -0.0004548420 0 0
-0.0158869620 -0.0026088070 0 0
-0.0148779710 -0.0049578250 0 0
-0.0137690740 -0.0072424650 0 0
-0.0126599470 -0.0092097800 0 0
-0.0116479520 -0.0106392040 0 0
-0.0108213370 -0.0113647720 0 0
-0.0102552140 -0.0112915830 0 0
-0.0100084010 -0.0104050140 0 0
-0.0101206040 -0.0087716610 0 0
-0.0106098100 -0.0065321400 0 0
-0.0114693780 -0.0038879890 0 0
-0.0126645270 -0.0010855230 0 0
-0.0141293980 0.0016025410 0 0
-0.0157675840 0.0038989060 0 0
-0.0174585670 0.0055474240 0 0
-0.0190692740 0.0063407680 0 0
-0.0204679450 0.0061468210 0 0
-0.0215388390 0.0049297700 0 0
-0.0221974390 0.0027611970 0 0
-0.0224037370 -0.0001824430 0 0
-0.0221687170 -0.0036369140 0 0
-0.0215507680 -0.0072797650 0 0
-0.0206433530 -0.0107673290 0 0
-0.0195579810 -0.0137727440 0 0
-0.0184064750 -0.0160196160 0 0
-0.0172859700 -0.0173080480 0 0
-0.0162699280 -0.0175314030 0 0
-0.0154073570 -0.0166830080 0 0
-0.0147287240 -0.0148530060 0 0
-0.0142533510 -0.0122171570 0 0
-0.0139935330 -0.0090202850 0 0
-0.0139538710 -0.0055558030 0 0
-0.0141268320 -0.0021416010 0 0
-0.0144877330 0.0009066480 0 0
-0.0149927630 0.0033025910 0 0
-0.0155814260 0.0048147930 0 0
-0.0161831210 0.0052895100 0 0
-0.0167271520 0.0046684950 0 0
-0.0171535650 0.0029986050 0 0
-0.0174207200 0.0004307090 0 0
-0.0175083450 -0.0027926850 0 0
-0.0174185340 -0.0063604450 0 0
-0.0171765350 -0.0099248700 0 0
-0.0168298610 -0.0131390210 0 0
-0.0164436930 -0.0156934340 0 0
-0.0160932270 -0.0173466590 0 0
-0.0158550690 -0.0179464610 0 0
-0.0157988140 -0.0174413220 0 0
-0.0159788580 -0.0158836240 0 0
-0.0164268340 -0.0134249900 0 0
-0.0171462220 -0.0103024820 0 0
-0.0181105140 -0.0068147980 0 0
-0.0192640280 -0.0032907140 0 0
-0.0205242410 -0.0000548623 0 0
-0.0217879440 0.0026033040 0 0
-0.0229441610 0.0044535550 0 0
-0.0238917050 0.0053416070 0 0
-0.0245549670 0.0052001940 0 0
-0.0248937750 0.0040554820 0 0
-0.0249079560 0.0020283200 0 0
-0.0246382710 -0.0006714910 0 0
-0.0241629360 -0.0037607460 0 0
-0.0235882090 -0.0069100560 0 0
-0.0230335030 -0.0097800360 0 0
-0.0226135870 -0.0120595580 0 0
-0.0224212890 -0.0134995800 0 0
-0.0225149080 -0.0139392440 0 0
-0.0229138140 -0.0133228610 0 0
-0.0236017400 -0.0117065070 0 0
-0.0245337360 -0.0092526170 0 0
-0.0256431120 -0.0062112890 0 0
-0.0268464600 -0.0028891700 0 0
-0.0280462860 0.0003890060 0 0
-0.0291335240 0.0033184900 0 0
-0.0299945550 0.0056459310 0 0
-0.0305248360 0.0071918080 -1 0
-0.0306457850 0.0078637250 -1 0
-0.0303185910 0.0076602580 -1 0
-0.0295493150 0.0066653220 0 0
-0.0283838090 0.0050344670 0 0
-0.0268966720 0.0029755760 0 0
-0.0251802960 0.0007268840 0 0
-0.0233366520 -0.0014646590 0 0
-0.0214711560 -0.0033631730 0 0
-0.0196873510 -0.0047630060 0 0
-0.0180810710 -0.0055083990 0 0
-0.0167329230 -0.0055115620 0 0
-0.0157000180 -0.0047648340 0 0
-0.0150108330 -0.0033436370 0 0
-0.0146665360 -0.0013993410 0 0
-0.0146474250 0.0008571820 0 0
-0.0149195130 0.0031795850 0 0
-0.0154376340 0.0053142670 0 0
-0.0161447020 0.0070279110 0 0
-0.0169694000 0.0081305060 0 0
-0.0178262700 0.0084921660 0 0
-0.0186210790 0.0080524970 0 0
-0.0192613160 0.0068212460 0 0
-0.0196695210 0.0048710070 0 0
-0.0197964010 0.0023257210 0 0
-0.0196307630 -0.0006508530 0 0
-0.0192030900 -0.0038655720 0 0
-0.0185802910 -0.0071070710 0 0
-0.0178526700 -0.0101591990 0 0
-0.0171185380 -0.0128159060 0 0
-0.0164727590 -0.0148954470 0 0
-0.0160012400 -0.0162533550 0 0
-0.0157774530 -0.0167952150 0 0
-0.0158561190 -0.0164886960 0 0
-0.0162642160 -0.0153719340 0 0
-0.0169930550 -0.0135554280 0 0
-0.0179943720 -0.0112157320 0 0
-0.0191818050 -0.0085803380 0 0
-0.0204382780 -0.0059048570 0 0
-0.0216293880 -0.0034452500 0 0
-0.0226223850 -0.0014289820 0 0
-0.0233078610 -0.0000295537 0 0
-0.0236176140 0.0006518960 0 0
-0.0235331220 0.0005963590 0 0
-0.0230841440 -0.0001320310 0 0
-0.0223393330 -0.0013940430 0 0
-0.0213904410 -0.0029923030 0 0
-0.0203336170 -0.0046947950 0 0
-0.0192539770 -0.0062609920 0 0
-0.0182183860 -0.0074672230 0 0
-0.0172760210 -0.0081291590 0 0
-0.0164616400 -0.0081204380 0 0
-0.0157973900 -0.0073868850 0 0
-0.0152926640 -0.0059552910 0 0
-0.0149429430 -0.0039349090 0 0
-0.0147291340 -0.0015096870 0 0
-0.0146197260 0.0010789590 0 0
-0.0145767670 0.0035563670 0 0
-0.0145635350 0.0056423980 0 0
-0.0145505780 0.0070802710 0 0
-0.0145181980 0.0076644520 0 0
-0.0144548320 0.0072648330 0 0
-0.0143518830 0.0058436870 0 0
-0.0141976950 0.0034619710 0 0
-0.0139751170 0.0002732480 0 0
-0.0136663120 -0.0034935480 0 0
-0.0132636320 -0.0075592030 0 0
-0.0127790580 -0.0116228770 0 0
-0.0122449240 -0.0153898050 0 0
-0.0117067140 -0.0185946140 0 0
-0.0112147090 -0.0210187890 0 0
-0.0108188370 -0.0225030050 0 0
-0.0105654640 -0.0229570380 0 0
-0.0104935860 -0.0223691670 0 0
-0.0106302380 -0.0208131700 0 0
-0.0109855350 -0.0184484310 0 0
-0.0115473990 -0.0155097510 0 0
-0.0122779480 -0.0122865230 0 0
-0.0131146410 -0.0090935100 0 0
-0.0139766970 -0.0062366800 0 0
-0.0147747340 -0.0039780480 0 0
-0.0154213430 -0.0025043250 0 0
-0.0158406850 -0.0019049640 0 0
-0.0159764780 -0.0021646310 0 0
-0.0157988610 -0.0031717200 0 0
-0.0153091290 -0.0047393880 0 0
-0.0145399670 -0.0066322890 0 0
-0.0135509770 -0.0085935030 0 0
-0.0124224370 -0.0103698080 0 0
-0.0112494800 -0.0117351830 0 0
-0.0101349860 -0.0125115290 0 0
-0.0091788500 -0.0125849490 0 0
-0.0084654230 -0.0119159940 0 0
-0.0080538770 -0.0105425110 0 0
-0.0079743150 -0.0085751510 0 0
-0.0082284630 -0.0061869860 0 0
-0.0087922180 -0.0035977660 0 0
-0.0096185970 -0.0010531470 0 0
-0.0106404980 0.0011986970 0 0
-0.0117721170 0.0029300780 0 0
-0.0129095550 0.0039555690 0 0
-0.0139350050 0.0041524680 0 0
-0.0147290010 0.0034780330 0 0
-0.0151894870 0.0019795940 0 0
-0.0152514720 -0.0002062060 0 0
-0.0149010320 -0.0028665380 0 0
-0.0141801770 -0.0057364680 0 0
-0.0131814300 -0.0085305370 0 0
-0.0120328580 -0.0109769020 0 0
-0.0108768880 -0.0128482160 0 0
-0.0098483360 -0.0139841100 0 0
-0.0090567230 -0.0143029950 0 0
-0.0085763620 -0.0138043050 0 0
-0.0084448020 -0.0125638380 0 0
-0.0086661240 -0.0107240080 0 0
-0.0092140840 -0.0084793750 0 0
-0.0100334910 -0.0060577780 0 0
-0.0110424290 -0.0036982920 0 0
-0.0121383530 -0.0016280920 0 0
-0.0132087060 -0.0000405024 0 0
-0.0141440530 0.0009240270 0 0
-0.0148498470 0.0011920760 0 0
-0.0152540040 0.0007637930 0 0
-0.0153116680 -0.0002897240 0 0
-0.0150101300 -0.0018364920 0 0
-0.0143736050 -0.0036981980 0 0
-0.0134643700 -0.0056678360 0 0
-0.0123769300 -0.0075299310 0 0
-0.0112243670 -0.0090815700 0 0
-0.0101198670 -0.0101514430 0 0
-0.0091599290 -0.0106149620 0 0
-0.0084158510 -0.0104048730 0 0
-0.0079347650 -0.0095173390 0 0
-0.0077449320 -0.0080136820 0 0
-0.0078588390 -0.0060177630 0 0
-0.0082709470 -0.0037084140 0 0
-0.0089506670 -0.0013059710 0 0
-0.0098357700 0.0009471830 0 0
-0.0108344380 0.0028112520 0 0
-0.0118393900 0.0040773030 0 0
-0.0127482340 0.0045952160 0 0
-0.0134814290 0.0042941800 0 0
-0.0139939840 0.0031897250 0 0
-0.0142800960 0.0013774740 0 0
-0.0143699510 -0.0009808530 0 0
-0.0143197980 -0.0036739580 0 0
-0.0141992400 -0.0064589450 0 0
-0.0140789070 -0.0090825800 0 0
-0.0140187980 -0.0113066600 0 0
-0.0140576010 -0.0129350530 0 0
-0.0142061750 -0.0138373580 0 0
-0.0144487820 -0.0139634260 0 0
-0.0147524420 -0.0133452820 0 0
-0.0150812350 -0.0120873500 0 0
-0.0154091980 -0.0103491680 0 0
-0.0157249460 -0.0083250590 0 0
-0.0160258750 -0.0062239970 0 0
-0.0163069450 -0.0042513850 0 0
-0.0165528440 -0.0025933090 0 0
-0.0167387790 -0.0014031030 0 0
-0.0168369360 -0.0007897870 0 0
-0.0168220970 -0.0008083780 0 0
-0.0166740850 -0.0014528940 0 0
-0.0163793920 -0.0026533520 0 0
-0.0159341590 -0.0042784800 0 0
-0.0153480920 -0.0061458500 0 0
-0.0146474310 -0.0080394720 0 0
-0.0138751000 -0.0097320600 0 0
-0.0130869460 -0.0110084960 0 0
-0.0123451000 -0.0116888390 0 0
-0.0117113220 -0.0116490910 0 0
-0.0112419680 -0.0108358730 0 0
-0.0109832770 -0.0092720640 0 0
-0.0109655820 -0.0070536710 0 0
-0.0111980160 -0.0043394760 0 0
-0.0116664610 -0.0013349700 0 0
-0.0123351510 0.0017271430 0 0
-0.0131502820 0.0046077000 0 0
-0.0140444590 0.0070817720 0 0
-0.0149418310 0.0089580310 0 0
-0.0157636600 0.0100947920 0 0
-0.0164341120 0.0104107610 0 0
-0.0168867690 0.0098893270 0 0
-0.0170720420 0.0085769000 0 0
-0.0169636470 0.0065776500 0 0
-0.0165614400 0.0040469700 0 0
-0.0158897390 0.0011837230 0 0
-0.0149925880 -0.0017805310 0 0
-0.0139285120 -0.0045966820 0 0
-0.0127663440 -0.0070177200 0 0
-0.0115815150 -0.0088216190 0 0
-0.0104516320 -0.0098348700 0 0
-0.0094518380 -0.0099536880 0 0
-0.0086515570 -0.0091599390 0 0
-0.0081120010 -0.0075279910 0 0
-0.0078812690 -0.0052190700 0 0
-0.0079859040 -0.0024626560 0 0
-0.0084225430 0.0004716580 0 0
-0.0091546130 0.0033057420 0 0
-0.0101164050 0.0057823510 0 0
-0.0112230530 0.0076898250 0 0
-0.0123820070 0.0088810310 0 0
-0.0135024270 0.0092849400 0 0
-0.0145024410 0.0089098060 0 0
-0.0153156010 0.0078389860 0 0
-0.0158969350 0.0062208520 0 0
-0.0162279060 0.0042528370 0 0
-0.0163187150 0.0021603460 0 0
-0.0162064620 0.0001737200 0 0
-0.0159486990 -0.0014934890 0 0
-0.0156127510 -0.0026638850 0 0
-0.0152631770 -0.0032127650 0 0
-0.0149524400 -0.0030802700 0 0
-0.0147187250 -0.0022776980 0 0
-0.0145893070 -0.0008873200 0 0
-0.0145835200 0.0009443820 0 0
-0.0147105300 0.0030198360 0 0
-0.0149627260 0.0051093450 0 0
-0.0153102760 0.0069745150 0 0
-0.0157019230 0.0083938040 0 0
-0.0160735470 0.0091870440 0 0
-0.0163618250 0.0092347470 0 0
-0.0165162040 0.0084890380 0 0
-0.0165026940 0.0069766480 0 0
-0.0163000900 0.0047958350 0 0
-0.0158966850 0.0021078560 0 0
-0.0152942050 -0.0008763560 0 0
-0.0145163790 -0.0039126470 0 0
-0.0136140720 -0.0067422010 0 0
-0.0126629940 -0.0091127200 0 0
-0.0117558170 -0.0108027120 0 0
-0.0109910070 -0.0116470890 0 0
-0.0104588710 -0.0115597580 0 0
-0.0102264970 -0.0105482040 0 0
-0.0103264280 -0.0087163340 0 0
-0.0107537590 -0.0062544600 0 0
-0.0114704370 -0.0034178050 0 0
-0.0124111560 -0.0004965420 0 0
-0.0134874450 0.0022185250 0 0
-0.0145914230 0.0044693220 0 0
-0.0156028230 0.0060576740 0 0
-0.0164013140 0.0068630950 0 0
-0.0168822380 0.0068511340 0 0
-0.0169717760 0.0060741720 0 0
-0.0166389180 0.0046654720 0 0
-0.0159030340 0.0028249910 0 0
-0.0148349540 0.0007963350 0 0
-0.0135497160 -0.0011621560 0 0
-0.0121920850 -0.0028075330 0 0
-0.0109177690 -0.0039400950 0 0
-0.0098734010 -0.0044264590 0 0
-0.0091793340 -0.0042147850 0 0
-0.0089189000 -0.0033392700 0 0
-0.0091341340 -0.0019130320 0 0
-0.0098249490 -0.0001109540 0 0
-0.0109496090 0.0018542530 0 0
-0.0124273090 0.0037588230 0 0
-0.0141446350 0.0053938820 0 0
-0.0159655280 0.0065872800 0 0
-0.0177431040 0.0072186250 0 0
-0.0193336550 0.0072263920 0 0
-0.0206133510 0.0066081100 0 0
-0.0214941560 0.0054153190 0 0
-0.0219328640 0.0037444990 0 0
-0.0219303220 0.0017248940 0 0
-0.0215235500 -0.0004948350 0 0
-0.0207761700 -0.0027582440 0 0
-0.0197704800 -0.0049090290 0 0
-0.0186005720 -0.0067958190 0 0
-0.0173657650 -0.0082765570 0 0
-0.0161653060 -0.0092259470 0 0
-0.0150931640 -0.0095478600 0 0
-0.0142307460 -0.0091907230 0 0
-0.0136386470 -0.0081611360 0 0
-0.0133489220 -0.0065309610 0 0
-0.0133576620 -0.0044348830 0 0
-0.0136203270 -0.0020583960 0 0
-0.0140556340 0.0003804630 0 0
-0.0145604730 0.0026515570 0 0
-0.0150300380 0.0045337360 0 0
-0.0153738350 0.0058368310 0 0
-0.0155235220 0.0064233910 0 0
-0.0154354840 0.0062269690 0 0
-0.0150920080 0.0052634370 0 0
-0.0145016780 0.0036330020 0 0
-0.0136975570 0.0015123650 0 0
-0.0127330710 -0.0008623660 0 0
-0.0116774570 -0.0032210070 0 0
-0.0106117680 -0.0052906520 0 0
-0.0096242970 -0.0068283270 0 0
-0.0088044890 -0.0076487740 0 0
-0.0082353370 -0.0076432400 0 0
-0.0079842030 -0.0067884460 0 0
-0.0080930900 -0.0051462540 0 0
-0.0085713900 -0.0028551660 0 0
-0.0093944260 -0.0001158250 0 0
-0.0105081000 0.0028276400 0 0
-0.0118366110 0.0057095470 0 0
-0.0132899600 0.0082664370 0 0
-0.0147704310 0.0102604570 0 0
-0.0161794630 0.0115011580 0 0
-0.0174261500 0.0118651380 0 0
-0.0184367050 0.0113116710 0 0
-0.0191626260 0.0098910660 0 0
-0.0195848210 0.0077428760 0 0
-0.0197123760 0.0050827700 0 0
-0.0195775060 0.0021795530 0 0
-0.0192292930 -0.0006738380 0 0
-0.0187279740 -0.0031919040 0 0
-0.0181403060 -0.0051285810 0 0
-0.0175350240 -0.0063065280 0 0
-0.0169774380 -0.0066389050 0 0
-0.0165242750 -0.0061393510 0 0
-0.0162202510 -0.0049177930 0 0
-0.0160957090 -0.0031625490 0 0
-0.0161633440 -0.0011122930 0 0
-0.0164134640 0.0009763720 0 0
-0.0168103210 0.0028597360 0 0
-0.0172940920 0.0043318380 0 0
-0.0177901700 0.0052415950 0 0
-0.0182216200 0.0055025130 0 0
-0.0185198930 0.0050959020 0 0
-0.0186326110 0.0040683720 0 0
-0.0185287900 0.0025247820 0 0
-0.0182015160 0.0006179840 0 0
-0.0176685420 -0.0014640850 0 0
-0.0169712580 -0.0035138700 0 0
-0.0161710500 -0.0053217120 0 0
-0.0153417620 -0.0066944120 0 0
-0.0145592050 -0.0074736860 0 0
-0.0138910240 -0.0075526160 0 0
-0.0133897830 -0.0068877310 0 0
-0.0130893960 -0.0055049680 0 0
-0.0130033940 -0.0034989270 0 0
-0.0131241900 -0.0010257880 0 0
-0.0134238040 0.0017088270 0 0
-0.0138571810 0.0044659350 0 0
-0.0143683910 0.0069926640 0 0
-0.0148979740 0.0090448420 0 0
-0.0153887520 0.0104123080 0 0
-0.0157891280 0.0109448010 0 0
-0.0160555400 0.0105730940 0 0
-0.0161563080 0.0093189130 0 0
-0.0160768910 0.0072909540 0 0
-0.0158240710 0.0046700480 0 0
-0.0154262050 0.0016888290 0 0
-0.0149287310 -0.0013907700 0 0
-0.0143863690 -0.0043016790 0 0
-0.0138543320 -0.0067970940 0 0
-0.0133804560 -0.0086747510 0 0
-0.0129999350 -0.0097964900 0 0
-0.0127348450 -0.0100996160 0 0
-0.0125990690 -0.0095976300 0 0
-0.0126049550 -0.0083713880 0 0
-0.0127656110 -0.0065556770 0 0
-0.0130901700 -0.0043261310 0 0
-0.0135750250 -0.0018874040 0 0
-0.0141963830 0.0005401050 0 0
-0.0149087920 0.0027376890 0 0
-0.0156518860 0.0045094790 0 0
-0.0163627970 0.0057043260 0 0
-0.0169873860 0.0062345260 0 0
-0.0174838260 0.0060871910 0 0
-0.0178183560 0.0053255210 0 0
-0.0179608820 0.0040807400 0 0
-0.0178881010 0.0025379700 0 0
-0.0175931520 0.0009181670 0 0
-0.0170941460 -0.0005438990 0 0
-0.0164353520 -0.0016246740 0 0
-0.0156808090 -0.0021360290 0 0
-0.0149045510 -0.0019445730 0 0
-0.0141815200 -0.0009850330 0 0
-0.0135807230 0.0007315600 0 0
-0.0131609220 0.0031153550 0 0
-0.0129679430 0.0060027040 0 0
-0.0130315040 0.0091697060 0 0
-0.0133606460 0.0123535620 0 0
-0.0139392040 0.0152792280 0 0
-0.0147223410 0.0176870930 0 0
-0.0156351390 0.0193571880 0 0
-0.0165773140 0.0201280690 0 0
-0.0174372000 0.0199110880 0 0
-0.0181108020 0.0187001580 0 0
-0.0185181350 0.0165753370 0 0
-0.0186134190 0.0136985360 0 0
-0.0183892280 0.0103008070 0 0
-0.0178740010 0.0066616150 0 0
-0.0171232670 0.0030818190 0 0
-0.0162087270 -0.0001454880 0 0
-0.0152100750 -0.0027612770 0 0
-0.0142103180 -0.0045617410 0 0
-0.0132913280 -0.0054149590 0 0
-0.0125269550 -0.0052736700 0 0
-0.0119749000 -0.0041822180 0 0
-0.0116712410 -0.0022740070 0 0
-0.0116294640 0.0002421140 0 0
-0.0118421250 0.0031031010 0 0
-0.0122831690 0.0060145480 0 0
-0.0129099370 0.0086719000 0 0
-0.0136638840 0.0107816730 0 0
-0.0144711000 0.0120858750 0 0
-0.0152463560 0.0123905250 0 0
-0.0159029710 0.0115953590 0 0
-0.0163664670 0.0097174870 0 0
-0.0165858860 0.0068994530 0 0
-0.0165369340 0.0033958970 0 0
-0.0162177980 -0.0004586270 0 0
-0.0156452610 -0.0042917750 0 0
-0.0148565480 -0.0077363560 0 0
-0.0139137620 -0.0104682580 0 0
-0.0129038140 -0.0122363180 0 0
-0.0119300590 -0.0128830040 0 0
-0.0110970810 -0.0123559140 0 0
-0.0104932280 -0.0107101270 0 0
-0.0101755770 -0.0081013140 0 0
-0.0101607810 -0.0047702790 0 0
-0.0104242160 -0.0010202670 0 0
-0.0109071080 0.0028113630 0 0
-0.0115281570 0.0063847830 0 0
-0.0121961280 0.0093896970 0 0
-0.0128219250 0.0115746140 0 0
-0.0133293320 0.0127703680 0 0
-0.0136628690 0.0129055960 0 0
-0.0137912210 0.0120133800 0 0
-0.0137073160 0.0102286060 0 0
-0.0134286690 0.0077746720 0 0
-0.0129989100 0.0049389160 0 0
-0.0124864700 0.0020398740 0 0
-0.0119767160 -0.0006076460 0 0
-0.0115585440 -0.0027248440 0 0
-0.0113099520 -0.0040966350 0 0
-0.0112872400 -0.0045939720 0 0
-0.0115201170 -0.0041898460 0 0
-0.0120121710 -0.0029672780 0 0
-0.0127432980 -0.0011155020 0 0
-0.0136706340 0.0010898970 0 0
-0.0147294240 0.0033226680 0 0
-0.0158378630 0.0052509000 0 0
-0.0169052100 0.0065821910 0 0
-0.0178393560 0.0071013280 0 0
-0.0185536780 0.0066960570 0 0
-0.0189757280 0.0053685690 0 0
-0.0190566450 0.0032311910 0 0
-0.0187763850 0.0004869070 0 0
-0.0181416010 -0.0026006610 0 0
-0.0171790180 -0.0057403290 0 0
-0.0159319320 -0.0086431500 0 0
-0.0144644170 -0.0110465430 0 0
-0.0128680000 -0.0127328440 0 0
-0.0112607610 -0.0135425060 0 0
-0.0097748600 -0.0133824430 0 0
-0.0085375140 -0.0122305820 0 0
-0.0076531090 -0.0101372670 0 0
-0.0071901790 -0.0072237520 0 0
-0.0071725040 -0.0036780400 0 0
-0.0075741260 0.0002530020 0 0
-0.0083220570 0.0042781750 0 0
-0.0093095680 0.0080854110 0 0
-0.0104160280 0.0113723010 0 0
-0.0115253640 0.0138780760 0 0
-0.0125383530 0.0154113890 0 0
-0.0133784330 0.0158701240 0 0
-0.0139931750 0.0152508270 0 0
-0.0143535530 0.0136471030 0 0
-0.0144517140 0.0112381120 0 0
-0.0142972080 0.0082686490 0 0
-0.0139124970 0.0050224810 0 0
-0.0133304330 0.0017929140 0 0
-0.0125967990 -0.0011439670 0 0
-0.0117759550 -0.0035504630 0 0
-0.0109515490 -0.0052431700 0 0
-0.0102165660 -0.0061045430 0 0
-0.0096564800 -0.0060900130 0 0
-0.0093347110 -0.0052300010 0 0
-0.0092862940 -0.0036265780 0 0
-0.0095182590 -0.0014450200 0 0
-0.0100114530 0.0010997250 0 0
-0.0107216650 0.0037615240 0 0
-0.0115828810 0.0062848930 0 0
-0.0125152630 0.0084274750 0 0
-0.0134363180 0.0099811200 0 0
-0.0142719160 0.0107904780 0 0
-0.0149649990 0.0107682240 0 0
-0.0154808470 0.0099054760 0 0
-0.0158085360 0.0082754930 0 0
-0.0159588360 0.0060298550 0 0
-0.0159585340 0.0033874650 0 0
-0.0158423370 0.0006155900 0 0
-0.0156454070 -0.0019979340 0 0
-0.0153993200 -0.0041784030 0 0
-0.0151319710 -0.0056968740 0 0
-0.0148699290 -0.0063948120 0 0
-0.0146413220 -0.0061977260 0 0
-0.0144779040 -0.0051190030 0 0
-0.0144146950 -0.0032564620 0 0
-0.0144856810 -0.0007824250 0 0
-0.0147165810 0.0020731070 0 0
-0.0151180310 0.0050453660 0 0
-0.0156818920 0.0078613130 0 0
-0.0163809150 0.0102667100 0 0
-0.0171705340 0.0120506100 0 0
-0.0179925350 0.0130645420 0 0
-0.0187817110 0.0132346340 0 0
-0.0194753520 0.0125658540 0 0
-0.0200232520 0.0111387450 0 0
-0.0203955430 0.0090999060 0 0
-0.0205864670 0.0066466630 0 0
-0.0206129420 0.0040063230 0 0
-0.0205085060 0.0014128130 0 0
-0.0203153060 -0.0009147180 0 0
-0.0200778500 -0.0027881540 0 0
-0.0198409790 -0.0040615530 0 0
-0.0196506320 -0.0046392900 0 0
-0.0195529610 -0.0044827150 0 0
-0.0195888560 -0.0036150840 0 0
-0.0197852130 -0.0021233170 0 0
-0.0201479790 -0.0001537640 0 0
-0.0206619370 0.0021003490 0 0
-0.0212963000 0.0044184780 0 0
-0.0220093490 0.0065749800 0 0
-0.0227484370 0.0083602630 0 0
-0.0234492150 0.0095994640 0 0
-0.0240393670 0.0101687930 0 0
-0.0244480380 0.0100088970 0 0
-0.0246179650 0.0091322130 0 0
-0.0245153400 0.0076210410 0 0
-0.0241347710 0.0056166160 0 0
-0.0235005940 0.0033028790 0 0
-0.0226650200 0.0008884590 0 0
-0.0217018730 -0.0014110580 0 0
-0.0206967600 -0.0033895990 0 0
-0.0197361720 -0.0048665780 0 0
-0.0188966110 -0.0057035840 0 0
-0.0182348740 -0.0058206810 0 0
-0.0177823080 -0.0052084740 0 0
-0.0175446090 -0.0039314360 0 0
-0.0175059900 -0.0021204890 0 0
-0.0176355880 0.0000425664 0 0
-0.0178933700 0.0023442360 0 0
-0.0182325880 0.0045596370 0 0
-0.0185988190 0.0064738640 0 0
-0.0189292450 0.0079039240 0 0
-0.0191558830 0.0087187700 0 0
-0.0192141670 0.0088537500 0 0
-0.0190553570 0.0083164290 0 0
-0.0186583380 0.0071836080 0 0
-0.0180362280 0.0055920280 0 0
-0.0172361020 0.0037248060 0 0
-0.0163323700 0.0017943410 0 0
-0.0154151830 0.0000223461 0 0
-0.0145766200 -0.0013821900 0 0
-0.0138983450 -0.0022456110 0 0
-0.0134428760 -0.0024495770 0 0
-0.0132482310 -0.0019446100 0 0
-0.0133256360 -0.0007553760 0 0
-0.0136608550 0.0010215300 0 0
-0.0142186470 0.0032259530 0 0
-0.0149485470 0.0056480920 0 0
-0.0157903830 0.0080479720 0 0
-0.0166782260 0.0101800180 0 0
-0.0175423320 0.0118200520 0 0
-0.0183111260 0.0127901040 0 0
-0.0189164880 0.0129772450 0 0
-0.0193028650 0.0123451780 0 0
-0.0194371490 0.0109389410 0 0
-0.0193155320 0.0088832390 0 0
-0.0189645610 0.0063741210 0 0
-0.0184352400 0.0036624310 0 0
-0.0177923390 0.0010281710 0 0
-0.0171040190 -0.0012512320 0 0
-0.0164357720 -0.0029323960 0 0
-0.0158481380 -0.0038316420 0 0
-0.0153948210 -0.0038424250 0 0
-0.0151191400 -0.0029445930 0 0
-0.0150490480 -0.0012065320 0 0
-0.0151918300 0.0012187180 0 0
-0.0155299770 0.0041039290 0 0
-0.0160207980 0.0071668290 0 0
-0.0166021800 0.0100987100 0 0
-0.0172027770 0.0125997670 0 0
-0.0177516540 0.0144160510 0 0
-0.0181856530 0.0153722570 0 0
-0.0184570480 0.0153941780 0 0
-0.0185415550 0.0145160560 0 0
-0.0184414390 0.0128724030 0 0
-0.0181790730 0.0106781650 0 0
-0.0177840180 0.0082022510 0 0
-0.0172834030 0.0057375990 0 0
-0.0167026520 0.0035692690 0 0
-0.0160735630 0.0019430520 0 0
-0.0154403660 0.0010392070 0 0
-0.0148568080 0.0009559920 0 0
-0.0143746230 0.0017047270 0 0
-0.0140301520 0.0032143010 0 0
-0.0138363240 0.0053412480 0 0
-0.0137823230 0.0078835440 0 0
-0.0138391770 0.0105984060 0 0
-0.0139687090 0.0132239870 0 0
-0.0141329890 0.0155034590 0 0
-0.0143004400 0.0172091890 0 0
-0.0144462030 0.0181645770 0 0
-0.0145489310 0.0182616170 0 0
-0.0145890640 0.0174727090 0 0
-0.0145507910 0.0158551140 0 0
-0.0144253000 0.0135470450 0 0
-0.0142124850 0.0107557390 0 0
-0.0139207540 0.0077385930 0 0
-0.0135656180 0.0047785990 0 0
-0.0131669710 0.0021559960 0 0
-0.0127456380 0.0001187070 0 0
-0.0123217620 -0.0011451700 0 0
-0.0119168060 -0.0015280570 0 0
-0.0115570080 -0.0010121840 0 0
-0.0112737650 0.0003330960 0 0
-0.0110985670 0.0023626240 0 0
-0.0110543900 0.0048722610 0 0
-0.0111473960 0.0076199200 0 0
-0.0113616840 0.0103490480 0 0
-0.0116584850 0.0128108940 0 0
-0.0119807590 0.0147818990 0 0
-0.0122627670 0.0160753880 0 0
-0.0124406860 0.0165501160 0 0
-0.0124590910 0.0161189030 0 0
-0.0122734910 0.0147587990 0 0
-0.0118549600 0.0125220770 0 0
-0.0112002130 0.0095451590 0 0
-0.0103418140 0.0060499110 0 0
-0.0093503160 0.0023313390 0 0
-0.0083260570 -0.0012698130 0 0
-0.0073845340 -0.0044047870 0 0
-0.0066399260 -0.0067575520 0 0
-0.0061894910 -0.0080823550 0 0
-0.0061004480 -0.0082329340 0 0
-0.0064006300 -0.0071788020 0 0
-0.0070750490 -0.0050063570 0 0
-0.0080706360 -0.0019061260 0 0
-0.0093082760 0.0018502330 0 0
-0.0106974670 0.0059387200 0 0
-0.0121480030 0.0100137840 0 0
-0.0135759650 0.0137395200 0 0
-0.0149057990 0.0168211870 0 0
-0.0160719520 0.0190350830 0 0
-0.0170215990 0.0202516870 0 0
-0.0177175050 0.0204468940 0 0
-0.0181393040 0.0196996070 0 0
-0.0182826520 0.0181773730 0 0
-0.0181578300 0.0161134070 0 0
-0.0177898760 0.0137790190 0 0
-0.0172201460 0.0114547290 0 0
-0.0165069470 0.0094015550 0 0
-0.0157229640 0.0078336600 0 0
-0.0149486880 0.0068958220 0 0
-0.0142622070 0.0066503900 0 0
-0.0137266230 0.0070757220 0 0
-0.0133784780 0.0080746780 0 0
-0.0132224480 0.0094904120 0 0
-0.0132351700 0.0111263750 0 0
-0.0133749090 0.0127673740 0 0
-0.0135900980 0.0142000910 0 0
-0.0138234990 0.0152332260 0 0
-0.0140151760 0.0157170960 0 0
-0.0141082360 0.0155603550 0 0
-0.0140561660 0.0147403790 0 0
-0.0138271820 0.0133048030 0 0
-0.0134047070 0.0113637760 0 0
-0.0127883400 0.0090751820 0 0
-0.0119977410 0.0066274340 0 0
-0.0110749430 0.0042238820 0 0
-0.0100802240 0.0020698370 0 0
-0.0090836440 0.0003606070 0 0
-0.0081581280 -0.0007318100 0 0
-0.0073764760 -0.0010744410 0 0
-0.0068096970 -0.0005897150 0 0
-0.0065224690 0.0007311850 0 0
-0.0065643350 0.0028213510 0 0
-0.0069593830 0.0055394450 0 0
-0.0076983540 0.0086800630 0 0
-0.0087357410 0.0119925860 0 0
-0.0099921880 0.0152057870 0 0
-0.0113610180 0.0180542070 0 0
-0.0127181430 0.0203040870 0 0
-0.0139356380 0.0217785400 0 0
-0.0148981690 0.0223799240 0 0
-0.0155199970 0.0221041350 0 0
-0.0157597570 0.0210417040 0 0
-0.0156293120 0.0193645780 0 0
-0.0151924480 0.0173021020 0 0
-0.0145516820 0.0151120430 0 0
-0.0138264060 0.0130517270 0 0
-0.0131298800 0.0113517800 0 0
-0.0125528940 0.0101931260 0 0
-0.0121573570 0.0096886240 0 0
-0.0119773840 0.0098722470 0 0
-0.0120233310 0.0106983990 0 0
-0.0122856480 0.0120513690 0 0
-0.0127377910 0.0137622510 0 0
-0.0133391260 0.0156299130 0 0
-0.0140386500 0.0174428840 0 0
-0.0147792810 0.0189995210 0 0
-0.0155022210 0.0201248180 0 0
-0.0161510470 0.0206837390 0 0
-0.0166752830 0.0205918380 0 0
-0.0170336150 0.0198226960 0 0
-0.0171968910 0.0184098160 0 0
-0.0171502930 0.0164414630 0 0
-0.0168941110 0.0140506530 0 0
-0.0164429320 0.0114040950 0 0
-0.0158238300 0.0086917960 0 0
-0.0150755450 0.0061170290 0 0
-0.0142506440 0.0038853840 0 0
-0.0134190100 0.0021912330 0 0
-0.0126671350 0.0012009030 0 0
-0.0120889660 0.0010334880 0 0
-0.0117695680 0.0017413040 0 0
-0.0117674570 0.0032931200 0 0
-0.0121021220 0.0055647580 0 0
-0.0127500820 0.0083422800 0 0
-0.0136479660 0.0113409920 0 0
-0.0147001030 0.0142389500 0 0
-0.0157910100 0.0167187590 0 0
-0.0168023870 0.0185092660 0 0
-0.0176294230 0.0194202010 0 0
-0.0181905210 0.0193653480 0 0
-0.0184304720 0.0183719030 0 0
-0.0183218910 0.0165759260 0 0
-0.0178674590 0.0142058530 0 0
-0.0171010090 0.0115567760 0 0
-0.0160851610 0.0089576570 0 0
-0.0149047330 0.0067335310 0 0
-0.0136561160 0.0051662570 0 0
-0.0124351030 0.0044594430 0 0
-0.0113277280 0.0047135630 0 0
-0.0104056320 0.0059159030 0 0
-0.0097227560 0.0079473290 0 0
-0.0093106290 0.0106030780 0 0
-0.0091739490 0.0136200070 0 0
-0.0092903100 0.0167032710 0 0
-0.0096152990 0.0195509210 0 0
-0.0100902750 0.0218787530 0 0
-0.0106496350 0.0234467560 0 0
-0.0112269490 0.0240854760 0 0
-0.0117613700 0.0237178160 0 0
-0.0122047350 0.0223701160 0 0
-0.0125268350 0.0201681260 0 0
-0.0127157980 0.0173196230 0 0
-0.0127747950 0.0140901680 0 0
-0.0127197310 0.0107767660 0 0
-0.0125795660 0.0076804150 0 0
-0.0123958910 0.0050781600 0 0
-0.0122190330 0.0031971140 0 0
-0.0121021680 0.0021939380 0 0
-0.0120959710 0.0021428220 0 0
-0.0122443430 0.0030329900 0 0
-0.0125809450 0.0047747110 0 0
-0.0131257750 0.0072115040 0 0
-0.0138798860 0.0101352930 0 0
-0.0148175640 0.0133018110 0 0
-0.0158798060 0.0164459720 0 0
-0.0169762160 0.0192991470 0 0
-0.0179991670 0.0216102740 0 0
-0.0188457340 0.0231698240 0 0
-0.0194384960 0.0238322150 0 0
-0.0197388070 0.0235319220 0 0
-0.0197499600 0.0222909100 0 0
-0.0195108440 0.0202169460 0 0
-0.0190841890 0.0174932000 0 0
-0.0185437150 0.0143599880 0 0
-0.0179617290 0.0110905190 0 0
-0.0173984600 0.0079640440 0 0
-0.0168957340 0.0052403800 0 0
-0.0164756210 0.0031382770 0 0
-0.0161425010 0.0018180060 0 0
-0.0158886460 0.0013675910 0 0
-0.0157035650 0.0017930460 0 0
-0.0155828760 0.0030149370 0 0
-0.0155306930 0.0048743040 0 0
-0.0155550290 0.0071495210 0 0
-0.0156608540 0.0095824810 0 0
-0.0158444660 0.0119094400 0 0
-0.0160895910 0.0138907920 0 0
-0.0163644550 0.0153351800 0 0
-0.0166215910 0.0161157370 0 0
-0.0168042570 0.0161786160 0 0
-0.0168592610 0.0155451700 0 0
-0.0167499430 0.0143087660 0 0
-0.0164636900 0.0126261600 0 0
-0.0160140640 0.0107030010 0 0
-0.0154392780 0.0087734620 0 0
-0.0147963830 0.0070758850 0 0
-0.0141507950 0.0058280080 0 0
-0.0135647350 0.0052049300 0 0
-0.0130897450 0.0053216440 0 0
-0.0127647030 0.0062214530 0 0
-0.0126160080 0.0078704800 0 0
-0.0126571660 0.0101580030 0 0
-0.0128887020 0.0129041150 0 0
-0.0132999560 0.0158770880 0 0
-0.0138718540 0.0188187070 0 0
-0.0145788290 0.0214716090 0 0
-0.0153890110 0.0236042350 0 0
-0.0162625790 0.0250328690 0 0
-0.0171488970 0.0256395200 0 0
-0.0179850270 0.0253821260 0 0
-0.0186991170 0.0242952000 0 0
-0.0192199610 0.0224827370 0 0
-0.0194902960 0.0201063900 0 0
-0.0194793960 0.0173703120 0 0
-0.0191903420 0.0145028840 0 0
-0.0186592740 0.0117363930 0 0
-0.0179477110 0.0092867890 0 0
-0.0171321280 0.0073355010 0 0
-0.0162948250 0.0060145830 0 0
-0.0155176610 0.0053962510 0 0
-0.0148764030 0.0054881970 0 0
-0.0144316310 0.0062349740 0 0
-0.0142167060 0.0075238870 0 0
-0.0142296720 0.0091941380 0 0
-0.0144345490 0.0110495480 0 0
-0.0147703680 0.0128753830 0 0
-0.0151627850 0.0144591810 0 0
-0.0155352510 0.0156151150 0 0
-0.0158185630 0.0162100480 0 0
-0.0159571780 0.0161875880 0 0
-0.0159115150 0.0155846530 0 0
-0.0156585280 0.0145336230 0 0
-0.0151934750 0.0132448420 0 0
-0.0145333970 0.0119709860 0 0
-0.0137204760 0.0109628330 0 0
-0.0128222780 0.0104292700 0 0
-0.0119259210 0.0105108400 0 0
-0.0111263160 0.0112689230 0 0
-0.0105123550 0.0126872900 0 0
-0.0101550030 0.0146814970 0 0
-0.0100982630 0.0171128260 0 0
-0.0103531120 0.0198043650 0 0
-0.0108961070 0.0225571490 0 0
-0.0116739220 0.0251652060 0 0
-0.0126121010 0.0274296070 0 0
-0.0136243070 0.0291714680 0 0
-0.0146194610 0.0302434450 0 1
-0.0155073730 0.0305404300 0 1
-0.0162052230 0.0300105520 0 1
-0.0166458890 0.0286654670 0 0
-0.0167865560 0.0265865880 0 0
-0.0166142510 0.0239233900 0 0
-0.0161451580 0.0208817430 0 0
-0.0154174270 0.0177037310 0 0
-0.0144815000 0.0146430580 0 0
-0.0133946540 0.0119403600 0 0
-0.0122228700 0.0098015650 0 0
-0.0110450910 0.0083812550 0 0
-0.0099518470 0.0077720360 0 0
-0.0090364760 0.0079998980 0 0
-0.0083841640 0.0090243550 0 0
-0.0080632150 0.0107418610 0 0
-0.0081183050 0.0129917620 0 0
-0.0085639950 0.0155648750 0 0
-0.0093787190 0.0182158250 0 0
-0.0105021850 0.0206813310 0 0
-0.0118395390 0.0227055570 0 0
-0.0132721310 0.0240704440 0 0
-0.0146719560 0.0246253330 0 0
-0.0159172330 0.0243085680 0 0
-0.0169065010 0.0231558120 0 0
-0.0175674640 0.0212943990 0 0
-0.0178582820 0.0189266960 0 0
-0.0177636000 0.0163060800 0 0
-0.0172911460 0.0137082200 0 0
-0.0164725220 0.0114004320 0 0
-0.0153656420 0.0096130770 0 0
-0.0140538110 0.0085174980 0 0
-0.0126392170 0.0082132900 0 0
-0.0112318990 0.0087244680 0 0
-0.0099369440 0.0100026680 0 0
-0.0088429450 0.0119355460 0 0
-0.0080134070 0.0143583910 0 0
-0.0074807570 0.0170671780 0 0
-0.0072428030 0.0198328840 0 0
-0.0072630410 0.0224180720 0 0
-0.0074756750 0.0245959860 0 0
-0.0077939520 0.0261707430 0 0
-0.0081201810 0.0269965240 0 0
-0.0083573780 0.0269937020 0 0
-0.0084224210 0.0261596100 0 0
-0.0082577680 0.0245714110 0 0
-0.0078375870 0.0223797110 0 0
-0.0071674260 0.0197938790 0 0
-0.0062801960 0.0170615830 0 0
-0.0052314530 0.0144451080 0 0
-0.0040950890 0.0121964680 0 0
-0.0029579290 0.0105327830 0 0
-0.0019108950 0.0096137860 0 0
-0.0010371080 0.0095243010 0 0
-0.0004006830 0.0102644090 0 0
-0.0000398820 0.0117486600 0 0
0.0000341482 0.0138142660 0 0
-0.0001658390 0.0162374070 0 0
-0.0006081130 0.0187557780 0 0
-0.0012456190 0.0210945180 0 0
-0.0020181800 0.0229931470 0 0
-0.0028556820 0.0242316730 0 0
-0.0036835250 0.0246532520 0 0
-0.0044292780 0.0241800340 0 0
-0.0050288660 0.0228201090 0 0
-0.0054317530 0.0206656350 0 0
-0.0056054750 0.0178839500 0 0
-0.0055389500 0.0147037280 0 0
-0.0052437450 0.0113971700 0 0
-0.0047535800 0.0082582260 0 0
-0.0041224700 0.0055768450 0 0
-0.0034211900 0.0036104140 0 0
-0.0027312660 0.0025554800 0 0
-0.0021354190 0.0025240930 0 0
-0.0017043280 0.0035289110 0 0
-0.0014828150 0.0054800150 0 0
-0.0014809920 0.0081946800 0 0
-0.0016743370 0.0114185430 0 0
-0.0020120900 0.0148541580 0 0
-0.0024295370 0.0181920540 0 0
-0.0028592370 0.0211398360 0 0
-0.0032388910 0.0234464260 0 0
-0.0035156700 0.0249209690 0 0
-0.0036474210 0.0254473050 0 0
-0.0036027290 0.0249944100 0 0
-0.0033636670 0.0236217080 0 0
-0.0029327200 0.0214773610 0 0
-0.0023394550 0.0187879390 0 0
-0.0016409380 0.0158384930 0 0
-0.0009149000 0.0129437090 0 0
-0.0002488590 0.0104136000 0 0
0.0002724990 0.0085187380 0 0
0.0005807030 0.0074598240 0 0
0.0006354370 0.0073458740 0 0
0.0004318490 0.0081845030 0 0
0.0000010843 0.0098849430 0 0
-0.0005967530 0.0122709900 0 0
-0.0012861520 0.0151005510 0 0
-0.0019930010 0.0180899400 0 0
-0.0026596940 0.0209416860 0 0
-0.0032531540 0.0233742620 0 0
-0.0037624520 0.0251507680 0 0
-0.0041869180 0.0261015380 0 0
-0.0045203530 0.0261367180 0 0
-0.0047397830 0.0252496820 0 0
-0.0048048190 0.0235158600 0 0
-0.0046675660 0.0210902190 0 0
-0.0042884810 0.0182016140 0 0
-0.0036527640 0.0151380760 0 0
-0.0027820550 0.0122188670 0 0
-0.0017374380 0.0097560830 0 0
-0.0006130640 0.0080146090 0 0
0.0004768460 0.0071798220 0 0
0.0014138270 0.0073386860 0 0
0.0020911740 0.0084746310 0 0
0.0024286350 0.0104734230 0 0
0.0023841000 0.0131377620 0 0
0.0019604290 0.0162094120 0 0
0.0012070580 0.0193964260 0 0
0.0002158000 0.0224017930 0 0
-0.0008922100 0.0249511720 0 0
-0.0019888170 0.0268192610 0 0
-0.0029613610 0.0278531480 0 0
-0.0037241910 0.0279880350 0 0
-0.0042189870 0.0272514580 0 0
-0.0044126490 0.0257564020 0 0
-0.0042975990 0.0236860230 0 0
-0.0038924620 0.0212722860 0 0
-0.0032403810 0.0187707940 0 0
-0.0024043960 0.0164349480 0 0
-0.0014605500 0.0144920700 0 0
-0.0004902930 0.0131225730 0 0
0.0004265430 0.0124429230 0 0
0.0012183360 0.0124946440 0 0
0.0018283430 0.0132420310 0 0
0.0022212980 0.0145791390 0 0
0.0023889140 0.0163439740 0 0
0.0023523030 0.0183366040 0 0
0.0021596390 0.0203383620 0 0
0.0018789670 0.0221304460 0 0
0.0015875830 0.0235112210 0 0
0.0013604270 0.0243124270 0 0
0.0012596320 0.0244145470 0 0
0.0013260760 0.0237601150 0 0
0.0015739400 0.0223627470 0 0
0.0019900380 0.0203104130 0 0
0.0025382250 0.0177622950 0 0
0.0031667400 0.0149381310 0 0
0.0038155630 0.0120990290 0 0
0.0044220070 0.0095208230 0 0
0.0049241880 0.0074635670 0 0
0.0052633440 0.0061425320 0 0
0.0053870590 0.0057061940 0 0
0.0052546250 0.0062240690 0 0
0.0048428990 0.0076832770 0 0
0.0041504290 0.0099908150 0 0
0.0031991660 0.0129793770 0 0
0.0020332260 0.0164167990 0 0
0.0007144780 0.0200208670 0 0
-0.0006831520 0.0234811050 0 0
-0.0020783660 0.0264876570 0 0
-0.0033861220 0.0287650520 0 0
-0.0045216390 0.0301056870 0 1
-0.0054056580 0.0303960560 0 1
-0.0059708310 0.0296306050 0 0
-0.0061685110 0.0279118470 0 0
-0.0059749390 0.0254376270 0 0
-0.0053962850 0.0224769410 0 0
-0.0044726420 0.0193371810 0 0
-0.0032798480 0.0163283220 0 0
-0.0019261020 0.0137297740 0 0
-0.0005412370 0.0117630450 0 0
0.0007403990 0.0105718490 0 0
0.0017998690 0.0102116850 0 0
0.0025518430 0.0106501260 0 0
0.0029570510 0.0117764260 0 0
0.0030254700 0.0134172340 0 0
0.0028077580 0.0153560810 0 0
0.0023770180 0.0173554340 0 0
0.0018092130 0.0191790180 0 0
0.0011716490 0.0206111760 0 0
0.0005229310 0.0214723390 0 0
-0.0000800540 0.0216327080 0 0
-0.0005766720 0.0210257270 0 0
-0.0009045100 0.0196600440 0 0
-0.0010081830 0.0176265310 0 0
-0.0008505380 0.0150965060 0 0
-0.0004221150 0.0123086140 0 0
0.0002538980 0.0095449030 0 0
0.0011229820 0.0070994180 0 0
0.0021077550 0.0052439560 0 0
0.0031218070 0.0041963760 0 0
0.0040832930 0.0040965560 0 0
0.0049231380 0.0049925720 0 0
0.0055883040 0.0068367940 0 0
0.0060435480 0.0094908930 0 0
0.0062725310 0.0127394180 0 0
0.0062771500 0.0163114300 0 0
0.0060756620 0.0199080360 0 0
0.0057015950 0.0232319530 0 0
0.0052027910 0.0260152680 0 0
0.0046366310 0.0280437220 0 0
0.0040596220 0.0291770180 0 0
0.0035154790 0.0293623210 0 0
0.0030279090 0.0286366270 0 0
0.0026007730 0.0271168030 0 0
0.0022235800 0.0249803170 0 0
0.0018783080 0.0224415320 0 0
0.0015449440 0.0197286310 0 0
0.0012046720 0.0170653330 0 0
0.0008404520 0.0146587620 0 0
0.0004369920 0.0126915860 0 0
-0.0000163504 0.0113152370 0 0
-0.0005190550 0.0106424430 0 0
-0.0010537460 0.0107388020 0 0
-0.0015866840 0.0116136550 0 0
-0.0020754050 0.0132114620 0 0
-0.0024787580 0.0154065990 0 0
-0.0027631190 0.0180057320 0 0
-0.0029028540 0.0207613380 0 0
-0.0028786070 0.0233968470 0 0
-0.0026768820 0.0256398480 0 0
-0.0022905280 0.0272571080 0 0
-0.0017186380 0.0280847160 0 0
-0.0009664880 0.0280481890 0 0
-0.0000472728 0.0271704590 0 0
0.0010138450 0.0255684520 0 0
0.0021749580 0.0234396520 0 0
0.0033749580 0.0210395910 0 0
0.0045356370 0.0186524120 0 0
0.0055687610 0.0165590940 0 0
0.0063874270 0.0150077990 0 0
0.0069195520 0.0141885370 0 0
0.0071192980 0.0142134280 0 0
0.0069727620 0.0151047340 0 0
0.0064971230 0.0167931200 0 0
0.0057355000 0.0191266860 0 0
0.0047512630 0.0218887980 0 0
0.0036232910 0.0248218010 0 0
0.0024402140 0.0276538420 0 0
0.0012922940 0.0301257490 0 1
0.0002628530 0.0320149800 0 1
-0.0005776630 0.0331541460 0 1
-0.0011734310 0.0334430300 0 1
-0.0014826860 0.0328553960 0 1
-0.0014786160 0.0314427540 0 1
-0.0011523900 0.0293345090 0 0
-0.0005158650 0.0267309380 0 0
0.0003966210 0.0238859050 0 0
0.0015263040 0.0210795860 0 0
0.0027893150 0.0185852760 0 0
0.0040807160 0.0166367330 0 0
0.0052847440 0.0154026100 0 0
0.0062898740 0.0149717770 0 0
0.0070052850 0.0153494920 0 0
0.0073740100 0.0164621880 0 0
0.0073794560 0.0181686280 0 0
0.0070459940 0.0202757400 0 0
0.0064361560 0.0225579600 0 0
0.0056446650 0.0247790890 0 0
0.0047880580 0.0267147860 0 0
0.0039912810 0.0281733800 0 0
0.0033751800 0.0290133700 0 0
0.0030465100 0.0291565140 0 0
0.0030874290 0.0285950710 0 0
0.0035420120 0.0273916050 0 0
0.0044043560 0.0256702010 0 0
0.0056158870 0.0235995920 0 0
0.0070732340 0.0213714360 0 0
0.0086420670 0.0191792000 0 0
0.0101732770 0.0172012490 0 0
0.0115208210 0.0155879500 0 0
0.0125603890 0.0144519590 0 0
0.0132048480 0.0138617230 0 0
0.0134111340 0.0138376000 0 0
0.0131789270 0.0143501300 0 0
0.0125471420 0.0153215200 0 0
0.0115903250 0.0166317190 0 0
0.0104102920 0.0181291640 0 0
0.0091210570 0.0196447620 0 0
0.0078327270 0.0210070840 0 0
0.0066412360 0.0220569470 0 0
0.0056255590 0.0226597670 0 0
0.0048488060 0.0227154200 0 0
0.0043574430 0.0221675230 0 0
0.0041751790 0.0210139590 0 0
0.0042938750 0.0193169170 0 0
0.0046675480 0.0172077560 0 0
0.0052146090 0.0148825440 0 0
0.0058298640 0.0125865290 0 0
0.0064026610 0.0105881290 0 0
0.0068334160 0.0091457020 0 0
0.0070432660 0.0084728820 0 0
0.0069780530 0.0087085830 0 0
0.0066103200 0.0098963470 0 0
0.0059407940 0.0119757030 0 0
0.0049982470 0.0147863480 0 0
0.0038365410 0.0180846760 0 0
0.0025296330 0.0215710420 0 0
0.0011658450 0.0249239660 0 0
-0.0001591800 0.0278355690 0 0
-0.0013518560 0.0300436630 0 1
-0.0023309460 0.0313584920 0 1
-0.0030353310 0.0316821860 0 1
-0.0034271520 0.0310179920 0 1
-0.0034913480 0.0294680820 0 0
-0.0032337730 0.0272212710 0 0
-0.0026790870 0.0245323180 0 0
-0.0018691800 0.0216946400 0 0
-0.0008626580 0.0190095540 0 0
0.0002651700 0.0167557480 0 0
0.0014239830 0.0151618240 0 0
0.0025139970 0.0143839050 0 0
0.0034358780 0.0144908290 0 0
0.0041034040 0.0154596840 0 0
0.0044557660 0.0171813270 0 0
0.0044658530 0.0194717160 0 0
0.0041423670 0.0220860660 0 0
0.0035266860 0.0247372520 0 0
0.0026871060 0.0271212830 0 0
0.0017116240 0.0289501890 0 0
0.0006985480 0.0299886700 0 0
-0.0002548290 0.0300871810 0 1
-0.0010635860 0.0292033870 0 0
-0.0016642830 0.0274068430 0 0
-0.0020194100 0.0248664680 0 0
-0.0021158380 0.0218251290 0 0
-0.0019599910 0.0185679860 0 0
-0.0015756440 0.0153903600 0 0
-0.0010064740 0.0125689760 0 0
-0.0003185920 0.0103386750 0 0
0.0004024270 0.0088750850 0 0
0.0010604420 0.0082832560 0 0
0.0015611900 0.0085926190 0 0
0.0018260010 0.0097579420 0 0
0.0018035490 0.0116649420 0 0
0.0014762940 0.0141393560 0 0
0.0008612730 0.0169597590 0 0
0.0000074246 0.0198751760 0 0
-0.0010090610 0.0226268420 0 0
-0.0020919080 0.0249715250 0 0
-0.0031346960 0.0267041040 0 0
-0.0040317840 0.0276778730 0 0
-0.0046885060 0.0278203420 0 0
-0.0050309310 0.0271415170 0 0
-0.0050158680 0.0257322730 0 0
-0.0046395130 0.0237525000 0 0
-0.0039407470 0.0214113670 0 0
-0.0029959950 0.0189441710 0 0
-0.0019071220 0.0165903400 0 0
-0.0007877750 0.0145747810 0 0
0.0002470440 0.0130921000 0 0
0.0010880660 0.0122924280 0 0
0.0016392500 0.0122682490 0 0
0.0018278740 0.0130431720 0 0
0.0016150370 0.0145655260 0 0
0.0010026480 0.0167099320 0 0
0.0000346903 0.0192879040 0 0
-0.0012072160 0.0220657150 0 0
-0.0026131530 0.0247870660 0 0
-0.0040575260 0.0271992260 0 0
-0.0054121460 0.0290811220 0 0
-0.0065586880 0.0302696310 0 1
-0.0074016020 0.0306787750 0 1
-0.0078802990 0.0303079300 0 1
-0.0079766740 0.0292382520 0 0
-0.0077162570 0.0276191560 0 0
-0.0071645350 0.0256483860 0 0
-0.0064195140 0.0235495000 0 0
-0.0055994680 0.0215493120 0 0
-0.0048259340 0.0198561790 0 0
-0.0042058100 0.0186395180 0 0
-0.0038176990 0.0180123050 0 0
-0.0037051480 0.0180201610 0 0
-0.0038762310 0.0186397780 0 0
-0.0043076390 0.0197857550 0 0
-0.0049515600 0.0213222960 0 0
-0.0057439950 0.0230770140 0 0
-0.0066128980 0.0248564780 0 0
-0.0074845190 0.0264636360 0 0
-0.0082871090 0.0277155710 0 0
-0.0089529550 0.0284590710 0 0
-0.0094216740 0.0285831240 0 0
-0.0096469300 0.0280294070 0 0
-0.0096053330 0.0268012130 0 0
-0.0093037180 0.0249690040 0 0
-0.0087809440 0.0226702810 0 0
-0.0081015160 0.0201025040 0 0
-0.0073413250 0.0175082280 0 0
-0.0065711680 0.0151517510 0 0
-0.0058457640 0.0132883650 0 0
-0.0052014080 0.0121306820 0 0
-0.0046602650 0.0118191760 0 0
-0.0042372880 0.0124038110 0 0
-0.0039457270 0.0138403520 0 0
-0.0037988210 0.0160003430 0 0
-0.0038074290 0.0186899720 0 0
-0.0039736740 0.0216723890 0 0
-0.0042817310 0.0246902310 0 0
-0.0046913830 0.0274875200 0 0
-0.0051410870 0.0298309540 0 0
-0.0055596900 0.0315302400 0 1
-0.0058796860 0.0324553570 0 1
-0.0060472020 0.0325477430 0 1
-0.0060284180 0.0318241800 0 1
-0.0058129060 0.0303745790 0 1
-0.0054134040 0.0283546980 0 0
-0.0048620610 0.0259731880 0 0
-0.0042050230 0.0234720690 0 0
-0.0034980130 0.0211014330 0 0
-0.0028043280 0.0190917300 0 0
-0.0021938860 0.0176282380 0 0
-0.0017391950 0.0168319610 0 0
-0.0015057900 0.0167503610 0 0
-0.0015399530 0.0173590870 0 0
-0.0018588130 0.0185723450 0 0
-0.0024457590 0.0202575060 0 0
-0.0032523980 0.0222499480 0 0
-0.0042068400 0.0243662550 0 0
-0.0052248450 0.0264162760 0 0
-0.0062186390 0.0282154440 0 0
-0.0071019260 0.0295980610 0 0
-0.0077943350 0.0304315250 0 1
-0.0082284820 0.0306307990 0 1
-0.0083594200 0.0301707430 0 1
-0.0081740550 0.0290926120 0 0
-0.0076976260 0.0275024450 0 0
-0.0069948680 0.0255618890 0 0
-0.0061648940 0.0234733790 0 0
-0.0053301390 0.0214608340 0 0
-0.0046207820 0.0197460680 0 0
-0.0041572630 0.0185225480 0 0
-0.0040343040 0.0179314740 0 0
-0.0043097380 0.0180459030 0 0
-0.0049996790 0.0188653890 0 0
-0.0060791420 0.0203197540 0 0
-0.0074864550 0.0222784860 0 0
-0.0091307400 0.0245623640 0 0
-0.0109029210 0.0269567520 0 0
-0.0126892940 0.0292286510 0 0
-0.0143828530 0.0311487790 0 1
-0.0158880580 0.0325164640 0 1
-0.0171208950 0.0331824210 0 1
-0.0180098040 0.0330643370 0 1
-0.0185004640 0.0321524330 0 1
-0.0185624630 0.0305058060 0 1
-0.0181933490 0.0282431360 0 0
-0.0174185500 0.0255313760 0 0
-0.0162906620 0.0225738980 0 0
-0.0148905480 0.0195975930 0 0
-0.0133269790 0.0168371180 0 0
-0.0117292820 0.0145146810 0 0
-0.0102314670 0.0128166150 0 0
-0.0089530450 0.0118720510 0 0
-0.0079843100 0.0117396940 0 0
-0.0073787770 0.0124047920 0 0
-0.0071498260 0.0137834390 0 0
-0.0072695470 0.0157301800 0 0
-0.0076719080 0.0180479520 0 0
-0.0082621420 0.0205025760 0 0
-0.0089300910 0.0228438470 0 0
-0.0095628950 0.0248326490 0 0
-0.0100539940 0.0262705190 0 0
-0.0103094060 0.0270253730 0 0
-0.0102553380 0.0270470410 0 0
-0.0098493830 0.0263700280 0 0
-0.0090923760 0.0251055970 0 0
-0.0080350320 0.0234270340 0 0
-0.0067750190 0.0215506600 0 0
-0.0054434980 0.0197135180 0 0
-0.0041834390 0.0181486790 0 0
-0.0031261520 0.0170602830 0 0
-0.0023745070 0.0166014710 0 0
-0.0019967220 0.0168582310 0 0
-0.0020270310 0.0178402850 0 0
-0.0024668630 0.0194784290 0 0
-0.0032841940 0.0216282400 0 0
-0.0044140930 0.0240810530 0 0
-0.0057643100 0.0265819870 0 0
-0.0072255200 0.0288526920 0 0
-0.0086828000 0.0306171390 0 1
-0.0100262960 0.0316310260 0 1
-0.0111610790 0.0317144990 0 1
-0.0120157270 0.0307837570 0 1
-0.0125476770 0.0288736120 0 0
-0.0127433460 0.0261425340 0 0
-0.0126138300 0.0228559360 0 0
-0.0121896070 0.0193508080 0 0
-0.0115166540 0.0159897960 0 0
-0.0106537740 0.0131142060 0 0
-0.0096705910 0.0110048090 0 0
-0.0086460030 0.0098563510 0 0
-0.0076650870 0.0097671690 0 0
-0.0068112540 0.0107413430 0 0
-0.0061530930 0.0126978130 0 0
-0.0057301770 0.0154807140 0 0
-0.0055447500 0.0188691550 0 0
-0.0055639890 0.0225898990 0 0
-0.0057321330 0.0263376680 0 0
-0.0059867730 0.0298033940 0 0
-0.0062721840 0.0327053240 0 1
-0.0065452970 0.0348163700 0 1
-0.0067743170 0.0359835110 0 1
-0.0069335860 0.0361389470 0 1
-0.0069999230 0.0353047650 0 1
-0.0069538770 0.0335913610 0 1
-0.0067845410 0.0311872240 0 1
-0.0064939900 0.0283385940 0 0
-0.0060998310 0.0253219360 0 0
-0.0056361210 0.0224150420 0 0
-0.0051516610 0.0198715650 0 0
-0.0047052250 0.0179016400 0 0
-0.0043590570 0.0166590590 0 0
-0.0041718120 0.0162333190 0 0
-0.0041915220 0.0166443900 0 0
-0.0044494270 0.0178396510 0 0
-0.0049549060 0.0196946680 0 0
-0.0056910000 0.0220204260 0 0
-0.0066118810 0.0245782290 0 0
-0.0076466780 0.0271007520 0 0
-0.0087117570 0.0293162750 0 0
-0.0097260770 0.0309741820 0 1
-0.0106212620 0.0318708230 0 1
-0.0113434180 0.0318738150 0 1
-0.0118509840 0.0309410200 0 1
-0.0121153570 0.0291297680 0 0
-0.0121272250 0.0265929390 0 0
-0.0119050170 0.0235616660 0 0
-0.0114986600 0.0203179620 0 0
-0.0109844850 0.0171621560 0 0
-0.0104524040 0.0143793610 0 0
-0.0099904620 0.0122085470 0 0
-0.0096720190 0.0108182860 0 0
-0.0095482070 0.0102925260 0 0
-0.0096456130 0.0106270220 0 0
-0.0099672450 0.0117345860 0 0
-0.0104948000 0.0134577100 0 0
-0.0111923510 0.0155873000 0 0
-0.0120116250 0.0178848300 0 0
-0.0128961790 0.0201049220 0 0
-0.0137819840 0.0220172200 0 0
-0.0145963020 0.0234273520 0 0
-0.0152590700 0.0241957570 0 0
-0.0156886520 0.0242524100 0 0
-0.0158116380 0.0236055280 0 0
-0.0155756700 0.0223416310 0 0
-0.0149619130 0.0206146120 0 0
-0.0139910740 0.0186251860 0 0
-0.0127194610 0.0165963620 0 0
-0.0112279590 0.0147507400 0 0
-0.0096095140 0.0132916640 0 0
-0.0079590200 0.0123872290 0 0
-0.0063670550 0.0121559300 0 0
-0.0049160980 0.0126541900 0 0
-0.0036762390 0.0138677000 0 0
-0.0026999510 0.0157090150 0 0
-0.0020179120 0.0180222830 0 0
-0.0016366120 0.0205941200 0 0
-0.0015373710 0.0231694950 0 0
-0.0016771880 0.0254726660 0 0
-0.0019921330 0.0272332860 0 0
-0.0024041230 0.0282163150 0 0
-0.0028318940 0.0282526010 0 0
-0.0032047000 0.0272648220 0 0
-0.0034740490 0.0252825090 0 0
-0.0036181720 0.0224424350 0 0
-0.0036373230 0.0189751190 0 0
-0.0035431870 0.0151808080 0 0
-0.0033492700 0.0113985250 0 0
-0.0030681890 0.0079713240 0 0
-0.0027163760 0.0052111630 0 0
-0.0023210490 0.0033673680 0 0
-0.0019233730 0.0026026470 0 0
-0.0015747260 0.0029794520 0 0
-0.0013274980 0.0044571490 0 0
-0.0012251940 0.0068981360 0 0
-0.0012954840 0.0100812380 0 0
-0.0015459720 0.0137220850 0 0
-0.0019618400 0.0174998400 0 0
-0.0025064900 0.0210881080 0 0
-0.0031263910 0.0241864990 0 0
-0.0037593310 0.0265488240 0 0
-0.0043434740 0.0280048150 0 0
-0.0048245820 0.0284738420 0 0
-0.0051599630 0.0279699300 0 0
-0.0053192420 0.0265979810 0 0
-0.0052836340 0.0245415430 0 0
-0.0050466530 0.0220429000 0 0
-0.0046182800 0.0193776620 0 0
-0.0040310570 0.0168279440 0 0
-0.0033433760 0.0146580660 0 0
-0.0026354740 0.0130938530 0 0
-0.0019978220 0.0123041150 0 0
-0.0015162390 0.0123842140 0 0
-0.0012586590 0.0133447570 0 0
-0.0012657760 0.0151087620 0 0
-0.0015459650 0.0175177890 0 0
-0.0020751120 0.0203447630 0 0
-0.0028022690 0.0233113380 0 0
-0.0036605630 0.0261100730 0 0
-0.0045801780 0.0284332300 0 0
-0.0054990420 0.0300079940 0 1
-0.0063681580 0.0306333600 0 1
-0.0071510340 0.0302102570 0 1
-0.0078189740 0.0287571930 0 0
-0.0083461820 0.0264083310 0 0
-0.0087081530 0.0233959040 0 0
-0.0088839680 0.0200220480 0 0
-0.0088618920 0.0166251220 0 0
-0.0086472550 0.0135437140 0 0
-0.0082692630 0.0110807520 0 0
-0.0077822600 0.0094708440 0 0
-0.0072595820 0.0088549540 0 0
-0.0067818680 0.0092670870 0 0
-0.0064236520 0.0106361760 0 0
-0.0062415150 0.0128021280 0 0
-0.0062665580 0.0155407670 0 0
-0.0065039780 0.0185912980 0 0
-0.0069394450 0.0216811670 0 0
-0.0075471940 0.0245462760 0 0
-0.0082948740 0.0269481920 0 0
-0.0091448430 0.0286910260 0 0
-0.0100544610 0.0296381820 0 0
-0.0109769990 0.0297261160 0 0
-0.0118632080 0.0289713760 0 0
-0.0126645730 0.0274690050 0 0
-0.0133394660 0.0253828540 0 0
-0.0138596060 0.0229292690 0 0
-0.0142124920 0.0203555440 0 0
-0.0143997690 0.0179153400 0 0
-0.0144348510 0.0158443780 0 0
-0.0143413930 0.0143390560 0 0
-0.0141520830 0.0135394020 0 0
-0.0139074770 0.0135175250 0 0
-0.0136549580 0.0142721590 0 0
-0.0134464210 0.0157283780 0 0
-0.0133321000 0.0177414640 0 0
-0.0133501730 0.0201055370 0 0
-0.0135159670 0.0225680630 0 0
-0.0138159770 0.0248501530 0 0
-0.0142088550 0.0266717880 0 0
-0.0146321190 0.0277812690 0 0
-0.0150125000 0.0279873690 0 0
-0.0152779280 0.0271900570 0 0
-0.0153689930 0.0254026830 0 0
-0.0152474890 0.0227579500 0 0
-0.0149000920 0.0194940140 0 0
-0.0143367680 0.0159236660 0 0
-0.0135857560 0.0123942220 0 0
-0.0126879860 0.0092463730 0 0
-0.0116926170 0.0067784370 0 0
-0.0106535730 0.0052191430 0 0
-0.0096270210 0.0047086390 0 0
-0.0086705610 0.0052870480 0 0
-0.0078431640 0.0068921900 0 0
-0.0072024520 0.0093683100 0 0
-0.0067965740 0.0124849630 0 0
-0.0066519810 0.0159634950 0 0
-0.0067633890 0.0195079850 0 0
-0.0070927790 0.0228360370 0 0
-0.0075778200 0.0257037260 0 0
-0.0081436430 0.0279217620 0 0
-0.0087120690 0.0293641090 0 0
-0.0092066830 0.0299713490 0 0
-0.0095561010 0.0297499990 0 0
-0.0096991160 0.0287692120 0 0
-0.0095929190 0.0271562380 0 0
-0.0092219990 0.0250898230 0 0
-0.0086043880 0.0227891300 0 0
-0.0077935480 0.0204964990 0 0
-0.0068748690 0.0184541420 0 0
-0.0059556270 0.0168768130 0 0
-0.0051493000 0.0159248080 0 0
-0.0045581390 0.0156828050 0 0
-0.0042582970 0.0161489920 0 0
-0.0042897030 0.0172368020 0 0
-0.0046512260 0.0187895000 0 0
-0.0053015680 0.0206048300 0 0
-0.0061659560 0.0224635400 0 0
-0.0071461950 0.0241552700 0 0
-0.0081307320 0.0254981370 0 0
-0.0090045820 0.0263515470 0 0
-0.0096613420 0.0266238970 0 0
-0.0100175380 0.0262773360 0 0
-0.0100266650 0.0253304140 0 0
-0.0096890790 0.0238579430 0 0
-0.0090536690 0.0219869340 0 0
-0.0082080200 0.0198879590 0 0
-0.0072583200 0.0177618660 0 0
-0.0063074250 0.0158220950 0 0
-0.0054408950 0.0142736820 0 0
-0.0047236800 0.0132909390 0 0
-0.0042027780 0.0129958990 0 0
-0.0039104260 0.0134402010 0 0
-0.0038653890 0.0145943230 0 0
-0.0040717150 0.0163480880 0 0
-0.0045153550 0.0185236790 0 0
-0.0051609430 0.0208982350 0 0
-0.0059524920 0.0232305790 0 0
-0.0068207400 0.0252870180 0 0
-0.0076959020 0.0268627870 0 0
-0.0085199350 0.0277980330 0 0
-0.0092515390 0.0279893590 0 0
-0.0098620620 0.0273980210 0 0
-0.0103274710 0.0260541200 0 0
-0.0106236010 0.0240556400 0 0
-0.0107275600 0.0215621510 0 0
-0.0106227470 0.0187833960 0 0
-0.0103037610 0.0159628580 0 0
-0.0097805120 0.0133564470 0 0
-0.0090833090 0.0112067180 0 0
-0.0082688490 0.0097150220 0 0
-0.0074227610 0.0090169320 0 0
-0.0066531950 0.0091666540 0 0
-0.0060741560 0.0101330560 0 0
-0.0057835140 0.0118065890 0 0
-0.0058436220 0.0140146720 0 0
-0.0062708770 0.0165421250 0 0
-0.0070356930 0.0191527850 0 0
-0.0080700250 0.0216095760 0 0
-0.0092794820 0.0236925660 0 0
-0.0105588090 0.0252159110 0 0
-0.0118083270 0.0260434830 0 0
-0.0129464660 0.0261007740 0 0
-0.0139148700 0.0253799790 0 0
-0.0146769230 0.0239372070 0 0
-0.0152133270 0.0218840870 0 0
-0.0155179720 0.0193772380 0 0
-0.0155963420 0.0166077180 0 0
-0.0154678900 0.0137905220 0 0
-0.0151703520 0.0111519820 0 0
-0.0147595550 0.0089118340 0 0
-0.0143003150 0.0072596760 0 0
-0.0138528680 0.0063307130 0 0
-0.0134637230 0.0061874750 0 0
-0.0131641880 0.0068116920 0 0
-0.0129722830 0.0081071710 0 0
-0.0128929910 0.0099120360 0 0
-0.0129164580 0.0120173260 0 0
-0.0130177990 0.0141890900 0 0
-0.0131606440 0.0161917340 0 0
-0.0133026320 0.0178109320 0 0
-0.0134010080 0.0188749630 0 0
-0.0134182700 0.0192733830 0 0
-0.0133272510 0.0189706520 0 0
-0.0131131970 0.0180111820 0 0
-0.0127704740 0.0165136060 0 0
-0.0122957950 0.0146548000 0 0
-0.0116844170 0.0126471110 0 0
-0.0109332460 0.0107141880 0 0
-0.0100473830 0.0090703330 0 0
-0.0090442670 0.0079052480 0 0
-0.0079546940 0.0073724610 0 0
-0.0068240940 0.0075780560 0 0
-0.0057140600 0.0085678980 0 0
-0.0046985080 0.0103155470 0 0
-0.0038508010 0.0127160960 0 0
-0.0032271660 0.0155910060 0 0
-0.0028564440 0.0187055870 0 0
-0.0027401120 0.0217956620 0 0
-0.0028580590 0.0245970660 0 0
-0.0031753590 0.0268730480 0 0
-0.0036490550 0.0284373060 0 0
-0.0042333770 0.0291715410 0 0
-0.0048807140 0.0290366480 0 0
-0.0055389690 0.0280768500 0 0
-0.0061493050 0.0264158510 0 0
-0.0066479300 0.0242437380 0 0
-0.0069735800 0.0217950870 0 0
-0.0070796520 0.0193219230 0 0
-0.0069466780 0.0170663160 0 0
-0.0065890140 0.0152360730 0 0
-0.0060526000 0.0139852470 0 0
-0.0054066970 0.0134000540 0 0
-0.0047352030 0.0134904790 0 0
-0.0041292240 0.0141884260 0 0
-0.0036772050 0.0153544780 0 0
-0.0034501550 0.0167955060 0 0
-0.0034863750 0.0182914060 0 0
-0.0037826690 0.0196238860 0 0
-0.0042949290 0.0205999090 0 0
-0.0049463490 0.0210672330 0 0
-0.0056402000 0.0209240560 0 0
-0.0062741420 0.0201261220 0 0
-0.0067529310 0.0186927520 0 0
-0.0069975600 0.0167099310 0 0
-0.0069515600 0.0143270000 0 0
-0.0065867930 0.0117450530 0 0
-0.0059095830 0.0091977790 0 0
-0.0049645880 0.0069274680 0 0
-0.0038323560 0.0051599860 0 0
-0.0026188620 0.0040821910 0 0
-0.0014394940 0.0038231810 0 0
-0.0004024790 0.0044390950 0 0
0.0004041320 0.0059022340 0 0
0.0009202790 0.0080978420 0 0
0.0011166080 0.0108323700 0 0
0.0009929860 0.0138538560 0 0
0.0005748290 0.0168807760 0 0
-0.0000907780 0.0196337140 0 0
-0.0009388590 0.0218648160 0 0
-0.0018907190 0.0233818150 0 0
-0.0028584110 0.0240650490 0 0
-0.0037491390 0.0238770770 0 0
-0.0044698100 0.0228649120 0 0
-0.0049337920 0.0211546470 0 0
-0.0050724320 0.0189382650 0 0
-0.0048497350 0.0164539590 0 0
-0.0042733630 0.0139627400 0 0
-0.0033957380 0.0117240120 0 0
-0.0023055670 0.0099721920 0 0
-0.0011155480 0.0088963730 0 0
0.0000491261 0.0086244220 0 0
0.0010610650 0.0092123970 0 0
0.0018004620 0.0106401280 0 0
0.0021648080 0.0128133310 0 0
0.0020801970 0.0155711180 0 0
0.0015146500 0.0186971900 0 0
0.0004892140 0.0219345030 0 0
-0.0009196610 0.0250039230 0 0
-0.0025893700 0.0276257210 0 0
-0.0043696870 0.0295420060 0 0
-0.0061054320 0.0305393940 0 1
-0.0076574400 0.0304716860 0 1
-0.0089170410 0.0292810690 0 0
-0.0098122220 0.0270145700 0 0
-0.0103070800 0.0238306100 0 0
-0.0103980900 0.0199908150 0 0
-0.0101105550 0.0158358890 0 0
-0.0094962360 0.0117492450 0 0
-0.0086303190 0.0081147630 0 0
-0.0076057030 0.0052751310 0 0
-0.0065245640 0.0034957810 0 0
-0.0054884850 0.0029379450 0 0
-0.0045889330 0.0036433800 0 0
-0.0038988060 0.0055325800 0 0
-0.0034650040 0.0084164820 0 0
-0.0033038640 0.0120191420 0 0
-0.0034024280 0.0160078260 0 0
-0.0037257240 0.0200272630 0 0
-0.0042265300 0.0237343450 0 0
-0.0048531560 0.0268292200 0 0
-0.0055532110 0.0290799100 0 0
-0.0062745000 0.0303391050 0 1
-0.0069653630 0.0305524420 0 1
-0.0075769110 0.0297583810 0 0
-0.0080689430 0.0280810210 0 0
-0.0084181220 0.0257179430 0 0
-0.0086234930 0.0229241030 0 0
-0.0087060530 0.0199913050 0 0
-0.0087035250 0.0172228120 0 0
-0.0086627960 0.0149039810 0 0
-0.0086316370 0.0132718780 0 0
-0.0086516800 0.0124892140 0 0
-0.0087548140 0.0126275570 0 0
-0.0089627940 0.0136615790 0 0
-0.0092873450 0.0154734760 0 0
-0.0097286130 0.0178665260 0 0
-0.0102724140 0.0205875600 0 0
-0.0108883650 0.0233570240 0 0
-0.0115307790 0.0259018330 0 0
-0.0121432520 0.0279843800 0 0
-0.0126667630 0.0294227580 0 0
-0.0130492090 0.0301007730 0 1
-0.0132532110 0.0299696310 0 0
-0.0132604860 0.0290450440 0 0
-0.0130730090 0.0274030860 0 0
-0.0127120110 0.0251758490 0 0
-0.0122156500 0.0225455820 0 0
-0.0116353790 0.0197347950 0 0
-0.0110299190 0.0169906880 0 0
-0.0104566020 0.0145641720 0 0
-0.0099627610 0.0126853940 0 0
-0.0095810070 0.0115385670 0 0
-0.0093293430 0.0112394920 0 0
-0.0092140440 0.0118192310 0 0
-0.0092333760 0.0132165700 0 0
-0.0093812860 0.0152807240 0 0
-0.0096500690 0.0177853480 0 0
-0.0100313920 0.0204541370 0 0
-0.0105154960 0.0229957060 0 0
-0.0110879220 0.0251414950 0 0
-0.0117249400 0.0266786950 0 0
-0.0123911850 0.0274726530 0 0
-0.0130409550 0.0274774580 0 0
-0.0136219400 0.0267358940 0 0
-0.0140809380 0.0253702910 0 0
-0.0143711540 0.0235654390 0 0
-0.0144587050 0.0215452350 0 0
-0.0143259030 0.0195465780 0 0
-0.0139720910 0.0177951960 0 0
-0.0134146520 0.0164861800 0 0
-0.0126903920 0.0157683250 0 0
-0.0118537880 0.0157302420 0 0
-0.0109689170 0.0163893100 0 0
-0.0100972070 0.0176877730 0 0
-0.0092873660 0.0194990370 0 0
-0.0085710990 0.0216432650 0 0
-0.0079628950 0.0239085660 0 0
-0.0074616560 0.0260732360 0 0
-0.0070539720 0.0279256850 0 0
-0.0067178500 0.0292813980 0 0
-0.0064248330 0.0299982390 0 0
-0.0061416170 0.0299906310 0 0
-0.0058347170 0.0292411160 0 0
-0.0054787750 0.0278065960 0 0
-0.0050649300 0.0258166890 0 0
-0.0046051490 0.0234634880 0 0
-0.0041308250 0.0209838130 0 0
-0.0036860070 0.0186353680 0 0
-0.0033169180 0.0166682410 0 0
-0.0030612780 0.0152942030 0 0
-0.0029419330 0.0146585360 0 0
-0.0029670110 0.0148210370 0 0
-0.0031345360 0.0157511820 0 0
-0.0034370480 0.0173369920 0 0
-0.0038628020 0.0194025290 0 0
-0.0043923390 0.0217291290 0 0
-0.0049918790 0.0240781350 0 0
-0.0056084470 0.0262139470 0 0
-0.0061731230 0.0279256930 0 0
-0.0066143860 0.0290455310 0 0
-0.0068763780 0.0294621530 0 0
-0.0069334120 0.0291291990 0 0
-0.0067943850 0.0280690690 0 0
-0.0064960190 0.0263716690 0 0
-0.0060890650 0.0241858680 0 0
-0.0056245900 0.0217028240 0 0
-0.0051467570 0.0191350510 0 0
-0.0046936800 0.0166970910 0 0
-0.0043017430 0.0145904250 0 0
-0.0040061000 0.0129913540 0 0
-0.0038340290 0.0120394760 0 0
-0.0037951380 0.0118257230 0 0
-0.0038767640 0.0123810530 0 0
-0.0040495520 0.0136687590 0 0
-0.0042797290 0.0155838910 0 0
-0.0045399100 0.0179614440 0 0
-0.0048132110 0.0205915580 0 0
-0.0050902960 0.0232382030 0 0
-0.0053617270 0.0256592270 0 0
-0.0056091500 0.0276278750 0 0
-0.0057998500 0.0289557170 0 0
-0.0058887760 0.0295146780 0 0
-0.0058289890 0.0292543730 0 0
-0.0055864090 0.0282112360 0 0
-0.0051517380 0.0265073000 0 0
-0.0045446400 0.0243380700 0 0
-0.0038102240 0.0219508520 0 0
-0.0030110640 0.0196172680 0 0
-0.0022181750 0.0176047510 0 0
-0.0015027180 0.0161504190 0 0
-0.0009285350 0.0154388520 0 0
-0.0005450790 0.0155848990 0 0
-0.0003815460 0.0166226570 0 0
-0.0004447150 0.0185013060 0 0
-0.0007218600 0.0210880040 0 0
-0.0011860860 0.0241779020 0 0
-0.0017989160 0.0275110180 0 0
-0.0025073830 0.0307947770 0 1
-0.0032394510 0.0337305220 0 1
-0.0039063760 0.0360426400 0 1
-0.0044161790 0.0375082700 0 1
-0.0046915170 0.0379833970 0 1
-0.0046814720 0.0374204780 0 1
-0.0043647990 0.0358752430 0 1
-0.0037501360 0.0335026670 0 1
-0.0028772850 0.0305422290 0 1
-0.0018173270 0.0272927270 0 0
-0.0006666610 0.0240789760 0 0
0.0004665670 0.0212144790 0 0
0.0014798850 0.0189647860 0 0
0.0022914830 0.0175172020 0 0
0.0028478220 0.0169628980 0 0
0.0031233030 0.0172948850 0 0
0.0031157190 0.0184201370 0 0
0.0028416240 0.0201801840 0 0
0.0023330270 0.0223738650 0 0
0.0016343170 0.0247780880 0 0
0.0007979790 0.0271650590 0 0
-0.0001203650 0.0293158560 0 0
-0.0010654520 0.0310317250 0 1
-0.0019837170 0.0321461690 0 1
-0.0028239130 0.0325396100 0 1
-0.0035384340 0.0321548220 0 1
-0.0040865550 0.0310087910 0 1
-0.0044405450 0.0291970730 0 0
-0.0045930790 0.0268885390 0 0
-0.0045618300 0.0243103340 0 0
-0.0043881710 0.0217248430 0 0
-0.0041302060 0.0194021560 0 0
-0.0038526740 0.0175919050 0 0
-0.0036169560 0.0164977960 0 0
-0.0034740460 0.0162572930 0 0
-0.0034613990 0.0169273380 0 0
-0.0036014870 0.0184757550 0 0
-0.0038991020 0.0207786440 0 0
-0.0043378220 0.0236259660 0 0
-0.0048794770 0.0267381010 0 0
-0.0054691930 0.0297938420 0 0
-0.0060437770 0.0324670840 0 1
-0.0065386480 0.0344671220 0 1
-0.0068910880 0.0355756880 0 1
-0.0070416520 0.0356736840 0 1
-0.0069369760 0.0347539270 0 1
-0.0065360100 0.0329205620 0 1
-0.0058198110 0.0303768660 0 1
-0.0048028190 0.0274019240 0 0
-0.0035409180 0.0243169970 0 0
-0.0021308790 0.0214454290 0 0
-0.0006992920 0.0190732800 0 0
0.0006156550 0.0174184530 0 0
0.0016839810 0.0166131570 0 0
0.0024015080 0.0166998830 0 0
0.0027034550 0.0176372680 0 0
0.0025723080 0.0193116380 0 0
0.0020382760 0.0215522280 0 0
0.0011726120 0.0241492640 0 0
0.0000761238 0.0268730560 0 0
-0.0011346480 0.0294917860 0 0
-0.0023416080 0.0317867270 0 1
-0.0034372230 0.0335648390 0 1
-0.0043316880 0.0346700110 0 1
-0.0049543810 0.0349945040 0 1
-0.0052529490 0.0344905780 0 1
-0.0051944160 0.0331804850 0 1
-0.0047686570 0.0311617520 0 1
-0.0039914410 0.0286043850 0 0
-0.0029053720 0.0257383610 0 0
-0.0015786120 0.0228326520 0 0
-0.0001012030 0.0201687930 0 0
0.0014206740 0.0180120300 0 0
0.0028716220 0.0165831910 0 0
0.0041353800 0.0160354600 0 0
0.0051065980 0.0164395580 0 0
0.0057067080 0.0177773810 0 0
0.0058995070 0.0199416800 0 0
0.0056987930 0.0227407720 0 0
0.0051641800 0.0259097620 0 0
0.0043888030 0.0291298600 0 0
0.0034856310 0.0320564690 0 1
0.0025752190 0.0343562100 0 1
0.0017736880 0.0357505090 0 1
0.0011808610 0.0360583690 0 1
0.0008703750 0.0352277900 0 1
0.0008820720 0.0333470470 0 1
0.0012165630 0.0306325650 0 1
0.0018344200 0.0273962950 0 0
0.0026622930 0.0239998490 0 0
0.0036046980 0.0208048250 0 0
0.0045582730 0.0181287640 0 0
0.0054260240 0.0162132870 0 0
0.0061285440 0.0152065650 0 0
0.0066083920 0.0151591520 0 0
0.0068276750 0.0160304430 0 0
0.0067643870 0.0177019210 0 0
0.0064122070 0.0199928740 0 0
0.0057829890 0.0226756870 0 0
0.0049090380 0.0254913010 0 0
0.0038435980 0.0281674740 0 0
0.0026588950 0.0304409140 0 1
0.0014409070 0.0320813320 0 1
0.0002807820 0.0329139070 0 1
-0.0007349690 0.0328372100 0 1
-0.0015317370 0.0318349240 0 1
-0.0020500000 0.0299801120 0 0
-0.0022470750 0.0274305390 0 0
-0.0021009880 0.0244144660 0 0
-0.0016163930 0.0212081020 0 0
-0.0008286540 0.0181072870 0 0
0.0001975560 0.0153970590 0 0
0.0013751340 0.0133234030 0 0
0.0026043490 0.0120704670 0 0
0.0037836130 0.0117444910 0 0
0.0048208810 0.0123647640 0 0
0.0056441960 0.0138624800 0 0
0.0062075390 0.0160887790 0 0
0.0064895470 0.0188317450 0 0
0.0064873470 0.0218390570 0 0
0.0062106500 0.0248415860 0 0
0.0056807700 0.0275750460 0 0
0.0049353160 0.0298003290 0 0
0.0040337320 0.0313244230 0 1
0.0030569470 0.0320205580 0 1
0.0020981760 0.0318420760 0 1
0.0012473330 0.0308253210 0 1
0.0005747270 0.0290819020 0 0
0.0001199220 0.0267842760 0 0
-0.0001108600 0.0241488310 0 0
-0.0001394430 0.0214189820 0 0
-0.0000065901 0.0188479470 0 0
0.0002361190 0.0166783990 0 0
0.0005307610 0.0151176140 0 0
0.0008150190 0.0143118710 0 0
0.0010254530 0.0143271580 0 0
0.0011047380 0.0151405780 0 0
0.0010118170 0.0166424030 0 0
0.0007306780 0.0186482050 0 0
0.0002730940 0.0209215480 0 0
-0.0003260040 0.0232048440 0 0
-0.0010173840 0.0252516930 0 0
-0.0017456660 0.0268541420 0 0
-0.0024534540 0.0278617180 0 0
-0.0030816110 0.0281914860 0 0
-0.0035695780 0.0278296030 0 0
-0.0038601870 0.0268264160 0 0
-0.0039089180 0.0252884370 0 0
-0.0036929400 0.0233700090 0 0
-0.0032162410 0.0212646270 0 0
-0.0025114820 0.0191924750 0 0
-0.0016399820 0.0173806160 0 0
-0.0006886190 0.0160363800 0 0
0.0002385010 0.0153194190 0 0
0.0010336100 0.0153198730 0 0
0.0016019900 0.0160476020 0 0
0.0018780110 0.0174334470 0 0
0.0018348810 0.0193413770 0 0
0.0014844420 0.0215888420 0 0
0.0008695400 0.0239707640 0 0
0.0000549812 0.0262821890 0 0
-0.0008801370 0.0283361910 0 0
-0.0018499620 0.0299759070 0 0
-0.0027699380 0.0310823230 0 1
-0.0035637230 0.0315808710 0 1
-0.0041675900 0.0314484590 0 1
-0.0045328520 0.0307195050 0 1
-0.0046287590 0.0294874040 0 0
-0.0044482590 0.0278982860 0 0
-0.0040147650 0.0261366270 0 0
-0.0033839570 0.0244053370 0 0
-0.0026368460 0.0229043280 0 0
-0.0018661090 0.0218110890 0 0
-0.0011610310 0.0212649650 0 0
-0.0005961990 0.0213549300 0 0
-0.0002259620 0.0221107190 0 0
-0.0000830577 0.0234984570 0 0
-0.0001788810 0.0254224600 0 0
-0.0005041330 0.0277331910 0 0
-0.0010294080 0.0302393230 0 1
-0.0017063190 0.0327221030 0 1
-0.0024705020 0.0349525150 0 1
-0.0032463780 0.0367118490 0 1
-0.0039523990 0.0378141410 0 1
-0.0045069550 0.0381276060 0 1
-0.0048360460 0.0375926810 0 1
-0.0048825530 0.0362339560 0 1
-0.0046157820 0.0341621270 0 1
-0.0040393810 0.0315629580 0 1
-0.0031941430 0.0286742860 0 0
-0.0021520940 0.0257567810 0 0
-0.0010037720 0.0230655100 0 0
0.0001534690 0.0208264640 0 0
0.0012217390 0.0192183830 0 0
0.0021081250 0.0183586870 0 0
0.0027353220 0.0182932520 0 0
0.0030556250 0.0189917590 0 0
0.0030606390 0.0203510740 0 0
0.0027804300 0.0222070730 0 0
0.0022718510 0.0243524810 0 0
0.0016019660 0.0265575900 0 0
0.0008346520 0.0285915500 0 0
0.0000254907 0.0302426200 0 1
-0.0007753980 0.0313361860 0 1
-0.0015175690 0.0317494200 0 1
-0.0021473490 0.0314214920 0 1
-0.0026101280 0.0303590210 0 1
-0.0028571640 0.0286370300 0 0
-0.0028553900 0.0263950780 0 0
-0.0025968940 0.0238276110 0 0
-0.0021034820 0.0211680940 0 0
-0.0014248680 0.0186674190 0 0
-0.0006324610 0.0165682750 0 0
0.0001894940 0.0150781880 0 0
0.0009543840 0.0143446260 0 0
0.0015837970 0.0144361650 0 0
0.0020167950 0.0153335140 0 0
0.0022165370 0.0169319390 0 0
0.0021731470 0.0190532600 0 0
0.0019028910 0.0214645670 0 0
0.0014444550 0.0239024270 0 0
0.0008531930 0.0261014370 0 0
0.0001951530 0.0278234790 0 0
-0.0004574890 0.0288825390 0 0
-0.0010304000 0.0291614020 0 0
-0.0014533970 0.0286198530 0 0
-0.0016710760 0.0272963950 0 0
-0.0016557260 0.0253051390 0 0
-0.0014167910 0.0228277120 0 0
-0.0010019440 0.0200984540 0 0
-0.0004895260 0.0173820250 0 0
0.0000248479 0.0149464400 0 0
0.0004445090 0.0130366340 0 0
0.0006874470 0.0118508710 0 0
0.0006975710 0.0115202740 0 0
0.0004495740 0.0120931310 0 0
-0.0000509683 0.0135265600 0 0
-0.0007704190 0.0156871000 0 0
-0.0016531930 0.0183609040 0 0
-0.0026312910 0.0212737890 0 0
-0.0036348040 0.0241204170 0 0
-0.0045989920 0.0265999480 0 0
-0.0054649510 0.0284535470 0 0
-0.0061757900 0.0294979050 0 0
-0.0066742170 0.0296483380 0 0
-0.0069064270 0.0289265100 0 0
-0.0068323010 0.0274522380 0 0
-0.0064376120 0.0254232030 0 0
-0.0057431040 0.0230877560 0 0
-0.0048066910 0.0207150340 0 0
-0.0037172390 0.0185659240 0 0
-0.0025816370 0.0168681060 0 0
-0.0015093610 0.0157970160 0 0
-0.0005989010 0.0154633080 0 0
0.0000710359 0.0159073170 0 0
0.0004455330 0.0171002840 0 0
0.0004955690 0.0189501140 0 0
0.0002200140 0.0213091040 0 0
-0.0003539540 0.0239834770 0 0
-0.0011735810 0.0267463410 0 0
-0.0021657240 0.0293550090 0 0
-0.0032421860 0.0315721470 0 1
-0.0043038460 0.0331893820 0 1
-0.0052462000 0.0340509110 0 1
-0.0059709260 0.0340732640 0 1
-0.0064027400 0.0332562960 0 1
-0.0065036000 0.0316816440 0 1
-0.0062771200 0.0294995480 0 0
-0.0057633810 0.0269098180 0 0
-0.0050292320 0.0241417760 0 0
-0.0041582440 0.0214336570 0 0
-0.0032420550 0.0190112400 0 0
-0.0023741060 0.0170680040 0 0
-0.0016454940 0.0157494790 0 0
-0.0011405610 0.0151423740 0 0
-0.0009307580 0.0152679750 0 0
-0.0010675270 0.0160803650 0 0
-0.0015747000 0.0174707900 0 0
-0.0024410410 0.0192783670 0 0
-0.0036158530 0.0213059950 0 0
-0.0050111640 0.0233398170 0 0
-0.0065110510 0.0251698110 0 0
-0.0079853580 0.0266087130 0 0
-0.0093047120 0.0275069980 0 0
-0.0103547360 0.0277626700 0 0
-0.0110474380 0.0273265660 0 0
-0.0113281140 0.0262058670 0 0
-0.0111778410 0.0244675350 0 0
-0.0106127570 0.0222400210 0 0
-0.0096809640 0.0197098170 0 0
-0.0084578920 0.0171103320 0 0
-0.0070408830 0.0147022500 0 0
-0.0055430140 0.0127462700 0 0
-0.0040856830 0.0114717470 0 0
-0.0027894800 0.0110472310 0 0
-0.0017628070 0.0115585190 0 0
-0.0010885440 0.0129967560 0 0
-0.0008109590 0.0152562310 0 0
-0.0009260520 0.0181410960 0 0
-0.0013788760 0.0213812810 0 0
-0.0020712770 0.0246579320 0 0
-0.0028802020 0.0276369140 0 0
-0.0036810870 0.0300065920 0 1
-0.0043684800 0.0315142620 0 1
-0.0048691170 0.0319945980 0 1
-0.0051466770 0.0313855020 0 1
-0.0051985280 0.0297314040 0 0
-0.0050451330 0.0271768660 0 0
-0.0047163680 0.0239520600 0 0
-0.0042424360 0.0203499450 0 0
-0.0036539950 0.0166966200 0 0
-0.0029887740 0.0133189280 0 0
-0.0022983950 0.0105133530 0 0
-0.0016501140 0.0085191890 0 0
-0.0011204410 0.0074984060 0 0
-0.0007816800 0.0075235120 0 0
-0.0006866960 0.0085734940 0 0
-0.0008568410 0.0105378780 0 0
-0.0012751900 0.0132291950 0 0
-0.0018869790 0.0164029840 0 0
-0.0026094380 0.0197826860 0 0
-0.0033496120 0.0230859720 0 0
-0.0040227270 0.0260489880 0 0
-0.0045626990 0.0284458730 0 0
-0.0049239440 0.0301033090 0 1
-0.0050810170 0.0309120550 0 1
-0.0050302540 0.0308369920 0 1
-0.0047911690 0.0299248170 0 0
-0.0044038920 0.0283056880 0 0
-0.0039216740 0.0261846410 0 0
-0.0034006300 0.0238219280 0 0
-0.0028912690 0.0215048520 0 0
-0.0024350900 0.0195143170 0 0
-0.0020651150 0.0180903480 0 0
-0.0018068390 0.0174031830 0 0
-0.0016774090 0.0175356650 0 0
-0.0016833290 0.0184779240 0 0
-0.0018189620 0.0201319320 0 0
-0.0020676820 0.0223236980 0 0
-0.0024041270 0.0248221670 0 0
-0.0027944120 0.0273638990 0 0
-0.0031943980 0.0296811150 0 0
-0.0035497380 0.0315293390 0 1
-0.0038006300 0.0327115820 0 1
-0.0038917660 0.0330979380 0 1
-0.0037856800 0.0326399140 0 1
-0.0034737400 0.0313774990 0 1
-0.0029785660 0.0294362710 0 0
-0.0023481080 0.0270132750 0 0
-0.0016467020 0.0243530640 0 0
-0.0009461690 0.0217180890 0 0
-0.0003172800 0.0193594210 0 0
0.0001766150 0.0174920300 0 0
0.0004819940 0.0162754090 0 0
0.0005562270 0.0157997480 0 0
0.0003716110 0.0160790800 0 0
-0.0000785475 0.0170519160 0 0
-0.0007773800 0.0185880260 0 0
-0.0016874840 0.0205002060 0 0
-0.0027551730 0.0225612510 0 0
-0.0039126860 0.0245262680 0 0
-0.0050813520 0.0261590480 0 0
-0.0061791060 0.0272590030 0 0
-0.0071297330 0.0276841220 0 0
-0.0078689690 0.0273669990 0 0
-0.0083472790 0.0263225340 0 0
-0.0085326720 0.0246459010 0 0
-0.0084146510 0.0225002000 0 0
-0.0080074350 0.0200958260 0 0
-0.0073505910 0.0176657900 0 0
-0.0065061650 0.0154415970 0 0
-0.0055518650 0.0136327180 0 0
-0.0045712940 0.0124106080 0 0
-0.0036437790 0.0118969950 0 0
-0.0028359400 0.0121556170 0 0
-0.0021960460 0.0131865460 0 0
-0.0017518840 0.0149235140 0 0
-0.0015113210 0.0172360640 0 0
-0.0014637670 0.0199382120 0 0
-0.0015825110 0.0228038050 0 0
-0.0018282330 0.0255874810 0 0
-0.0021521420 0.0280490540 0 0
-0.0024985930 0.0299778140 0 0
-0.0028095830 0.0312132270 0 1
-0.0030325020 0.0316600830 0 1
-0.0031289840 0.0312969590 0 1
-0.0030804950 0.0301772590 0 1
-0.0028884690 0.0284236830 0 0
-0.0025715740 0.0262179980 0 0
-0.0021631880 0.0237862240 0 0
-0.0017082610 0.0213775850 0 0
-0.0012574110 0.0192377850 0 0
-0.0008592290 0.0175811650 0 0
-0.0005542240 0.0165670460 0 0
-0.0003722260 0.0162833110 0 0
-0.0003316830 0.0167383790 0 0
-0.0004384990 0.0178611760 0 0
-0.0006838280 0.0195079460 0 0
-0.0010419400 0.0214752520 0 0
-0.0014708100 0.0235196300 0 0
-0.0019181450 0.0253837090 0 0
-0.0023319020 0.0268251500 0 0
-0.0026701740 0.0276419650 0 0
-0.0029061760 0.0276903570 0 0
-0.0030284760 0.0268963280 0 0
-0.0030384180 0.0252634620 0 0
-0.0029457360 0.0228764000 0 0
-0.0027634040 0.0198978220 0 0
-0.0025037070 0.0165579350 0 0
-0.0021777140 0.0131364560 0 0
-0.0017986610 0.0099367860 0 0
-0.0013873030 0.0072536060 0 0
-0.0009757840 0.0053391750 0 0
-0.0006070670 0.0043751890 0 0
-0.0003295580 0.0044542420 0 0
-0.0001891090 0.0055712640 0 0
-0.0002199870 0.0076245300 0 0
-0.0004349630 0.0104267420 0 0
-0.0008167050 0.0137258770 0 0
-0.0013161140 0.0172325060 0 0
-0.0018621070 0.0206483600 0 0
-0.0023803790 0.0236921180 0 0
-0.0028121370 0.0261210840 0 0
-0.0031247970 0.0277491440 0 0
-0.0033132860 0.0284610240 0 0
-0.0033954520 0.0282218610 0 0
-0.0034052350 0.0270810990 0 0
-0.0033847640 0.0251701270 0 0
-0.0033749000 0.0226926340 0 0
-0.0034056290 0.0199068550 0 0
-0.0034904020 0.0171005300 0 0
-0.0036273890 0.0145613200 0 0
-0.0038064850 0.0125467870 0 0
-0.0040177050 0.0112580110 0 0
-0.0042567250 0.0108194050 0 0
-0.0045259600 0.0112659740 0 0
-0.0048323250 0.0125395290 0 0
-0.0051838040 0.0144948330 0 0
-0.0055860270 0.0169142720 0 0
-0.0060383420 0.0195283090 0 0
-0.0065288700 0.0220400620 0 0
-0.0070305210 0.0241532570 0 0
-0.0075019040 0.0256023660 0 0
-0.0078950920 0.0261828050 0 0
-0.0081668420 0.0257779480 0 0
-0.0082868220 0.0243779650 0 0
-0.0082401050 0.0220847050 0 0
-0.0080264680 0.0190998330 0 0
-0.0076592040 0.0156992980 0 0
-0.0071632770 0.0122006620 0 0
-0.0065724280 0.0089288520 0 0
-0.0059266520 0.0061836830 0 0
-0.0052710550 0.0042118050 0 0
-0.0046542260 0.0031856730 0 0
-0.0041239480 0.0031905970 0 0
-0.0037215070 0.0042195280 0 0
-0.0034780600 0.0061756200 0 0
-0.0034140980 0.0088830900 0 0
-0.0035393820 0.0121055580 0 0
-0.0038504320 0.0155694110 0 0
-0.0043260410 0.0189896210 0 0
-0.0049247230 0.0220961450 0 0
-0.0055885060 0.0246591350 0 0
-0.0062538240 0.0265102460 0 0
-0.0068647470 0.0275562130 0 0
-0.0073816680 0.0277815940 0 0
-0.0077818570 0.0272407780 0 0
-0.0080539390 0.0260431440 0 0
-0.0081922460 0.0243367900 0 0
-0.0081957090 0.0222946590 0 0
-0.0080701430 0.0201040500 0 0
-0.0078301050 0.0179581390 0 0
-0.0074995990 0.0160467690 0 0
-0.0071125260 0.0145439730 0 0
-0.0067126970 0.0135922970 0 0
-0.0063530410 0.0132864190 0 0
-0.0060929690 0.0136591030 0 0
-0.0059911780 0.0146720900 0 0
-0.0060938670 0.0162142650 0 0
-0.0064231210 0.0181086650 0 0
-0.0069702350 0.0201285970 0 0
-0.0076949500 0.0220220020 0 0
-0.0085294880 0.0235414700 0 0
-0.0093869550 0.0244744790 0 0
-0.0101739450 0.0246668500 0 0
-0.0108050160 0.0240355700 0 0
-0.0112146230 0.0225733460 0 0
-0.0113638520 0.0203497110 0 0
-0.0112437270 0.0175101580 0 0
-0.0108780040 0.0142704440 0 0
-0.0103236340 0.0109022110 0 0
-0.0096636490 0.0077082070 0 0
-0.0089917030 0.0049888780 0 0
-0.0083946690 0.0030059180 0 0
-0.0079398650 0.0019505610 0 0
-0.0076681710 0.0019226950 0 0
-0.0075915390 0.0029221010 0 0
-0.0076939910 0.0048497650 0 0
-0.0079352700 0.0075172940 0 0
-0.0082564980 0.0106638400 0 0
-0.0085879470 0.0139803890 0 0
-0.0088580900 0.0171400300 0 0
-0.0090016980 0.0198308540 0 0
-0.0089660400 0.0217875710 0 0
-0.0087163350 0.0228191670 0 0
-0.0082404790 0.0228306280 0 0
-0.0075507370 0.0218360050 0 0
-0.0066815360 0.0199602110 0 0
-0.0056853040 0.0174280030 0 0
-0.0046274840 0.0145395460 0 0
-0.0035801250 0.0116347470 0 0
-0.0026145110 0.0090525220 0 0
-0.0017944950 0.0070920840 0 0
-0.0011716050 0.0059814380 0 0
-0.0007824460 0.0058564580 0 0
-0.0006481380 0.0067521460 0 0
-0.0007748100 0.0086050360 0 0
-0.0011547940 0.0112639440 0 0
-0.0017687340 0.0145067630 0 0
-0.0025878660 0.0180621620 0 0
-0.0035744860 0.0216349950 0 0
-0.0046795860 0.0249331100 0 0
-0.0058397170 0.0276924480 0 0
-0.0069775350 0.0296982240 0 0
-0.0080088290 0.0308016260 0 1
-0.0088542730 0.0309310330 0 1
-0.0094509380 0.0300946030 0 1
-0.0097595680 0.0283728070 0 0
-0.0097675320 0.0259048130 0 0
-0.0094890740 0.0228747880 0 0
-0.0089626690 0.0195009640 0 0
-0.0082453410 0.0160260950 0 0
-0.0074064660 0.0127060770 0 0
-0.0065235170 0.0097941390 0 0
-0.0056791090 0.0075202110 0 0
-0.0049562420 0.0060670700 0 0
-0.0044298290 0.0055464780 0 0
-0.0041563300 0.0059800350 0 0
-0.0041649730 0.0072899660 0 0
-0.0044527490 0.0093037470 0 0
-0.0049842740 0.0117734380 0 0
-0.0056968800 0.0144066430 0 0
-0.0065098290 0.0169030890 0 0
-0.0073352630 0.0189904350 0 0
-0.0080890620 0.0204541700 0 0
-0.0087013150 0.0211586190 0 0
-0.0091259060 0.0210581650 0 0
-0.0093469800 0.0201990170 0 0
-0.0093797760 0.0187119580 0 0
-0.0092653560 0.0167963110 0 0
-0.0090614630 0.0146964290 0 0
-0.0088320580 0.0126740220 0 0
-0.0086370300 0.0109799360 0 0
-0.0085246520 0.0098274470 0 0
-0.0085300290 0.0093690310 0 0
-0.0086785050 0.0096799480 0 0
-0.0089880930 0.0107515700 0 0
-0.0094667350 0.0124947940 0 0
-0.0101061870 0.0147515480 0 0
-0.0108775330 0.0173121570 0 0
-0.0117315910 0.0199372130 0 0
-0.0126041110 0.0223823720 0 0
-0.0134240430 0.0244232450 0 0
-0.0141229070 0.0258775900 0 0
-0.0146429640 0.0266230480 0 0
-0.0149426150 0.0266091840 0 0
-0.0149995500 0.0258627060 0 0
-0.0148129140 0.0244849420 0 0
-0.0144039510 0.0226409590 0 0
-0.0138135320 0.0205409640 0 0
-0.0130967220 0.0184161020 0 0
-0.0123168180 0.0164913820 0 0
-0.0115408350 0.0149588500 0 0
-0.0108356380 0.0139547490 0 0
-0.0102627860 0.0135447150 0 0
-0.0098719460 0.0137199200 0 0
-0.0096948460 0.0144050820 0 0
-0.0097424710 0.0154763910 0 0
-0.0100070670 0.0167835560 0 0
-0.0104676730 0.0181691020 0 0
-0.0110955250 0.0194817290 0 0
-0.0118557480 0.0205845680 0 0
-0.0127044550 0.0213607200 0 0
-0.0135840670 0.0217187570 0 0
-0.0144213800 0.0216001000 0 0
-0.0151316520 0.0209880230 0 0
-0.0156288460 0.0199156700 0 0
-0.0158392400 0.0184696410 0 0
-0.0157148090 0.0167865890 0 0
-0.0152437330 0.0150418290 0 0
-0.0144556830 0.0134309870 0 0
-0.0134198790 0.0121475680 0 0
-0.0122359130 0.0113597350 0 0
-0.0110197850 0.0111890290 0 0
-0.0098885750 0.0116938790 0 0
-0.0089459990 0.0128608430 0 0
-0.0082698240 0.0146050340 0 0
-0.0079033310 0.0167789030 0 0
-0.0078533460 0.0191872390 0 0
-0.0080937860 0.0216060840 0 0
-0.0085712800 0.0238036270 0 0
-0.0092114540 0.0255613770 0 0
-0.0099263470 0.0266936760 0 0
-0.0106232670 0.0270638220 0 0
-0.0112147890 0.0265957470 0 0
-0.0116282740 0.0252810260 0 0
-0.0118118220 0.0231816420 0 0
-0.0117350790 0.0204289070 0 0
-0.0113868800 0.0172179070 0 0
-0.0107731690 0.0137961200 0 0
-0.0099169150 0.0104449960 0 0
-0.0088589920 0.0074544410 0 0
-0.0076577320 0.0050924750 0 0
-0.0063862760 0.0035749870 0 0
-0.0051286730 0.0030411180 0 0
-0.0039756480 0.0035379110 0 0
-0.0030191910 0.0050160360 0 0
-0.0023433210 0.0073372980 0 0
-0.0020096630 0.0102927630 0 0
-0.0020421340 0.0136274380 0 0
-0.0024192160 0.0170659890 0 0
-0.0030785390 0.0203357080 0 0
-0.0039297630 0.0231861920 0 0
-0.0048683210 0.0254068830 0 0
-0.0057876940 0.0268430140 0 0
-0.0065920370 0.0274086720 0 0
-0.0072086700 0.0270953430 0 0
-0.0075971340 0.0259749080 0 0
-0.0077525140 0.0241958620 0 0
-0.0077030400 0.0219711450 0 0
-0.0075032630 0.0195577850 0 0
-0.0072251230 0.0172308690 0 0
-0.0069489180 0.0152550940 0 0
-0.0067543440 0.0138565120 0 0
-0.0067115950 0.0131967310 0 0
-0.0068742060 0.0133528710 0 0
-0.0072745730 0.0143078070 0 0
-0.0079207640 0.0159536100 0 0
-0.0087934770 0.0181069700 0 0
-0.0098451930 0.0205323450 0 0
-0.0110052700 0.0229688530 0 0
-0.0121914220 0.0251585310 0 0
-0.0133224210 0.0268734760 0 0
-0.0143262590 0.0279385220 0 0
-0.0151429420 0.0282471240 0 0
-0.0157246760 0.0277699980 0 0
-0.0160359820 0.0265567230 0 0
-0.0160555880 0.0247303800 0 0
-0.0157812870 0.0224753330 0 0
-0.0152366310 0.0200187430 0 0
-0.0144754410 0.0176075320 0 0
-0.0135800200 0.0154832340 0 0
-0.0126526470 0.0138567790 0 0
-0.0118030120 0.0128856560 0 0
-0.0111340600 0.0126567420 0 0
-0.0107287600 0.0131769020 0 0
-0.0106411640 0.0143711070 0 0
-0.0108926360 0.0160877550 0 0
-0.0114709590 0.0181125240 0 0
-0.0123312640 0.0201916690 0 0
-0.0133994270 0.0220625420 0 0
-0.0145774030 0.0234861550 0 0
-0.0157501220 0.0242759340 0 0
-0.0167956580 0.0243179940 0 0
-0.0176000970 0.0235804490 0 0
-0.0180744670 0.0221123650 0 0
-0.0181679770 0.0200356660 0 0
-0.0178733960 0.0175329840 0 0
-0.0172239990 0.0148321410 0 0
-0.0162837170 0.0121869800 0 0
-0.0151336920 0.0098554430 0 0
-0.0138594130 0.0080771190 0 0
-0.0125419000 0.0070524790 0 0
-0.0112541160 0.0069242660 0 0
-0.0100608020 0.0077605440 0 0
-0.0090185330 0.0095415390 0 0
-0.0081748770 0.0121555680 0 0
-0.0075676270 0.0154076070 0 0
-0.0072242980 0.0190388370 0 0
-0.0071611900 0.0227530010 0 0
-0.0073814690 0.0262463480 0 0
-0.0078719640 0.0292377390 0 0
-0.0085999070 0.0314943070 0 1
-0.0095115740 0.0328496080 0 1
-0.0105336580 0.0332143520 0 1
-0.0115783190 0.0325808110 0 1
-0.0125528300 0.0310208210 0 1
-0.0133718110 0.0286766660 0 0
-0.0139682650 0.0257452670 0 0
-0.0143012290 0.0224582620 0 0
-0.0143599620 0.0190614880 0 0
-0.0141661340 0.0157959330 0 0
-0.0137753990 0.0128808560 0 0
-0.0132765530 0.0105005090 0 0
-0.0127842950 0.0087955840 0 0
-0.0124241370 0.0078577260 0 0
-0.0123124200 0.0077243410 0 0
-0.0125369990 0.0083732760 0 0
-0.0131435790 0.0097187400 0 0
-0.0141292990 0.0116103110 0 0
-0.0154421170 0.0138380280 0 0
-0.0169853310 0.0161468890 0 0
-0.0186286720 0.0182616180 0 0
-0.0202253090 0.0199191140 0 0
-0.0216302180 0.0209032720 0 0
-0.0227166930 0.0210754450 0 0
-0.0233908690 0.0203945040 0 0
-0.0236032090 0.0189232790 0 0
-0.0233534210 0.0168213200 0 0
-0.0226870230 0.0143257110 0 0
-0.0216858390 0.0117224790 0 0
-0.0204556740 0.0093119720 0 0
-0.0191130230 0.0073719790 0 0
-0.0177725520 0.0061225160 0 0
-0.0165365740 0.0056975930 0 0
-0.0154859400 0.0061302810 0 0
-0.0146724010 0.0073548130 0 0
-0.0141150130 0.0092237280 0 0
-0.0138027150 0.0115332230 0 0
-0.0137017640 0.0140497370 0 0
-0.0137638980 0.0165342880 0 0
-0.0139316700 0.0187636250 0 0
-0.0141406560 0.0205479270 0 0
-0.0143211800 0.0217448810 0 0
-0.0144029730 0.0222692050 0 0
-0.0143243380 0.0220964530 0 0
-0.0140432790 0.0212620350 0 0
-0.0135444720 0.0198575940 0 0
-0.0128382600 0.0180249100 0 0
-0.0119549690 0.0159458750 0 0
-0.0109410710 0.0138278600 0 0
-0.0098588870 0.0118849980 0 0
-0.0087852300 0.0103169500 0 0
-0.0078044410 0.0092882690 0 0
-0.0069967460 0.0089118510 0 0
-0.0064268320 0.0092381420 0 0
-0.0061358700 0.0102494680 0 0
-0.0061365280 0.0118590230 0 0
-0.0064090540 0.0139163040 0 0
-0.0068985330 0.0162210580 0 0
-0.0075165350 0.0185448030 0 0
-0.0081498720 0.0206559640 0 0
-0.0086757370 0.0223442910 0 0
-0.0089810920 0.0234413010 0 0
-0.0089835010 0.0238346830 0 0
-0.0086481630 0.0234760030 0 0
-0.0079963930 0.0223826960 0 0
-0.0071045470 0.0206357440 0 0
-0.0060939570 0.0183731010 0 0
-0.0051127300 0.0157780950 0 0
-0.0043128580 0.0130628630 0 0
-0.0038285270 0.0104480080 0 0
-0.0037605790 0.0081403150 0 0
-0.0041692440 0.0063111350 0 0
-0.0050745690 0.0050783890 0 0
-0.0064617050 0.0044942770 0 0
-0.0082878690 0.0045397940 0 0
-0.0104891990 0.0051267030 0 0
-0.0129861300 0.0061066640 0 0
-0.0156866150 0.0072859940 0 0
-0.0184901000 0.0084442540 0 0
-0.0212960470 0.0093553930 0 0
-0.0240153330 0.0098104880 0 0
-0.0265790830 0.0096403600 0 0
-0.0289427820 0.0087350250 0 0
-0.0310875780 0.0070566800 -1 0
-0.0330198860 0.0046442490 -1 0
-0.0347680330 0.0016092500 -1 0
-0.0363758210 -0.0018756030 -1 0
-0.0378954600 -0.0055929580 -1 0
-0.0393816220 -0.0093014580 -1 0
-0.0408862950 -0.0127600180 -1 0
-0.0424552780 -0.0157536580 -1 0
-0.0441283610 -0.0181167800 -1 0
-0.0459427980 -0.0197494570 -1 0
-0.0479367320 -0.0206243560 -1 0
-0.0501487490 -0.0207852420 -1 0
-0.0526117900 -0.0203394680 -1 0
-0.0553436020 -0.0194457610 -1 0
-0.0583385080 -0.0182983550 -1 0
-0.0615645090 -0.0171097450 -1 0
-0.0649661640 -0.0160942190 -1 0
-0.0684697190 -0.0154520280 -1 0
-0.0719866120 -0.0153525380 -1 0
-0.0754157630 -0.0159160770 -1 0
-0.0786487670 -0.0171975550 -1 0
-0.0815807430 -0.0191760780 -1 0
-0.0841256880 -0.0217531300 -1 0
-0.0862319280 -0.0247598890 -1 0
-0.0878925450 -0.0279731320 -1 0
-0.0891481730 -0.0311388200 -1 -1
-0.0900824780 -0.0340009010 -1 -1
-0.0908114470 -0.0363302590 -1 -1
-0.0914675460 -0.0379490070 -1 -1
-0.0921807400 -0.0387486330 -1 -1
-0.0930601430 -0.0387020020 -1 -1
-0.0941802580 -0.0378672870 -1 -1
-0.0955741830 -0.0363812980 -1 -1
-0.0972338990 -0.0344427200 -1 -1
-0.0991155450 -0.0322888530 -1 -1
-0.1011475750 -0.0301694390 -1 -1
-0.1032412000 -0.0283207710 -1 0
-0.1053016670 -0.0269436530 -1 0
-0.1072371290 -0.0261886230 -1 0
-0.1089635960 -0.0261495820 -1 0
-0.1104079030 -0.0268639140 -1 0
-0.1115116440 -0.0283151840 -1 0
-0.1122368420 -0.0304347750 -1 -1
-0.1125712720 -0.0331017460 -1 -1
-0.1125304700 -0.0361438950 -1 -1
-0.1121553060 -0.0393442180 -1 -1
-0.1115062660 -0.0424557780 -1 -1
-0.1106561670 -0.0452249700 -1 -1
-0.1096827320 -0.0474199010 -1 -1
-0.1086625560 -0.0488587290 -1 -1
-0.1076674880 -0.0494328450 -1 -1
-0.1067621600 -0.0491207670 -1 -1
-0.1059992740 -0.0479908350 -1 -1
-0.1054114170 -0.0461937860 -1 -1
-0.1050031330 -0.0439473660 -1 -1
-0.1047490220 -0.0415144120 -1 -1
-0.1046000220 -0.0391757860 -1 -1
-0.1044943200 -0.0372005920 -1 -1
-0.1043677100 -0.0358164980 -1 -1
-0.1041608010 -0.0351836970 -1 -1
-0.1038232380 -0.0353767800 -1 -1
-0.1033169270 -0.0363772680 -1 -1
-0.1026201230 -0.0380764870 -1 -1
-0.1017321210 -0.0402875040 -1 -1
-0.1006764720 -0.0427653590 -1 -1
-0.0995003580 -0.0452339930 -1 -1
-0.0982691390 -0.0474167540 -1 -1
-0.0970578290 -0.0490669700 -1 -1
-0.0959422620 -0.0499952580 -1 -1
-0.0949912810 -0.0500898060 -1 -1
-0.0942603400 -0.0493262570 -1 -1
-0.0937864820 -0.0477665030 -1 -1
-0.0935839240 -0.0455482750 -1 -1
-0.0936403670 -0.0428681710 -1 -1
-0.0939162660 -0.0399608270 -1 -1
-0.0943485610 -0.0370767750 -1 -1
-0.0948573010 -0.0344606530 -1 -1
-0.0953519340 -0.0323303430 -1 -1
-0.0957362640 -0.0308574540 -1 -1
-0.0959152690 -0.0301505180 -1 -1
-0.0958071170 -0.0302435500 -1 -1
-0.0953578720 -0.0310922340 -1 -1
-0.0945519830 -0.0325784840 -1 -1
-0.0934150030 -0.0345228600 -1 -1
-0.0920101980 -0.0367030090 -1 -1
-0.0904307600 -0.0388751390 -1 -1
-0.0887881320 -0.0407959450 -1 -1
-0.0871984620 -0.0422444090 -1 -1
-0.0857700310 -0.0430436140 -1 -1
-0.0845934190 -0.0430810430 -1 -1
-0.0837355740 -0.0423237020 -1 -1
-0.0832382810 -0.0408243360 -1 -1
-0.0831192530 -0.0387171690 -1 -1
-0.0833731510 -0.0362036330 -1 -1
-0.0839723120 -0.0335297150 -1 -1
-0.0848684790 -0.0309579830 -1 -1
-0.0859952040 -0.0287387700 -1 0
-0.0872708110 -0.0270849660 -1 0
-0.0886039200 -0.0261534400 -1 0
-0.0899028490 -0.0260346690 -1 0
-0.0910869060 -0.0267508010 -1 0
-0.0920958530 -0.0282604190 -1 0
-0.0928945770 -0.0304659340 -1 -1
-0.0934728070 -0.0332198610 -1 -1
-0.0938426110 -0.0363297660 -1 -1
-0.0940357030 -0.0395652090 -1 -1
-0.0940994790 -0.0426704330 -1 -1
-0.0940897230 -0.0453844680 -1 -1
-0.0940606560 -0.0474674430 -1 -1
-0.0940564740 -0.0487287860 -1 -1
-0.0941081250 -0.0490512910 -1 -1
-0.0942345190 -0.0484067410 -1 -1
-0.0944446010 -0.0468622730 -1 -1
-0.0947381920 -0.0445779530 -1 -1
-0.0951060540 -0.0417946290 -1 -1
-0.0955297060 -0.0388113380 -1 -1
-0.0959812150 -0.0359547260 -1 -1
-0.0964242470 -0.0335445320 -1 -1
-0.0968176130 -0.0318579500 -1 -1
-0.0971206090 -0.0310963110 -1 -1
-0.0972981240 -0.0313597880 -1 -1
-0.0973239540 -0.0326348140 -1 -1
-0.0971822020 -0.0347948470 -1 -1
-0.0968680540 -0.0376133020 -1 -1
-0.0963892920 -0.0407880790 -1 -1
-0.0957682760 -0.0439761680 -1 -1
-0.0950429140 -0.0468343650 -1 -1
-0.0942652540 -0.0490598940 -1 -1
-0.0934971430 -0.0504242490 -1 -1
-0.0928032750 -0.0507952270 -1 -1
-0.0922426920 -0.0501453340 -1 -1
-0.0918606230 -0.0485476590 -1 -1
-0.0916834070 -0.0461621360 -1 -1
-0.0917178490 -0.0432155220 -1 -1
-0.0919531360 -0.0399774860 -1 -1
-0.0923622590 -0.0367345400 -1 -1
-0.0929022190 -0.0337638320 -1 -1
-0.0935145780 -0.0313086860 -1 -1
-0.0941280020 -0.0295575650 -1 0
-0.0946637780 -0.0286285890 -1 0
-0.0950444460 -0.0285617510 -1 0
-0.0952036960 -0.0293190300 -1 0
-0.0950949640 -0.0307910540 -1 -1
-0.0946981750 -0.0328091470 -1 -1
-0.0940255270 -0.0351619930 -1 -1
-0.0931254560 -0.0376163870 -1 -1
-0.0920813550 -0.0399417350 -1 -1
-0.0910021690 -0.0419360940 -1 -1
-0.0900056770 -0.0434478800 -1 -1
-0.0891984650 -0.0443870750 -1 -1
-0.0886576150 -0.0447248470 -1 -1
-0.0884188870 -0.0444858180 -1 -1
-0.0884746220 -0.0437380410 -1 -1
-0.0887811830 -0.0425836500 -1 -1
-0.0892725210 -0.0411508340 -1 -1
-0.0898745710 -0.0395858900 -1 -1
-0.0905156930 -0.0380432230 -1 -1
-0.0911317310 -0.0366722270 -1 -1
-0.0916678100 -0.0356024250 -1 -1
-0.0920795140 -0.0349301350 -1 -1
-0.0923347220 -0.0347095740 -1 -1
-0.0924160710 -0.0349488780 -1 -1
-0.0923232590 -0.0356097170 -1 -1
-0.0920742570 -0.0366095090 -1 -1
-0.0917053140 -0.0378265920 -1 -1
-0.0912692830 -0.0391090750 -1 -1
-0.0908304030 -0.0402875030 -1 -1
-0.0904546800 -0.0411907880 -1 -1
-0.0901984150 -0.0416639130 -1 -1
-0.0900986330 -0.0415854810 -1 -1
-0.0901679410 -0.0408837270 -1 -1
-0.0903956110 -0.0395494920 -1 -1
-0.0907547260 -0.0376434030 -1 -1
-0.0912111550 -0.0352944050 -1 -1
-0.0917295630 -0.0326888030 -1 -1
-0.0922756850 -0.0300513090 -1 -1
-0.0928171160 -0.0276208840 -1 0
-0.0933238520 -0.0256242880 -1 0
-0.0937682600 -0.0242505690 -1 0
-0.0941250490 -0.0236304330 -1 0
-0.0943718470 -0.0238236400 -1 0
-0.0944893920 -0.0248149140 -1 0
-0.0944613410 -0.0265167340 -1 0
-0.0942761230 -0.0287771610 -1 0
-0.0939316900 -0.0313921580 -1 -1
-0.0934406400 -0.0341227350 -1 -1
-0.0928327660 -0.0367168510 -1 -1
-0.0921541400 -0.0389344760 -1 -1
-0.0914630400 -0.0405726170 -1 -1
-0.0908233070 -0.0414865590 -1 -1
-0.0902967100 -0.0416045430 -1 -1
-0.0899362540 -0.0409345900 -1 -1
-0.0897804460 -0.0395633820 -1 -1
-0.0898473650 -0.0376472550 -1 -1
-0.0901295970 -0.0353958850 -1 -1
-0.0905935180 -0.0330507110 -1 -1
-0.0911851040 -0.0308607660 -1 -1
-0.0918401140 -0.0290578070 -1 0
-0.0924929760 -0.0278324590 -1 0
-0.0930806950 -0.0273140070 -1 0
-0.0935443350 -0.0275569380 -1 0
-0.0938328570 -0.0285362450 -1 0
-0.0939102290 -0.0301515110 -1 -1
-0.0937635590 -0.0322390060 -1 -1
-0.0934096350 -0.0345911690 -1 -1
-0.0928963920 -0.0369817010 -1 -1
-0.0922956270 -0.0391925060 -1 -1
-0.0916873600 -0.0410373210 -1 -1
-0.0911418070 -0.0423770250 -1 -1
-0.0907060040 -0.0431243320 -1 -1
-0.0903987470 -0.0432406710 -1 -1
-0.0902140350 -0.0427310600 -1 -1
-0.0901304290 -0.0416415440 -1 -1
-0.0901215550 -0.0400606470 -1 -1
-0.0901636550 -0.0381224240 -1 -1
-0.0902398040 -0.0360052100 -1 -1
-0.0903429090 -0.0339209050 -1 -1
-0.0904774910 -0.0320943370 -1 -1
-0.0906571630 -0.0307364500 -1 -1
-0.0908969390 -0.0300165450 -1 -1
-0.0912046130 -0.0300390050 -1 -1
-0.0915754260 -0.0308287570 -1 -1
-0.0919909140 -0.0323273660 -1 -1
-0.0924218980 -0.0343994170 -1 -1
-0.0928349140 -0.0368471890 -1 -1
-0.0931993280 -0.0394305180 -1 -1
-0.0934927110 -0.0418891560 -1 -1
-0.0937050210 -0.0439664640 -1 -1
-0.0938429990 -0.0454342940 -1 -1
-0.0939330340 -0.0461176510 -1 -1
-0.0940182650 -0.0459154090 -1 -1
-0.0941489440 -0.0448129000 -1 -1
-0.0943697880 -0.0428845390 -1 -1
-0.0947090400 -0.0402873340 -1 -1
-0.0951722460 -0.0372464780 -1 -1
-0.0957418220 -0.0340335620 -1 -1
-0.0963815060 -0.0309389740 -1 -1
-0.0970436390 -0.0282418590 -1 0
-0.0976765410 -0.0261820770 -1 0
-0.0982297280 -0.0249377750 -1 0
-0.0986573390 -0.0246097230 -1 0
-0.0989223680 -0.0252117570 -1 0
-0.0990028940 -0.0266674250 -1 0
-0.0988982430 -0.0288147840 -1 0
-0.0986314650 -0.0314217610 -1 -1
-0.0982462080 -0.0342121850 -1 -1
-0.0977996880 -0.0368987550 -1 -1
-0.0973550900 -0.0392171890 -1 -1
-0.0969748460 -0.0409562400 -1 -1
-0.0967147130 -0.0419795040 -1 -1
-0.0966186960 -0.0422365020 -1 -1
-0.0967145680 -0.0417627890 -1 -1
-0.0970098500 -0.0406702410 -1 -1
-0.0974896680 -0.0391290960 -1 -1
-0.0981179400 -0.0373444940 -1 -1
-0.0988410210 -0.0355318790 -1 -1
-0.0995922780 -0.0338959040 -1 -1
-0.1002977160 -0.0326152860 -1 -1
-0.1008835420 -0.0318323570 -1 -1
-0.1012854600 -0.0316441660 -1 -1
-0.1014572450 -0.0320938330 -1 -1
-0.1013755440 -0.0331634640 -1 -1
-0.1010402580 -0.0347708420 -1 -1
-0.1004723700 -0.0367717210 -1 -1
-0.0997110860 -0.0389692550 -1 -1
-0.0988112620 -0.0411311230 -1 -1
-0.0978411820 -0.0430131100 -1 -1
-0.0968792710 -0.0443861210 -1 -1
-0.0960083230 -0.0450632710 -1 -1
-0.0953074720 -0.0449244460 -1 -1
-0.0948436750 -0.0439359130 -1 -1
-0.0946646610 -0.0421618810 -1 -1
-0.0947941600 -0.0397643900 -1 -1
-0.0952290750 -0.0369882880 -1 -1
-0.0959380220 -0.0341306350 -1 -1
-0.0968611570 -0.0314995000 -1 -1
-0.0979127230 -0.0293722210 -1 0
-0.0989888910 -0.0279628360 -1 0
-0.0999811100 -0.0274027530 -1 0
-0.1007915150 -0.0277336420 -1 0
-0.1013467560 -0.0289100700 -1 0
-0.1016075720 -0.0308089840 -1 -1
-0.1015717370 -0.0332434140 -1 -1
-0.1012700670 -0.0359793490 -1 -1
-0.1007581430 -0.0387552740 -1 -1
-0.1001070860 -0.0413032540 -1 -1
-0.0993956780 -0.0433707880 -1 -1
-0.0987043620 -0.0447429640 -1 -1
-0.0981105500 -0.0452632850 -1 -1
-0.0976847070 -0.0448505470 -1 -1
-0.0974862560 -0.0435090530 -1 -1
-0.0975586230 -0.0413302020 -1 -1
-0.0979235080 -0.0384848130 -1 -1
-0.0985751450 -0.0352067140 -1 -1
-0.0994761970 -0.0317695500 -1 -1
-0.1005577950 -0.0284602390 -1 0
-0.1017257800 -0.0255525610 -1 0
-0.1028730180 -0.0232836720 -1 0
-0.1038945310 -0.0218359240 -1 0
-0.1047007330 -0.0213249210 -1 0
-0.1052260380 -0.0217927880 -1 0
-0.1054337520 -0.0232052420 -1 0
-0.1053192870 -0.0254520860 -1 0
-0.1049101590 -0.0283521990 -1 0
-0.1042585980 -0.0316645990 -1 -1
-0.1034272780 -0.0351060400 -1 -1
-0.1024755880 -0.0383739170 -1 -1
-0.1014530180 -0.0411725920 -1 -1
-0.1003993210 -0.0432416650 -1 -1
-0.0993477240 -0.0443841910 -1 -1
-0.0983288870 -0.0444908310 -1 -1
-0.0973736610 -0.0435553490 -1 -1
-0.0965119990 -0.0416786800 -1 -1
-0.0957675640 -0.0390603940 -1 -1
-0.0951513780 -0.0359775470 -1 -1
-0.0946581850 -0.0327531990 -1 -1
-0.0942668880 -0.0297193150 -1 0
-0.0939452680 -0.0271800170 -1 0
-0.0936576460 -0.0253805320 -1 0
-0.0933711980 -0.0244851000 -1 0
-0.0930572270 -0.0245654480 -1 0
-0.0926892800 -0.0255997220 -1 0
-0.0922434740 -0.0274795130 -1 0
-0.0917036930 -0.0300221710 -1 -1
-0.0910702190 -0.0329875990 -1 -1
-0.0903685050 -0.0361002790 -1 -1
-0.0896537180 -0.0390771790 -1 -1
-0.0890063680 -0.0416604230 -1 -1
-0.0885169400 -0.0436498180 -1 -1
-0.0882643310 -0.0449268090 -1 -1
-0.0882988060 -0.0454623880 -1 -1
-0.0886366090 -0.0453078650 -1 -1
-0.0892628630 -0.0445745890 -1 -1
-0.0901362790 -0.0434111150 -1 -1
-0.0911954390 -0.0419837060 -1 -1
-0.0923681870 -0.0404615670 -1 -1
-0.0935804090 -0.0390052350 -1 -1
-0.0947598610 -0.0377565360 -1 -1
-0.0958364280 -0.0368297430 -1 -1
-0.0967432960 -0.0363042640 -1 -1
-0.0974214530 -0.0362190230 -1 -1
-0.0978266880 -0.0365684840 -1 -1
-0.0979364030 -0.0373010060 -1 -1
-0.0977538030 -0.0383211070 -1 -1
-0.0973082550 -0.0394963330 -1 -1
-0.0966519390 -0.0406683830 -1 -1
-0.0958542990 -0.0416683200 -1 -1
-0.0949959230 -0.0423351310 -1 -1
-0.0941619980 -0.0425347750 -1 -1
-0.0934351460 -0.0421760960 -1 -1
-0.0928882530 -0.0412215000 -1 -1
-0.0925778150 -0.0396920490 -1 -1
-0.0925380310 -0.0376671120 -1 -1
-0.0927767110 -0.0352785160 -1 -1
-0.0932740780 -0.0326991430 -1 -1
-0.0939842060 -0.0301271540 -1 -1
-0.0948387510 -0.0277683060 -1 0
-0.0957538150 -0.0258183370 -1 0
-0.0966397620 -0.0244455920 -1 0
-0.0974114660 -0.0237742680 -1 0
-0.0979962250 -0.0238702860 -1 0
-0.0983387920 -0.0247321790 -1 0
-0.0984044160 -0.0262883530 -1 0
-0.0981803880 -0.0284008280 -1 0
-0.0976765690 -0.0308749000 -1 -1
-0.0969255900 -0.0334746950 -1 -1
-0.0959828030 -0.0359450270 -1 -1
-0.0949250390 -0.0380390900 -1 -1
-0.0938461430 -0.0395485170 -1 -1
-0.0928480890 -0.0403294030 -1 -1
-0.0920299870 -0.0403189310 -1 -1
-0.0914783600 -0.0395415640 -1 -1
-0.0912592740 -0.0381057720 -1 -1
-0.0914114980 -0.0361915500 -1 -1
-0.0919404420 -0.0340298490 -1 -1
-0.0928129880 -0.0318771310 -1 -1
-0.0939556100 -0.0299880310 -1 0
-0.0952601460 -0.0285880950 -1 0
-0.0965986960 -0.0278495000 -1 0
-0.0978439090 -0.0278735280 -1 0
-0.0988884700 -0.0286815980 -1 0
-0.0996586930 -0.0302139010 -1 -1
-0.1001198150 -0.0323344750 -1 -1
-0.1002733970 -0.0348427680 -1 -1
-0.1001498950 -0.0374921300 -1 -1
-0.0998006080 -0.0400146590 -1 -1
-0.0992911000 -0.0421501010 -1 -1
-0.0986945620 -0.0436753810 -1 -1
-0.0980830240 -0.0444308110 -1 -1
-0.0975175250 -0.0443391600 -1 -1
-0.0970411770 -0.0434143270 -1 -1
-0.0966777320 -0.0417573430 -1 -1
-0.0964339130 -0.0395400800 -1 -1
-0.0963018290 -0.0369809030 -1 -1
-0.0962598090 -0.0343182880 -1 -1
-0.0962723910 -0.0317872020 -1 -1
-0.0962913220 -0.0296005090 -1 0
-0.0962597010 -0.0279353370 -1 0
-0.0961198450 -0.0269229570 -1 0
-0.0958230640 -0.0266408670 -1 0
-0.0953379910 -0.0271066200 -1 0
-0.0946541120 -0.0282735430 -1 0
-0.0937806780 -0.0300294700 -1 -1
-0.0927450920 -0.0322016790 -1 -1
-0.0915926000 -0.0345711750 -1 -1
-0.0903839880 -0.0368949550 -1 -1
-0.0891884440 -0.0389313270 -1 -1
-0.0880737780 -0.0404644300 -1 -1
-0.0870985750 -0.0413260600 -1 -1
-0.0863086040 -0.0414131820 -1 -1
-0.0857365280 -0.0406995870 -1 -1
-0.0854029590 -0.0392404490 -1 -1
-0.0853170310 -0.0371681900 -1 -1
-0.0854744740 -0.0346786510 -1 -1
-0.0858530230 -0.0320095050 -1 -1
-0.0864091460 -0.0294153930 -1 0
-0.0870799760 -0.0271436120 -1 0
-0.0877894980 -0.0254123910 -1 0
-0.0884564530 -0.0243922980 -1 0
-0.0890035260 -0.0241907930 -1 0
-0.0893675320 -0.0248408640 -1 0
-0.0895081000 -0.0262955250 -1 0
-0.0894120210 -0.0284293710 -1 0
-0.0890931730 -0.0310480070 -1 -1
-0.0885899620 -0.0339058560 -1 -1
-0.0879610800 -0.0367308800 -1 -1
-0.0872788570 -0.0392523490 -1 -1
-0.0866206390 -0.0412275900 -1 -1
-0.0860600690 -0.0424654880 -1 -1
-0.0856591620 -0.0428458380 -1 -1
-0.0854619750 -0.0423328370 -1 -1
-0.0854916560 -0.0409799980 -1 -1
-0.0857506050 -0.0389244670 -1 -1
-0.0862207770 -0.0363704030 -1 -1
-0.0868630150 -0.0335631310 -1 -1
-0.0876180020 -0.0307585540 -1 -1
-0.0884117610 -0.0281944730 -1 0
-0.0891655990 -0.0260698060 -1 0
-0.0898074100 -0.0245341450 -1 0
-0.0902810020 -0.0236859410 -1 0
-0.0905511570 -0.0235747150 -1 0
-0.0906030670 -0.0242019500 -1 0
-0.0904370410 -0.0255183370 -1 0
-0.0900630760 -0.0274201870 -1 0
-0.0895012140 -0.0297497980 -1 0
-0.0887890200 -0.0323023920 -1 -1
-0.0879895810 -0.0348407210 -1 -1
-0.0871901660 -0.0371180070 -1 -1
-0.0864882130 -0.0389071250 -1 -1
-0.0859717930 -0.0400300050 -1 -1
-0.0857045320 -0.0403802150 -1 -1
-0.0857188780 -0.0399350270 -1 -1
-0.0860150220 -0.0387570860 -1 -1
-0.0865620280 -0.0369873230 -1 -1
-0.0873010810 -0.0348302380 -1 -1
-0.0881517700 -0.0325323360 -1 -1
-0.0890206950 -0.0303553720 -1 -1
-0.0898110760 -0.0285474470 -1 0
-0.0904330660 -0.0273154790 -1 0
-0.0908147940 -0.0268024210 -1 0
-0.0909129430 -0.0270724680 -1 0
-0.0907200550 -0.0281060430 -1 0
-0.0902652780 -0.0298039440 -1 0
-0.0896068080 -0.0319988660 -1 -1
-0.0888177200 -0.0344727980 -1 -1
-0.0879704410 -0.0369786170 -1 -1
-0.0871258620 -0.0392635650 -1 -1
-0.0863300060 -0.0410921820 -1 -1
-0.0856166300 -0.0422672400 -1 -1
-0.0850122850 -0.0426480890 -1 -1
-0.0845418780 -0.0421659320 -1 -1
-0.0842331850 -0.0408345250 -1 -1
-0.0841176390 -0.0387536610 -1 -1
-0.0842259940 -0.0361032090 -1 -1
-0.0845809170 -0.0331278430 -1 -1
-0.0851892630 -0.0301138830 -1 -1
-0.0860347440 -0.0273595360 -1 0
-0.0870717240 -0.0251407070 -1 0
-0.0882234570 -0.0236769990 -1 0
-0.0893883270 -0.0231043410 -1 0
-0.0904533460 -0.0234596410 -1 0
-0.0913101740 -0.0246791370 -1 0
-0.0918698600 -0.0266087410 -1 0
-0.0920751340 -0.0290232840 -1 0
-0.0919089780 -0.0316511770 -1 -1
-0.0913969460 -0.0342012420 -1 -1
-0.0906023750 -0.0363898060 -1 -1
-0.0896175120 -0.0379673870 -1 -1
-0.0885531390 -0.0387436700 -1 -1
-0.0875253060 -0.0386075350 -1 -1
-0.0866391440 -0.0375385470 -1 -1
-0.0859743420 -0.0356088420 -1 -1
-0.0855761570 -0.0329768150 -1 -1
-0.0854524430 -0.0298738660 -1 0
-0.0855764750 -0.0265845110 -1 0
-0.0858947560 -0.0234202700 -1 0
-0.0863374640 -0.0206886390 -1 0
-0.0868293870 -0.0186601300 -1 0
-0.0873003840 -0.0175388390 -1 0
-0.0876939300 -0.0174427640 -1 0
-0.0879717520 -0.0183960910 -1 0
-0.0881139450 -0.0203311020 -1 0
-0.0881158070 -0.0230970390 -1 0
-0.0879832070 -0.0264743620 -1 0
-0.0877288870 -0.0301923770 -1 -1
-0.0873720960 -0.0339483920 -1 -1
-0.0869419930 -0.0374289860 -1 -1
-0.0864824810 -0.0403353750 -1 -1
-0.0860542760 -0.0424124040 -1 -1
-0.0857304250 -0.0434767120 -1 -1
-0.0855846460 -0.0434387420 -1 -1
-0.0856755460 -0.0423150300 -1 -1
-0.0860320780 -0.0402289000 -1 -1
-0.0866462450 -0.0373988980 -1 -1
-0.0874768400 -0.0341161600 -1 -1
-0.0884623260 -0.0307135890 -1 -1
-0.0895352740 -0.0275309970 -1 0
-0.0906301150 -0.0248806250 -1 0
-0.0916819810 -0.0230162720 -1 0
-0.0926225970 -0.0221082280 -1 0
-0.0933807530 -0.0222267630 -1 0
-0.0938887630 -0.0233366800 -1 0
-0.0940908440 -0.0253035280 -1 0
-0.0939498280 -0.0279100630 -1 0
-0.0934516380 -0.0308801950 -1 -1
-0.0926085440 -0.0339075580 -1 -1
-0.0914618110 -0.0366869850 -1 -1
-0.0900827160 -0.0389470470 -1 -1
-0.0885693530 -0.0404793650 -1 -1
-0.0870366490 -0.0411588070 -1 -1
-0.0856001330 -0.0409508910 -1 -1
-0.0843585400 -0.0399069480 -1 -1
-0.0833811650 -0.0381501110 -1 -1
-0.0827024750 -0.0358560860 -1 -1
-0.0823233580 -0.0332331610 -1 -1
-0.0822174380 -0.0305048610 -1 -1
-0.0823401300 -0.0278955000 -1 0
-0.0826370900 -0.0256163290 -1 0
-0.0830490390 -0.0238502480 -1 0
-0.0835130770 -0.0227358940 -1 0
-0.0839641490 -0.0223543420 -1 0
-0.0843399220 -0.0227211210 -1 0
-0.0845885770 -0.0237844490 -1 0
-0.0846764140 -0.0254295960 -1 0
-0.0845928720 -0.0274889140 -1 0
-0.0843528110 -0.0297562040 -1 0
-0.0839961820 -0.0320035100 -1 -1
-0.0835835790 -0.0339994430 -1 -1
-0.0831868500 -0.0355300690 -1 -1
-0.0828778520 -0.0364228280 -1 -1
-0.0827194800 -0.0365693870 -1 -1
-0.0827595940 -0.0359404050 -1 -1
-0.0830251280 -0.0345883350 -1 -1
-0.0835148660 -0.0326397140 -1 -1
-0.0841948020 -0.0302799960 -1 -1
-0.0850020110 -0.0277327710 -1 0
-0.0858570230 -0.0252358180 -1 0
-0.0866785410 -0.0230179230 -1 0
-0.0873949120 -0.0212792610 -1 0
-0.0879497240 -0.0201755240 -1 0
-0.0883012620 -0.0198046810 -1 0
-0.0884188680 -0.0201960660 -1 0
-0.0882810680 -0.0213039470 -1 0
-0.0878778670 -0.0230097960 -1 0
-0.0872161540 -0.0251362470 -1 0
-0.0863258340 -0.0274706920 -1 0
-0.0852638180 -0.0297915160 -1 0
-0.0841123340 -0.0318902190 -1 -1
-0.0829698130 -0.0335873280 -1 -1
-0.0819372250 -0.0347435450 -1 -1
-0.0811045480 -0.0352676320 -1 -1
-0.0805393450 -0.0351218540 -1 -1
-0.0802784150 -0.0343254120 -1 -1
-0.0803253650 -0.0329551520 -1 -1
-0.0806550820 -0.0311419840 -1 -1
-0.0812209910 -0.0290617390 -1 0
-0.0819606460 -0.0269199270 -1 0
-0.0827999150 -0.0249314260 -1 0
-0.0836585280 -0.0232980620 -1 0
-0.0844573570 -0.0221870120 -1 0
-0.0851253350 -0.0217117510 -1 0
-0.0856052630 -0.0219177340 -1 0
-0.0858590580 -0.0227759090 -1 0
-0.0858712500 -0.0241856810 -1 0
-0.0856491010 -0.0259864610 -1 0
-0.0852202260 -0.0279756450 -1 0
-0.0846295290 -0.0299304890 -1 0
-0.0839358680 -0.0316312330 -1 -1
-0.0832073770 -0.0328833730 -1 -1
-0.0825135370 -0.0335376500 -1 -1
-0.0819139140 -0.0335061720 -1 -1
-0.0814479710 -0.0327725140 -1 -1
-0.0811313120 -0.0313939760 -1 -1
-0.0809590550 -0.0294956370 -1 0
-0.0809121230 -0.0272572710 -1 0
-0.0809622860 -0.0248952440 -1 0
-0.0810754110 -0.0226424370 -1 0
-0.0812143280 -0.0207289060 -1 0
-0.0813413130 -0.0193637010 -1 0
-0.0814194130 -0.0187162510 -1 0
-0.0814140840 -0.0188966940 -1 0
-0.0812973140 -0.0199375960 -1 0
-0.0810535590 -0.0217816690 -1 0
-0.0806841120 -0.0242805730 -1 0
-0.0802073600 -0.0272077900 -1 0
-0.0796557180 -0.0302839930 -1 -1
-0.0790721310 -0.0332091110 -1 -1
-0.0785079750 -0.0356944810 -1 -1
-0.0780218000 -0.0374905260 -1 -1
-0.0776765130 -0.0384086340 -1 -1
-0.0775335450 -0.0383382240 -1 -1
-0.0776451380 -0.0372596460 -1 -1
-0.0780464670 -0.0352509290 -1 -1
-0.0787484500 -0.0324845600 -1 -1
-0.0797318940 -0.0292118760 -1 0
-0.0809437130 -0.0257366490 -1 0
-0.0822973410 -0.0223830310 -1 0
-0.0836811030 -0.0194633220 -1 0
-0.0849751750 -0.0172494100 -1 0
-0.0860705370 -0.0159501220 -1 0
-0.0868814680 -0.0156950390 -1 0
-0.0873501650 -0.0165241870 -1 0
-0.0874491210 -0.0183838820 -1 0
-0.0871851910 -0.0211297880 -1 0
-0.0866017210 -0.0245373540 -1 0
-0.0857733630 -0.0283191530 -1 0
-0.0847943280 -0.0321489590 -1 -1
-0.0837646550 -0.0356919000 -1 -1
-0.0827768220 -0.0386384120 -1 -1
-0.0819037750 -0.0407376010 -1 -1
-0.0811918800 -0.0418241360 -1 -1
-0.0806621290 -0.0418340150 -1 -1
-0.0803173030 -0.0408078300 -1 -1
-0.0801485980 -0.0388827240 -1 -1
-0.0801381210 -0.0362749480 -1 -1
-0.0802587200 -0.0332550840 -1 -1
-0.0804736660 -0.0301190180 -1 -1
-0.0807376110 -0.0271585690 -1 0
-0.0809993810 -0.0246342460 -1 0
-0.0812055560 -0.0227510020 -1 0
-0.0813028120 -0.0216389530 -1 0
-0.0812391400 -0.0213421940 -1 0
-0.0809665050 -0.0218177940 -1 0
-0.0804463320 -0.0229446610 -1 0
-0.0796574440 -0.0245398850 -1 0
-0.0786060000 -0.0263793730 -1 0
-0.0773349040 -0.0282209680 -1 0
-0.0759272650 -0.0298295850 -1 0
-0.0745002730 -0.0310025400 -1 -1
-0.0731905800 -0.0315907480 -1 -1
-0.0721351330 -0.0315118000 -1 -1
-0.0714511340 -0.0307545210 -1 -1
-0.0712177840 -0.0293773230 -1 0
-0.0714629300 -0.0275016980 -1 0
-0.0721583010 -0.0253005080 -1 0
-0.0732248780 -0.0229813970 -1 0
-0.0745460900 -0.0207669670 -1 0
-0.0759845620 -0.0188735570 -1 0
-0.0773999360 -0.0174899360 -1 0
-0.0786663550 -0.0167570720 -1 0
-0.0796859760 -0.0167513760 -1 0
-0.0803945030 -0.0174752550 -1 0
-0.0807590880 -0.0188581830 -1 0
-0.0807724860 -0.0207682590 -1 0
-0.0804476620 -0.0230306900 -1 0
-0.0798166050 -0.0254478510 -1 0
-0.0789345140 -0.0278163700 -1 0
-0.0778848360 -0.0299395750 -1 0
-0.0767780480 -0.0316372570 -1 -1
-0.0757406750 -0.0327564260 -1 -1
-0.0748962660 -0.0331846690 -1 -1
-0.0743441630 -0.0328640680 -1 -1
-0.0741436010 -0.0318024780 -1 -1
-0.0743076920 -0.0300798900 -1 -1
-0.0748055900 -0.0278477480 -1 0
-0.0755681280 -0.0253188280 -1 0
-0.0764950640 -0.0227468840 -1 0
-0.0774658830 -0.0203988130 -1 0
-0.0783557710 -0.0185244870 -1 0
-0.0790545730 -0.0173282360 -1 0
-0.0794830220 -0.0169439980 -1 0
-0.0796011340 -0.0174167220 -1 0
-0.0794089650 -0.0186938490 -1 0
-0.0789441430 -0.0206295910 -1 0
-0.0782777830 -0.0230017040 -1 0
-0.0775057190 -0.0255382230 -1 0
-0.0767339010 -0.0279502130 -1 0
-0.0760614180 -0.0299650900 -1 0
-0.0755655090 -0.0313553990 -1 -1
-0.0752921630 -0.0319606360 -1 -1
-0.0752548270 -0.0317016630 -1 -1
-0.0754408190 -0.0305873460 -1 -1
-0.0758219360 -0.0287129960 -1 0
-0.0763644010 -0.0262506700 -1 0
-0.0770333030 -0.0234318960 -1 0
-0.0777900450 -0.0205239970 -1 0
-0.0785872010 -0.0178025310 -1 0
-0.0793670680 -0.0155234960 -1 0
-0.0800656280 -0.0138985170 -1 0
-0.0806191880 -0.0130750600 -1 0
-0.0809712930 -0.0131231080 -1 0
-0.0810800790 -0.0140290930 -1 0
-0.0809263980 -0.0156969370 -1 0
-0.0805198470 -0.0179562480 -1 0
-0.0798982200 -0.0205781990 -1 0
-0.0791191320 -0.0232979400 -1 0
-0.0782470590 -0.0258399520 -1 0
-0.0773413780 -0.0279431250 -1 0
-0.0764508110 -0.0293847430 -1 0
-0.0756158120 -0.0300029860 -1 -1
-0.0748742560 -0.0297163510 -1 0
-0.0742635080 -0.0285377710 -1 0
-0.0738165220 -0.0265804990 -1 0
-0.0735555320 -0.0240515660 -1 0
-0.0734872330 -0.0212302600 -1 0
-0.0735992950 -0.0184337850 -1 0
-0.0738579720 -0.0159757660 -1 0
-0.0742096770 -0.0141245580 -1 0
-0.0745876630 -0.0130691180 -1 0
-0.0749202390 -0.0128993210 -1 0
-0.0751371340 -0.0136030740 -1 0
-0.0751752420 -0.0150773670 -1 0
-0.0749865080 -0.0171481440 -1 0
-0.0745468310 -0.0195936250 -1 0
-0.0738609210 -0.0221667050 -1 0
-0.0729599490 -0.0246147020 -1 0
-0.0718947820 -0.0266976150 -1 0
-0.0707301890 -0.0282064790 -1 0
-0.0695420840 -0.0289811950 -1 0
-0.0684157530 -0.0289255640 -1 0
-0.0674417380 -0.0280175760 -1 0
-0.0667070210 -0.0263134740 -1 0
-0.0662811100 -0.0239442420 -1 0
-0.0661998050 -0.0211040780 -1 0
-0.0664539440 -0.0180316940 -1 0
-0.0669908710 -0.0149865760 -1 0
-0.0677283080 -0.0122237830 -1 0
-0.0685715200 -0.0099708810 -1 0
-0.0694261640 -0.0084089350 -1 0
-0.0702072860 -0.0076581220 -1 0
-0.0708475700 -0.0077682680 -1 0
-0.0713040540 -0.0087147430 -1 0
-0.0715602390 -0.0104009430 -1 0
-0.0716225580 -0.0126689570 -1 0
-0.0715134960 -0.0153178650 -1 0
-0.0712651020 -0.0181253280 -1 0
-0.0709143170 -0.0208667640 -1 0
-0.0704991170 -0.0233294340 -1 0
-0.0700556710 -0.0253234130 -1 0
-0.0696178510 -0.0266930840 -1 0
-0.0692184120 -0.0273302940 -1 0
-0.0688892760 -0.0271870830 -1 0
-0.0686592810 -0.0262850630 -1 0
-0.0685498090 -0.0247196580 -1 0
-0.0685709940 -0.0226580720 -1 0
-0.0687209730 -0.0203292280 -1 0
-0.0689869180 -0.0180034890 -1 0
-0.0693443730 -0.0159617380 -1 0
-0.0697539730 -0.0144573960 -1 0
-0.0701589320 -0.0136794700 -1 0
-0.0704883220 -0.0137255130 -1 0
-0.0706682490 -0.0145895430 -1 0
-0.0706378420 -0.0161650070 -1 0
-0.0703638480 -0.0182599810 -1 0
-0.0698485220 -0.0206214270 -1 0
-0.0691289760 -0.0229657150 -1 0
-0.0682704960 -0.0250119320 -1 0
-0.0673580610 -0.0265136230 -1 0
-0.0664872710 -0.0272849760 -1 0
-0.0657528850 -0.0272189380 -1 0
-0.0652360490 -0.0262961020 -1 0
-0.0649953550 -0.0245839920 -1 0
-0.0650639690 -0.0222272080 -1 0
-0.0654493340 -0.0194301720 -1 0
