0.0076165440 0.0025459070 0 0
0.0067178710 0.0041387560 0 0
0.0057475580 0.0051326290 0 0
0.0047922830 0.0054537480 0 0
0.0039315600 0.0050944620 0 0
0.0032258120 0.0041125010 0 0
0.0027076740 0.0026240020 0 0
0.0023781090 0.0007913230 0 0
0.0022076880 -0.0011928110 0 0
0.0021421880 -0.0031234530 0 0
0.0021127170 -0.0048025340 0 0
0.0020497180 -0.0060570130 0 0
0.0018973590 -0.0067541550 0 0
0.0016244600 -0.0068132630 0 0
0.0012299090 -0.0062142930 0 0
0.0007407000 -0.0050028940 0 0
0.0002017520 -0.0032898740 0 0
-0.0003385110 -0.0012428140 0 0
-0.0008397850 0.0009307350 0 0
-0.0012747410 0.0030058770 0 0
-0.0016280490 0.0047644930 0 0
-0.0018929120 0.0060177650 0 0
-0.0020676610 0.0066251870 0 0
-0.0021525920 0.0065080930 0 0
-0.0021461740 0.0056562920 0 0
-0.0020415020 0.0041276820 0 0
-0.0018259960 0.0020416480 0 0
-0.0014865240 -0.0004320750 0 0
-0.0010178870 -0.0030876720 0 0
-0.0004295270 -0.0057007400 0 0
0.0002528910 -0.0080490680 0 0
0.0009899860 -0.0099344180 0 0
0.0017326090 -0.0112018700 0 0
0.0024267310 -0.0117547310 0 0
0.0030203240 -0.0115654770 0 0
0.0034715940 -0.0106834990 0 0
0.0037562620 -0.0092374920 0 0
0.0038720940 -0.0074282160 0 0
0.0038394830 -0.0055098850 0 0
0.0036968190 -0.0037624440 0 0
0.0034913620 -0.0024579980 0 0
0.0032704850 -0.0018249210 0 0
0.0030784500 -0.0020157310 0 0
0.0029580390 -0.0030863850 0 0
0.0029521080 -0.0049908050 0 0
0.0031019280 -0.0075888770 0 0
0.0034418220 -0.0106641890 0 0
0.0039904690 -0.0139486560 0 0
0.0047412670 -0.0171510290 0 0
0.0056569500 -0.0199851080 0 0
0.0066723100 -0.0221940640 0 0
0.0077034940 -0.0235697360 0 0
0.0086595990 -0.0239682600 0 0
0.0094540180 -0.0233234510 0 0
0.0100144830 -0.0216564290 0 0
0.0102909730 -0.0190778510 0 0
0.0102613950 -0.0157807320 0 0
0.0099351690 -0.0120245610 0 0
0.0093537760 -0.0081123410 0 0
0.0085864830 -0.0043624110 0 0
0.0077203740 -0.0010784830 0 0
0.0068466630 0.0014772960 0 0
0.0060481240 0.0031050740 0 0
0.0053914120 0.0036826390 0 0
0.0049237010 0.0031776540 0 0
0.0046713290 0.0016556650 0 0
0.0046397860 -0.0007211230 0 0
0.0048148970 -0.0037083220 0 0
0.0051643820 -0.0070061770 0 0
0.0056393510 -0.0102939120 0 0
0.0061758190 -0.0132655060 0 0
0.0066972030 -0.0156611570 0 0
0.0071200630 -0.0172906460 0 0
0.0073646280 -0.0180476110 0 0
0.0073677250 -0.0179153790 0 0
0.0070929670 -0.0169651300 0 0
0.0065345620 -0.0153463420 0 0
0.0057151240 -0.0132693690 0 0
0.0046811400 -0.0109820350 0 0
0.0034996270 -0.0087446240 0 0
0.0022551860 -0.0068068500 0 0
0.0010436510 -0.0053875360 0 0
-0.0000382283 -0.0046572270 0 0
-0.0009027030 -0.0047250600 0 0
-0.0014772750 -0.0056303800 0 0
-0.0017089640 -0.0073383660 0 0
-0.0015692070 -0.0097398960 0 0
-0.0010586760 -0.0126574840 0 0
-0.0002097720 -0.0158590630 0 0
0.0009140280 -0.0190795510 0 0
0.0022217000 -0.0220474460 0 0
0.0036018600 -0.0245122680 0 0
0.0049347920 -0.0262691970 0 0
0.0061081160 -0.0271786980 0 0
0.0070320950 -0.0271793520 0 0
0.0076504770 -0.0262921580 0 0
0.0079447800 -0.0246163130 0 0
0.0079318320 -0.0223180960 0 0
0.0076554570 -0.0196144700 0 0
0.0071744260 -0.0167530510 0 0
0.0065503600 -0.0139908690 0 0
0.0058396810 -0.0115739010 0 0
0.0050915750 -0.0097176370 0 0
0.0043510310 -0.0085885860 0 0
0.0036634990 -0.0082879750 0 0
0.0030763450 -0.0088399800 0 0
0.0026338960 -0.0101869260 0 0
0.0023678110 -0.0121928410 0 0
0.0022883340 -0.0146553180 0 0
0.0023806720 -0.0173250010 0 0
0.0026070670 -0.0199314080 0 0
0.0029133510 -0.0222118570 0 0
0.0032382490 -0.0239391790 0 0
0.0035225510 -0.0249454540 0 0
0.0037159280 -0.0251402920 0 0
0.0037820080 -0.0245210300 0 0
0.0037029380 -0.0231720450 0 0
0.0034819580 -0.0212532350 0 0
0.0031418200 -0.0189808580 0 0
0.0027197700 -0.0166045590 0 0
0.0022611650 -0.0143835320 0 0
0.0018128240 -0.0125633840 0 0
0.0014172830 -0.0113540190 0 0
0.0011097530 -0.0109088900 0 0
0.0009178650 -0.0113075490 0 0
0.0008621130 -0.0125440770 0 0
0.0009550260 -0.0145235220 0 0
0.0011988620 -0.0170681830 0 0
0.0015842960 -0.0199347770 0 0
0.0020932700 -0.0228408440 0 0
0.0027037480 -0.0254957540 0 0
0.0033895740 -0.0276314850 0 0
0.0041150110 -0.0290301650 0 0
0.0048316600 -0.0295458920 0 0
0.0054831130 -0.0291183750 0 0
0.0060156810 -0.0277783890 0 0
0.0063905790 -0.0256469270 0 0
0.0065928600 -0.0229280110 0 0
0.0066337350 -0.0198923330 0 0
0.0065467460 -0.0168498520 0 0
0.0063816890 -0.0141135840 0 0
0.0061992290 -0.0119603870 0 0
0.0060659190 -0.0105952770 0 0
0.0060486100 -0.0101250080 0 0
0.0062087320 -0.0105458430 0 0
0.0065967020 -0.0117481700 0 0
0.0072454510 -0.0135366480 0 0
0.0081634300 -0.0156609060 0 0
0.0093301150 -0.0178499590 0 0
0.0106961750 -0.0198437670 0 0
0.0121867680 -0.0214179070 0 0
0.0137061580 -0.0224008350 0 0
0.0151452720 -0.0226847600 0 0
0.0163939870 -0.0222305370 0 0
0.0173555270 -0.0210668600 0 0
0.0179588680 -0.0192845290 0 0
0.0181674050 -0.0170265500 0 0
0.0179834290 -0.0144751980 0 0
0.0174476150 -0.0118375810 0 0
0.0166334580 -0.0093302050 0 0
0.0156378730 -0.0071622950 0 0
0.0145688070 -0.0055184110 0 0
0.0135309290 -0.0045416320 0 0
0.0126131520 -0.0043187470 0 0
0.0118820930 -0.0048690910 0 0
0.0113812260 -0.0061388910 0 0
0.0111330460 -0.0080026420 0 0
0.0111421610 -0.0102726170 0 0
0.0113970080 -0.0127167450 0 0
0.0118684510 -0.0150830570 0 0
0.0125071540 -0.0171267960 0 0
0.0132446860 -0.0186366240 0 0
0.0140009230 -0.0194574850 0 0
0.0146945540 -0.0195074320 0 0
0.0152515480 -0.0187858760 0 0
0.0156105180 -0.0173727940 0 0
0.0157272600 -0.0154205300 0 0
0.0155796850 -0.0131397430 0 0
0.0151726020 -0.0107801750 0 0
0.0145411200 -0.0086074230 0 0
0.0137498240 -0.0068774970 0 0
0.0128837850 -0.0058114790 0 0
0.0120322160 -0.0055739430 0 0
0.0112730650 -0.0062586700 0 0
0.0106661390 -0.0078817850 0 0
0.0102531800 -0.0103795810 0 0
0.0100581870 -0.0136088770 0 0
0.0100853460 -0.0173512190 0 0
0.0103168640 -0.0213251360 0 0
0.0107124790 -0.0252094330 0 0
0.0112103710 -0.0286752810 0 0
0.0117301450 -0.0314212430 0 -1
0.0121795330 -0.0332056890 0 -1
0.0124645910 -0.0338722580 0 -1
0.0125022000 -0.0333652140 0 -1
0.0122341450 -0.0317337320 0 -1
0.0116397510 -0.0291258000 0 0
0.0107416990 -0.0257726230 0 0
0.0096029660 -0.0219652780 0 0
0.0083182290 -0.0180264680 0 0
0.0070031440 -0.0142803250 0 0
0.0057816890 -0.0110228440 0 0
0.0047714170 -0.0084950200 0 0
0.0040688510 -0.0068605760 0 0
0.0037382740 -0.0061911300 0 0
0.0038061270 -0.0064618840 0 0
0.0042610660 -0.0075589890 0 0
0.0050578490 -0.0092970950 0 0
0.0061233090 -0.0114431330 0 0
0.0073635900 -0.0137413410 0 0
0.0086718700 -0.0159363460 0 0
0.0099355510 -0.0177939410 0 0
0.0110428680 -0.0191205550 0 0
0.0118907750 -0.0197811160 0 0
0.0123960620 -0.0197130280 0 0
0.0125079640 -0.0189335990 0 0
0.0122167980 -0.0175390150 0 0
0.0115546890 -0.0156938690 0 0
0.0105893580 -0.0136124270 0 0
0.0094143100 -0.0115350940 0 0
0.0081374750 -0.0097039340 0 0
0.0068686670 -0.0083390650 0 0
0.0057068540 -0.0076156760 0 0
0.0047295330 -0.0076427330 0 0
0.0039865060 -0.0084484390 0 0
0.0034982880 -0.0099783610 0 0
0.0032574380 -0.0121063870 0 0
0.0032318710 -0.0146520070 0 0
0.0033701740 -0.0173974370 0 0
0.0036077010 -0.0201034650 0 0
0.0038725900 -0.0225268400 0 0
0.0040928090 -0.0244412140 0 0
0.0042034910 -0.0256601350 0 0
0.0041516400 -0.0260580230 0 0
0.0038984390 -0.0255856480 0 0
0.0034226280 -0.0242788760 0 0
0.0027261480 -0.0222602310 0 0
0.0018393060 -0.0197315900 0 0
0.0008215720 -0.0169555230 0 0
-0.0002441000 -0.0142250880 0 0
-0.0012624800 -0.0118269070 0 0
-0.0021393840 -0.0100061800 0 0
-0.0027934320 -0.0089408370 0 0
-0.0031641660 -0.0087269530 0 0
-0.0032158030 -0.0093742870 0 0
-0.0029377120 -0.0108104600 0 0
-0.0023445810 -0.0128921460 0 0
-0.0014776180 -0.0154209660 0 0
-0.0004041100 -0.0181619180 0 0
0.0007880610 -0.0208634090 0 0
0.0020007540 -0.0232790200 0 0
0.0031375380 -0.0251902420 0 0
0.0041149680 -0.0264280480 0 0
0.0048721770 -0.0268907580 0 0
0.0053767270 -0.0265553100 0 0
0.0056246760 -0.0254791240 0 0
0.0056359250 -0.0237921460 0 0
0.0054484880 -0.0216817960 0 0
0.0051150900 -0.0193744160 0 0
0.0047021170 -0.0171153200 0 0
0.0042859200 -0.0151476100 0 0
0.0039426210 -0.0136892150 0 0
0.0037356720 -0.0129091610 0 0
0.0037084600 -0.0129066270 0 0
0.0038840280 -0.0136971360 0 0
0.0042687580 -0.0152090590 0 0
0.0048559520 -0.0172915940 0 0
0.0056269260 -0.0197331100 0 0
0.0065498090 -0.0222860740 0 0
0.0075775660 -0.0246933390 0 0
0.0086469970 -0.0267120600 0 0
0.0096812910 -0.0281343850 0 0
0.0105986490 -0.0288053220 0 0
0.0113257930 -0.0286371900 0 0
0.0118108050 -0.0276188470 0 0
0.0120299290 -0.0258178140 0 0
0.0119875460 -0.0233740690 0 0
0.0117118170 -0.0204854110 0 0
0.0112482840 -0.0173861310 0 0
0.0106528070 -0.0143227660 0 0
0.0099856760 -0.0115310990 0 0
0.0093080620 -0.0092171510 0 0
0.0086793900 -0.0075435190 0 0
0.0081528570 -0.0066212630 0 0
0.0077692280 -0.0065061050 0 0
0.0075530460 -0.0071963030 0 0
0.0075140050 -0.0086299420 0 0
0.0076506070 -0.0106823020 0 0
0.0079514010 -0.0131672290 0 0
0.0083932490 -0.0158468010 0 0
0.0089398750 -0.0184512490 0 0
0.0095438690 -0.0207080690 0 0
0.0101526760 -0.0223758690 0 0
0.0107167330 -0.0232755480 0 0
0.0111980280 -0.0233119420 0 0
0.0115775480 -0.0224835730 0 0
0.0118587100 -0.0208819460 0 0
0.0120645160 -0.0186817580 0 0
0.0122299210 -0.0161222320 0 0
0.0123933460 -0.0134812400 0 0
0.0125899840 -0.0110457090 0 0
0.0128470860 -0.0090812580 0 0
0.0131804610 -0.0078035540 0 0
0.0135921420 -0.0073546640 0 0
0.0140708290 -0.0077877560 0 0
0.0145969450 -0.0090620370 0 0
0.0151504540 -0.0110482400 0 0
0.0157159570 -0.0135440680 0 0
0.0162820190 -0.0162983410 0 0
0.0168359870 -0.0190414470 0 0
0.0173568920 -0.0215175600 0 0
0.0178095180 -0.0235127050 0 0
0.0181430870 -0.0248739040 0 0
0.0182962710 -0.0255177940 0 0
0.0182071010 -0.0254298480 0 0
0.0178245120 -0.0246572210 0 0
0.0171191850 -0.0232991180 0 0
0.0160925190 -0.0214972520 0 0
0.0147816530 -0.0194263160 0 0
0.0132578910 -0.0172829300 0 0
0.0116178330 -0.0152720060 0 0
0.0099698390 -0.0135904740 0 0
0.0084206320 -0.0124086560 0 0
0.0070659690 -0.0118503970 0 0
0.0059853640 -0.0119753270 0 0
0.0052374430 -0.0127677780 0 0
0.0048538490 -0.0141353850 0 0
0.0048334520 -0.0159188460 0 0
0.0051397910 -0.0179128940 0 0
0.0057036780 -0.0198953140 0 0
0.0064308290 -0.0216578940 0 0
0.0072123800 -0.0230327210 0 0
0.0079366570 -0.0239087230 0 0
0.0085016900 -0.0242366500 0 0
0.0088266410 -0.0240250770 0 0
0.0088595500 -0.0233325220 0 0
0.0085807280 -0.0222592240 0 0
0.0080024490 -0.0209391700 0 0
0.0071658940 -0.0195314430 0 0
0.0061363920 -0.0182093020 0 0
0.0049966870 -0.0171452610 0 0
0.0038371990 -0.0164919600 0 0
0.0027443620 -0.0163616050 0 0
0.0017907160 -0.0168090850 0 0
0.0010301640 -0.0178235800 0 0
0.0004984540 -0.0193299970 0 0
0.0002154260 -0.0211980420 0 0
0.0001851970 -0.0232559580 0 0
0.0003937140 -0.0253070320 0 0
0.0008073490 -0.0271477220 0 0
0.0013758640 -0.0285860500 0 0
0.0020387330 -0.0294588000 0 0
0.0027315450 -0.0296465850 0 0
0.0033912430 -0.0290858280 0 0
0.0039612680 -0.0277765480 0 0
0.0043969310 -0.0257851390 0 0
0.0046690770 -0.0232413390 0 0
0.0047642760 -0.0203286120 0 0
0.0046829520 -0.0172689170 0 0
0.0044390370 -0.0143043080 0 0
0.0040626460 -0.0116764450 0 0
0.0036034660 -0.0096037180 0 0
0.0031300780 -0.0082574980 0 0
0.0027210200 -0.0077421810 0 0
0.0024489940 -0.0080840470 0 0
0.0023655470 -0.0092302080 0 0
0.0024919900 -0.0110552820 0 0
0.0028179110 -0.0133733400 0 0
0.0033075890 -0.0159547250 0 0
0.0039120900 -0.0185478510 0 0
0.0045803300 -0.0209041810 0 0
0.0052633120 -0.0228030530 0 0
0.0059119490 -0.0240734890 0 0
0.0064740500 -0.0246106980 0 0
0.0068963190 -0.0243849400 0 0
0.0071318950 -0.0234415440 0 0
0.0071486090 -0.0218930490 0 0
0.0069341730 -0.0199062750 0 0
0.0064992810 -0.0176872720 0 0
0.0058795900 -0.0154655600 0 0
0.0051344540 -0.0134770530 0 0
0.0043411180 -0.0119447260 0 0
0.0035862510 -0.0110573990 0 0
0.0029570350 -0.0109485080 0 0
0.0025322850 -0.0116778610 0 0
0.0023728620 -0.0132198000 0 0
0.0025119800 -0.0154606700 0 0
0.0029495760 -0.0182074340 0 0
0.0036552060 -0.0212074580 0 0
0.0045776090 -0.0241771400 0 0
0.0056534100 -0.0268349370 0 0
0.0068102560 -0.0289333620 0 0
0.0079671380 -0.0302853730 0 -1
0.0090371520 -0.0307828700 0 -1
0.0099343500 -0.0304065880 0 -1
0.0105832300 -0.0292268600 0 0
0.0109288580 -0.0273946270 0 0
0.0109457610 -0.0251226850 0 0
0.0106440020 -0.0226593710 0 0
0.0100710000 -0.0202598640 0 0
0.0093068010 -0.0181600680 0 0
0.0084509720 -0.0165550700 0 0
0.0076036100 -0.0155824990 0 0
0.0068474800 -0.0153114350 0 0
0.0062379070 -0.0157377350 0 0
0.0058020710 -0.0167864490 0 0
0.0055447450 -0.0183214560 0 0
0.0054556580 -0.0201615730 0 0
0.0055145720 -0.0221017970 0 0
0.0056927400 -0.0239374300 0 0
0.0059521590 -0.0254867470 0 0
0.0062456690 -0.0266073210 0 0
0.0065199610 -0.0272041620 0 0
0.0067207630 -0.0272316150 0 0
0.0067981740 -0.0266924020 0 0
0.0067121510 -0.0256359530 0 0
0.0064395170 -0.0241560310 0 0
0.0059806260 -0.0223866660 0 0
0.0053606960 -0.0204961550 0 0
0.0046236950 -0.0186788180 0 0
0.0038221590 -0.0171420860 0 0
0.0030084930 -0.0160864280 0 0
0.0022315280 -0.0156794680 0 0
0.0015379650 -0.0160299740 0 0
0.0009752660 -0.0171684310 0 0
0.0005920850 -0.0190383920 0 0
0.0004330980 -0.0214992850 0 0
0.0005287690 -0.0243396960 0 0
0.0008853890 -0.0272994140 0 0
0.0014800540 -0.0300972310 0 -1
0.0022612540 -0.0324608640 0 -1
0.0031547190 -0.0341559000 0 -1
0.0040739270 -0.0350107070 0 -1
0.0049327840 -0.0349342020 0 -1
0.0056575500 -0.0339240070 0 -1
0.0061959120 -0.0320643600 0 -1
0.0065212100 -0.0295156590 0 0
0.0066315030 -0.0264987080 0 0
0.0065462380 -0.0232754710 0 0
0.0063039900 -0.0201267530 0 0
0.0059616580 -0.0173272380 0 0
0.0055914320 -0.0151194730 0 0
0.0052723780 -0.0136894380 0 0
0.0050781520 -0.0131465250 0 0
0.0050646280 -0.0135105120 0 0
0.0052605220 -0.0147080870 0 0
0.0056634260 -0.0165807990 0 0
0.0062419110 -0.0189038650 0 0
0.0069424160 -0.0214124850 0 0
0.0076986960 -0.0238312340 0 0
0.0084412680 -0.0259024590 0 0
0.0091053210 -0.0274103470 0 0
0.0096378580 -0.0281989360 0 0
0.0100045800 -0.0281841420 0 0
0.0101939850 -0.0273595340 0 0
0.0102152820 -0.0257946770 0 0
0.0100908230 -0.0236262630 0 0
0.0098481220 -0.0210444180 0 0
0.0095153350 -0.0182768570 0 0
0.0091197860 -0.0155724660 0 0
0.0086886410 -0.0131840380 0 0
0.0082521910 -0.0113487120 0 0
0.0078473310 -0.0102657030 0 0
0.0075158420 -0.0100732830 0 0
0.0072960330 -0.0108287350 0 0
0.0072133200 -0.0124956680 0 0
0.0072758490 -0.0149424100 0 0
0.0074749420 -0.0179533180 0 0
0.0077859210 -0.0212523530 0 0
0.0081681080 -0.0245360010 0 0
0.0085673040 -0.0275104910 0 0
0.0089230830 -0.0299268300 0 0
0.0091791820 -0.0316075330 0 -1
0.0092930240 -0.0324610400 0 -1
0.0092415610 -0.0324827060 0 -1
0.0090229770 -0.0317445970 0 -1
0.0086546710 -0.0303786650 0 -1
0.0081684730 -0.0285576810 0 0
0.0076054690 -0.0264768890 0 0
0.0070120210 -0.0243379180 0 0
0.0064361030 -0.0223352180 0 0
0.0059234810 -0.0206445080 0 0
0.0055146310 -0.0194130520 0 0
0.0052422200 -0.0187515930 0 0
0.0051287170 -0.0187266530 0 0
0.0051859620 -0.0193514160 0 0
0.0054178040 -0.0205759860 0 0
0.0058224840 -0.0222820800 0 0
0.0063906150 -0.0242882270 0 0
0.0070995550 -0.0263675820 0 0
0.0079084670 -0.0282749990 0 0
0.0087573100 -0.0297771540 0 0
0.0095707510 -0.0306798050 0 -1
0.0102662030 -0.0308484670 0 -1
0.0107637050 -0.0302211470 0 -1
0.0109963980 -0.0288133690 0 0
0.0109219430 -0.0267163720 0 0
0.0105329170 -0.0240890790 0 0
0.0098613830 -0.0211436470 0 0
0.0089749900 -0.0181246150 0 0
0.0079673040 -0.0152834120 0 0
0.0069469400 -0.0128521510 0 0
0.0060266440 -0.0110211250 0 0
0.0053110660 -0.0099225440 0 0
0.0048845380 -0.0096205980 0 0
0.0048022730 -0.0101070270 0 0
0.0050861490 -0.0113022710 0 0
0.0057243130 -0.0130628810 0 0
0.0066740620 -0.0151952170 0 0
0.0078661960 -0.0174750160 0 0
0.0092083140 -0.0196719970 0 0
0.0105883520 -0.0215767320 0 0
0.0118831410 -0.0230247970 0 0
0.0129745330 -0.0239128870 0 0
0.0137695150 -0.0242037010 0 0
0.0142163550 -0.0239201500 0 0
0.0143101600 -0.0231328590 0 0
0.0140873120 -0.0219466520 0 0
0.0136140970 -0.0204906540 0 0
0.0129757500 -0.0189128550 0 0
0.0122678470 -0.0173753070 0 0
0.0115880240 -0.0160445900 0 0
0.0110262160 -0.0150762160 0 0
0.0106542070 -0.0145969120 0 0
0.0105174150 -0.0146893250 0 0
0.0106314460 -0.0153809170 0 0
0.0109830510 -0.0166377660 0 0
0.0115331410 -0.0183645910 0 0
0.0122203150 -0.0204118480 0 0
0.0129651460 -0.0225893890 0 0
0.0136767550 -0.0246851810 0 0
0.0142626080 -0.0264866850 0 0
0.0146403660 -0.0278023310 0 0
0.0147490370 -0.0284816360 0 0
0.0145561850 -0.0284333030 0 0
0.0140593840 -0.0276392390 0 0
0.0132836980 -0.0261607400 0 0
0.0122784640 -0.0241335740 0 0
0.0111136490 -0.0217515500 0 0
0.0098737560 -0.0192419580 0 0
0.0086489630 -0.0168386590 0 0
0.0075258760 -0.0147579250 0 0
0.0065808100 -0.0131793290 0 0
0.0058762680 -0.0122318250 0 0
0.0054586310 -0.0119840070 0 0
0.0053549100 -0.0124372990 0 0
0.0055688180 -0.0135221790 0 0
0.0060783480 -0.0151000570 0 0
0.0068365820 -0.0169738450 0 0
0.0077754690 -0.0189079400 0 0
0.0088112800 -0.0206551410 0 0
0.0098507540 -0.0219860440 0 0
0.0107982560 -0.0227161570 0 0
0.0115645530 -0.0227274270 0 0
0.0120764310 -0.0219833450 0 0
0.0122855920 -0.0205378180 0 0
0.0121748380 -0.0185359500 0 0
0.0117585920 -0.0162025580 0 0
0.0110767850 -0.0138161120 0 0
0.0101865140 -0.0116711000 0 0
0.0091564630 -0.0100363660 0 0
0.0080634890 -0.0091183010 0 0
0.0069880610 -0.0090361570 0 0
0.0060075370 -0.0098127610 0 0
0.0051882550 -0.0113789840 0 0
0.0045778080 -0.0135872520 0 0
0.0041992330 -0.0162303530 0 0
0.0040487270 -0.0190640170 0 0
0.0040978200 -0.0218318070 0 0
0.0042994100 -0.0242893070 0 0
0.0045948460 -0.0262242030 0 0
0.0049195150 -0.0274716920 0 0
0.0052073850 -0.0279274660 0 0
0.0053965790 -0.0275584470 0 0
0.0054362070 -0.0264072540 0 0
0.0052926030 -0.0245870870 0 0
0.0049535760 -0.0222682950 0 0
0.0044310290 -0.0196600560 0 0
0.0037610580 -0.0169895260 0 0
0.0029986040 -0.0144802540 0 0
0.0022065170 -0.0123327320 0 0
0.0014435990 -0.0107099810 0 0
0.0007562510 -0.0097278710 0 0
0.0001757060 -0.0094475510 0 0
-0.0002787270 -0.0098696450 0 0
-0.0005921210 -0.0109326730 0 0
-0.0007468900 -0.0125175900 0 0
-0.0007217240 -0.0144580810 0 0
-0.0004982170 -0.0165552260 0 0
-0.0000718053 -0.0185950820 0 0
0.0005380080 -0.0203677010 0 0
0.0012829630 -0.0216858560 0 0
0.0020916660 -0.0224028070 0 0
0.0028864590 -0.0224293850 0 0
0.0036043860 -0.0217496810 0 0
0.0042106530 -0.0204329750 0 0
0.0046976040 -0.0186376950 0 0
0.0050728850 -0.0166016650 0 0
0.0053472130 -0.0146153550 0 0
0.0055290160 -0.0129816700 0 0
0.0056259140 -0.0119710710 0 0
0.0056492860 -0.0117816490 0 0
0.0056181140 -0.0125119050 0 0
0.0055595920 -0.0141502280 0 0
0.0055062560 -0.0165801580 0 0
0.0054917900 -0.0195974450 0 0
0.0055476330 -0.0229348620 0 0
0.0056998740 -0.0262913750 0 0
0.0059653970 -0.0293621080 0 0
0.0063489080 -0.0318655850 0 -1
0.0068419040 -0.0335666580 0 -1
0.0074216710 -0.0342955240 0 -1
0.0080500880 -0.0339626510 0 -1
0.0086753780 -0.0325675060 0 -1
0.0092384810 -0.0301990690 0 -1
0.0096818670 -0.0270277890 0 0
0.0099572200 -0.0232903750 0 0
0.0100306230 -0.0192693680 0 0
0.0098866170 -0.0152692450 0 0
0.0095325570 -0.0115906980 0 0
0.0090024570 -0.0085051000 0 0
0.0083574020 -0.0062316020 0 0
0.0076795870 -0.0049192670 0 0
0.0070599180 -0.0046352130 0 0
0.0065827430 -0.0053584730 0 0
0.0063130950 -0.0069800910 0 0
0.0062905070 -0.0093108950 0 0
0.0065287190 -0.0120978480 0 0
0.0070169850 -0.0150485960 0 0
0.0077201600 -0.0178619630 0 0
0.0085788290 -0.0202600830 0 0
0.0095125220 -0.0220171560 0 0
0.0104275850 -0.0229808820 0 0
0.0112286670 -0.0230841180 0 0
0.0118314080 -0.0223459200 0 0
0.0121738510 -0.0208636750 0 0
0.0122243860 -0.0188001230 0 0
0.0119847180 -0.0163681450 0 0
0.0114879790 -0.0138138310 0 0
0.0107938500 -0.0113969100 0 0
0.0099822240 -0.0093674860 0 0
0.0091454420 -0.0079398760 0 0
0.0083786890 -0.0072675410 0 0
0.0077692100 -0.0074248600 0 0
0.0073860440 -0.0084002310 0 0
0.0072724250 -0.0101013010 0 0
0.0074423490 -0.0123695700 0 0
0.0078802260 -0.0150001540 0 0
0.0085414970 -0.0177627140 0 0
0.0093555400 -0.0204206560 0 0
0.0102334040 -0.0227475230 0 0
0.0110787350 -0.0245416910 0 0
0.0117987510 -0.0256412130 0 0
0.0123148570 -0.0259394250 0 0
0.0125724500 -0.0253997890 0 0
0.0125471690 -0.0240661740 0 0
0.0122444670 -0.0220636570 0 0
0.0116912610 -0.0195867360 0 0
0.0109229220 -0.0168759880 0 0
0.0099732690 -0.0141880410 0 0
0.0088738400 -0.0117659770 0 0
0.0076612900 -0.0098159930 0 0
0.0063850650 -0.0084917630 0 0
0.0051081530 -0.0078843810 0 0
0.0039006950 -0.0080164620 0 0
0.0028320690 -0.0088412490 0 0
0.0019657930 -0.0102481020 0 0
0.0013556410 -0.0120748450 0 0
0.0010381660 -0.0141260360 0 0
0.0010214120 -0.0161946340 0 0
0.0012765670 -0.0180839190 0 0
0.0017397190 -0.0196269700 0 0
0.0023240710 -0.0207011370 0 0
0.0029365200 -0.0212351920 0 0
0.0034920810 -0.0212093940 0 0
0.0039236000 -0.0206515660 0 0
0.0041879630 -0.0196317900 0 0
0.0042706620 -0.0182559370 0 0
0.0041884120 -0.0166575920 0 0
0.0039870350 -0.0149887670 0 0
0.0037326310 -0.0134102400 0 0
0.0034992440 -0.0120815550 0 0
0.0033590390 -0.0111499150 0 0
0.0033761640 -0.0107378550 0 0
0.0036008680 -0.0109301500 0 0
0.0040635840 -0.0117597010 0 0
0.0047719670 -0.0131930430 0 0
0.0057108570 -0.0151203300 0 0
0.0068419550 -0.0173569720 0 0
0.0081025560 -0.0196605930 0 0
0.0094067830 -0.0217608640 0 0
0.0106525590 -0.0233958420 0 0
0.0117337750 -0.0243472070 0 0
0.0125538210 -0.0244682160 0 0
0.0130360490 -0.0237008970 0 0
0.0131295520 -0.0220811160 0 0
0.0128125430 -0.0197320480 0 0
0.0120960010 -0.0168489240 0 0
0.0110265970 -0.0136788210 0 0
0.0096853600 -0.0104976350 0 0
0.0081801030 -0.0075845160 0 0
0.0066326640 -0.0051936760 0 0
0.0051634950 -0.0035254980 0 0
0.0038769430 -0.0027024140 0 0
0.0028518560 -0.0027557660 0 0
0.0021404380 -0.0036256890 0 0
0.0017726540 -0.0051722120 0 0
0.0017603480 -0.0071948050 0 0
0.0020981380 -0.0094571840 0 0
0.0027619480 -0.0117134890 0 0
0.0037063150 -0.0137325340 0 0
0.0048613120 -0.0153179110 0 0
0.0061320740 -0.0163226660 0 0
0.0074046960 -0.0166584200 0 0
0.0085583110 -0.0162999090 0 0
0.0094801180 -0.0152860100 0 0
0.0100813910 -0.0137167410 0 0
0.0103120460 -0.0117445980 0 0
0.0101681160 -0.0095602520 0 0
0.0096884180 -0.0073753690 0 0
0.0089442980 -0.0054058450 0 0
0.0080287120 -0.0038564090 0 0
0.0070452850 -0.0029049800 0 0
0.0060951520 -0.0026852830 0 0
0.0052636500 -0.0032693020 0 0
0.0046114580 -0.0046535750 0 0
0.0041719480 -0.0067532020 0 0
0.0039529580 -0.0094059370 0 0
0.0039406970 -0.0123870070 0 0
0.0041042870 -0.0154329680 0 0
0.0043996430 -0.0182706540 0 0
0.0047723970 -0.0206469470 0 0
0.0051614950 -0.0223564660 0 0
0.0055051590 -0.0232649210 0 0
0.0057483180 -0.0233253670 0 0
0.0058486420 -0.0225845050 0 0
0.0057792160 -0.0211777640 0 0
0.0055279160 -0.0193134920 0 0
0.0050957170 -0.0172475720 0 0
0.0044981420 -0.0152517130 0 0
0.0037705270 -0.0135812110 0 0
0.0029706320 -0.0124475730 0 0
0.0021725790 -0.0119980040 0 0
0.0014544890 -0.0123015860 0 0
0.0008868740 -0.0133429270 0 0
0.0005260920 -0.0150250890 0 0
0.0004115450 -0.0171820850 0 0
0.0005616010 -0.0195980630 0 0
0.0009661360 -0.0220294070 0 0
0.0015803190 -0.0242274930 0 0
0.0023255000 -0.0259609030 0 0
0.0030988410 -0.0270360450 0 0
0.0037904600 -0.0273150760 0 0
0.0043046650 -0.0267293200 0 0
0.0045780420 -0.0252864750 0 0
0.0045864700 -0.0230718450 0 0
0.0043399460 -0.0202446070 0 0
0.0038720530 -0.0170280860 0 0
0.0032312000 -0.0136913870 0 0
0.0024756860 -0.0105222210 0 0
0.0016712440 -0.0077949230 0 0
0.0008883740 -0.0057397630 0 0
0.0001970950 -0.0045195170 0 0
-0.0003405160 -0.0042168190 0 0
-0.0006769320 -0.0048314190 0 0
-0.0007822770 -0.0062839540 0 0
-0.0006439590 -0.0084239810 0 0
-0.0002652420 -0.0110418430 0 0
0.0003347420 -0.0138845180 0 0
0.0011197510 -0.0166754130 0 0
0.0020360830 -0.0191379540 0 0
0.0030146200 -0.0210226880 0 0
0.0039760210 -0.0221356190 0 0
0.0048387890 -0.0223624100 0 0
0.0055281100 -0.0216827170 0 0
0.0059830100 -0.0201721650 0 0
0.0061606990 -0.0179929080 0 0
0.0060388900 -0.0153744720 0 0
0.0056190420 -0.0125863100 0 0
0.0049328320 -0.0099059820 0 0
0.0040488340 -0.0075898310 0 0
0.0030718300 -0.0058507800 0 0
0.0021302380 -0.0048429830 0 0
0.0013554210 -0.0046513520 0 0
0.0008611330 -0.0052853690 0 0
0.0007285330 -0.0066781160 0 0
0.0009975340 -0.0086922570 0 0
0.0016634590 -0.0111341930 0 0
0.0026778940 -0.0137751180 0 0
0.0039536980 -0.0163752120 0 0
0.0053758400 -0.0187073180 0 0
0.0068179020 -0.0205777140 0 0
0.0081593000 -0.0218419230 0 0
0.0092973440 -0.0224142930 0 0
0.0101530280 -0.0222724940 0 0
0.0106739440 -0.0214587540 0 0
0.0108374500 -0.0200772470 0 0
0.0106534460 -0.0182857830 0 0
0.0101640570 -0.0162815930 0 0
0.0094391470 -0.0142826150 0 0
0.0085685330 -0.0125059830 0 0
0.0076516090 -0.0111455880 0 0
0.0067856120 -0.0103515040 0 0
0.0060552590 -0.0102143650 0 0
0.0055257070 -0.0107564070 0 0
0.0052383480 -0.0119289700 0 0
0.0052093200 -0.0136156580 0 0
0.0054319020 -0.0156415710 0 0
0.0058825120 -0.0177897300 0 0
0.0065275580 -0.0198244390 0 0
0.0073279410 -0.0215193980 0 0
0.0082391740 -0.0226869020 0 0
0.0092083310 -0.0232034100 0 0
0.0101720990 -0.0230264640 0 0
0.0110589930 -0.0221992340 0 0
0.0117957580 -0.0208421600 0 0
0.0123171820 -0.0191347870 0 0
0.0125771200 -0.0172928440 0 0
0.0125561000 -0.0155446560 0 0
0.0122630160 -0.0141088770 0 0
0.0117342090 -0.0131743150 0 0
0.0110329990 -0.0128818750 0 0
0.0102470270 -0.0133082990 0 0
0.0094799200 -0.0144532430 0 0
0.0088379910 -0.0162341930 0 0
0.0084142510 -0.0184932300 0 0
0.0082720350 -0.0210151000 0 0
0.0084331230 -0.0235519360 0 0
0.0088763710 -0.0258498870 0 0
0.0095471340 -0.0276742890 0 0
0.0103698780 -0.0288307780 0 0
0.0112572470 -0.0291805650 0 0
0.0121166700 -0.0286496480 0 0
0.0128584510 -0.0272330900 0 0
0.0134051060 -0.0249956370 0 0
0.0136990040 -0.0220687430 0 0
0.0137072420 -0.0186429050 0 0
0.0134240820 -0.0149541540 0 0
0.0128698720 -0.0112646660 0 0
0.0120860370 -0.0078395280 0 0
0.0111296940 -0.0049227480 0 0
0.0100709940 -0.0027149090 0 0
0.0089910620 -0.0013544140 0 0
0.0079768570 -0.0009049700 0 0
0.0071127140 -0.0013518460 0 0
0.0064711840 -0.0026071070 0 0
0.0061053270 -0.0045210460 0 0
0.0060432270 -0.0068961320 0 0
0.0062854760 -0.0095020560 0 0
0.0068058650 -0.0120927670 0 0
0.0075538810 -0.0144262180 0 0
0.0084581960 -0.0162857580 0 0
0.0094326010 -0.0175006650 0 0
0.0103852190 -0.0179629500 0 0
0.0112295390 -0.0176385770 0 0
0.0118949730 -0.0165724060 0 0
0.0123349060 -0.0148863010 0 0
0.0125307230 -0.0127692060 0 0
0.0124912560 -0.0104584910 0 0
0.0122487540 -0.0082146890 0 0
0.0118537310 -0.0062944830 0 0
0.0113698810 -0.0049263890 0 0
0.0108678130 -0.0042907620 0 0
0.0104166240 -0.0045034060 0 0
0.0100756280 -0.0056020540 0 0
0.0098895790 -0.0075371550 0 0
0.0098875400 -0.0101709000 0 0
0.0100819240 -0.0132883520 0 0
0.0104646400 -0.0166208290 0 0
0.0110014760 -0.0198772160 0 0
0.0116296990 -0.0227770980 0 0
0.0122637080 -0.0250805780 0 0
0.0128091030 -0.0266114330 0 0
0.0131800640 -0.0272720440 0 0
0.0133133620 -0.0270501220 0 0
0.0131762110 -0.0260179690 0 0
0.0127694270 -0.0243246090 0 0
0.0121262980 -0.0221801590 0 0
0.0113049610 -0.0198324690 0 0
0.0103755470 -0.0175394340 0 0
0.0094095740 -0.0155424800 0 0
0.0084771740 -0.0140448610 0 0
0.0076489860 -0.0131952540 0 0
0.0069953060 -0.0130762190 0 0
0.0065789550 -0.0136976650 0 0
0.0064435180 -0.0149955040 0 0
0.0066015990 -0.0168358400 0 0
0.0070286960 -0.0190257260 0 0
0.0076663190 -0.0213314700 0 0
0.0084327630 -0.0235039130 0 0
0.0092364810 -0.0253075170 0 0
0.0099888400 -0.0265487210 0 0
0.0106156260 -0.0270991280 0 0
0.0110653910 -0.0269094900 0 0
0.0113111610 -0.0260114710 0 0
0.0113448200 -0.0245070540 0 0
0.0111691210 -0.0225499720 0 0
0.0107935480 -0.0203261100 0 0
0.0102359480 -0.0180375710 0 0
0.0095270430 -0.0158896310 0 0
0.0087136370 -0.0140769530 0 0
0.0078584400 -0.0127675260 0 0
0.0070370270 -0.0120863650 0 0
0.0063325560 -0.0121020520 0 0
0.0058274030 -0.0128180300 0 0
0.0055912000 -0.0141696060 0 0
0.0056677770 -0.0160273330 0 0
0.0060660280 -0.0182076290 0 0
0.0067580990 -0.0204905070 0 0
0.0076839050 -0.0226421110 0 0
0.0087588230 -0.0244388290 0 0
0.0098832570 -0.0256910430 0 0
0.0109541580 -0.0262648230 0 0
0.0118768690 -0.0260979290 0 0
0.0125746950 -0.0252056180 0 0
0.0129963700 -0.0236743720 0 0
0.0131227360 -0.0216459750 0 0
0.0129704410 -0.0192977610 0 0
0.0125887950 -0.0168247830 0 0
0.0120501120 -0.0144257240 0 0
0.0114382870 -0.0122905340 0 0
0.0108398860 -0.0105878140 0 0
0.0103379270 -0.0094515290 0 0
0.0100057210 -0.0089675580 0 0
0.0098989920 -0.0091618780 0 0
0.0100477950 -0.0099939260 0 0
0.0104519480 -0.0113580570 0 0
0.0110825300 -0.0130932200 0 0
0.0118885230 -0.0149987690 0 0
0.0128050530 -0.0168537850 0 0
0.0137599310 -0.0184379220 0 0
0.0146785860 -0.0195530220 0 0
0.0154894650 -0.0200444410 0 0
0.0161292630 -0.0198190200 0 0
0.0165459880 -0.0188561290 0 0
0.0167007440 -0.0172101320 0 0
0.0165703590 -0.0150045540 0 0
0.0161506780 -0.0124195460 0 0
0.0154593090 -0.0096748630 0 0
0.0145376460 -0.0070099430 0 0
0.0134513300 -0.0046620640 0 0
0.0122862080 -0.0028444820 0 0
0.0111381440 -0.0017274710 0 0
0.0100993650 -0.0014242590 0 0
0.0092461190 -0.0019822900 0 0
0.0086306790 -0.0033796890 0 0
0.0082773340 -0.0055264270 0 0
0.0081811230 -0.0082694040 0 0
0.0083104380 -0.0114014090 0 0
0.0086150590 -0.0146751460 0 0
0.0090371850 -0.0178230450 0 0
0.0095205170 -0.0205812950 0 0
0.0100155830 -0.0227149190 0 0
0.0104830520 -0.0240412900 0 0
0.0108955480 -0.0244506390 0 0
0.0112368010 -0.0239217550 0 0
0.0114984440 -0.0225294320 0 0
0.0116759060 -0.0204398750 0 0
0.0117654270 -0.0178930590 0 0
0.0117651500 -0.0151745130 0 0
0.0116807550 -0.0125807070 0 0
0.0115321080 -0.0103829100 0 0
0.0113567400 -0.0087954260 0 0
0.0112079940 -0.0079542180 0 0
0.0111471740 -0.0079085760 0 0
0.0112304450 -0.0086235390 0 0
0.0114943360 -0.0099881610 0 0
0.0119453340 -0.0118268110 0 0
0.0125564970 -0.0139144210 0 0
0.0132712900 -0.0159972490 0 0
0.0140139910 -0.0178183420 0 0
0.0147035160 -0.0191451350 0 0
0.0152652370 -0.0197962730 0 0
0.0156370420 -0.0196640680 0 0
0.0157702900 -0.0187279330 0 0
0.0156294070 -0.0170551680 0 0
0.0151939970 -0.0147897100 0 0
0.0144648350 -0.0121332660 0 0
0.0134718730 -0.0093229530 0 0
0.0122801670 -0.0066073010 0 0
0.0109893200 -0.0042222050 0 0
0.0097245090 -0.0023699790 0 0
0.0086206390 -0.0012046300 0 0
0.0078033330 -0.0008233960 0 0
0.0073719260 -0.0012617200 0 0
0.0073890480 -0.0024897440 0 0
0.0078772170 -0.0044117410 0 0
0.0088188590 -0.0068719520 0 0
0.0101568740 -0.0096690500 0 0
0.0117963980 -0.0125771180 0 0
0.0136104420 -0.0153677100 0 0
0.0154518260 -0.0178284960 0 0
0.0171711090 -0.0197768500 0 0
0.0186353710 -0.0210692130 0 0
0.0197412500 -0.0216093670 0 0
0.0204206280 -0.0213585560 0 0
0.0206427360 -0.0203462650 0 0
0.0204156010 -0.0186761800 0 0
0.0197856730 -0.0165215960 0 0
0.0188339420 -0.0141083310 0 0
0.0176682840 -0.0116881260 0 0
0.0164123040 -0.0095082940 0 0
0.0151920770 -0.0077833190 0 0
0.0141230120 -0.0066721570 0 0
0.0132978020 -0.0062628670 0 0
0.0127759160 -0.0065652890 0 0
0.0125766410 -0.0075123770 0 0
0.0126782630 -0.0089693850 0 0
0.0130245510 -0.0107486080 0 0
0.0135373020 -0.0126278350 0 0
0.0141305120 -0.0143720150 0 0
0.0147206720 -0.0157578440 0 0
0.0152313720 -0.0165992040 0 0
0.0155946420 -0.0167692160 0 0
0.0157526810 -0.0162152560 0 0
0.0156621930 -0.0149661810 0 0
0.0153005420 -0.0131318000 0 0
0.0146712270 -0.0108934470 0 0
0.0138069560 -0.0084848810 0 0
0.0127691440 -0.0061660220 0 0
0.0116424200 -0.0041947040 0 0
0.0105244540 -0.0028005110 0 0
0.0095132370 -0.0021615340 0 0
0.0086942000 -0.0023838880 0 0
0.0081293810 -0.0034857750 0 0
0.0078503270 -0.0053904130 0 0
0.0078552450 -0.0079320170 0 0
0.0081106160 -0.0108759310 0 0
0.0085575440 -0.0139499600 0 0
0.0091218830 -0.0168803360 0 0
0.0097255630 -0.0194242490 0 0
0.0102964320 -0.0213931740 0 0
0.0107752660 -0.0226652890 0 0
0.0111192550 -0.0231888320 0 0
0.0113017620 -0.0229798340 0 0
0.0113101030 -0.0221164570 0 0
0.0111440930 -0.0207296710 0 0
0.0108155760 -0.0189894030 0 0
0.0103474480 -0.0170869720 0 0
0.0097727920 -0.0152163880 0 0
0.0091362610 -0.0135574410 0 0
0.0084965270 -0.0122625730 0 0
0.0079246410 -0.0114474240 0 0
0.0074942140 -0.0111836060 0 0
0.0072651630 -0.0114930790 0 0
0.0072690500 -0.0123451920 0 0
0.0075048360 -0.0136576200 0 0
0.0079459520 -0.0153017780 0 0
0.0085505010 -0.0171130270 0 0
0.0092665450 -0.0189053980 0 0
0.0100325950 -0.0204895920 0 0
0.0107787350 -0.0216927070 0 0
0.0114314320 -0.0223774900 0 0
0.0119208650 -0.0224582910 0 0
0.0121883880 -0.0219115920 0 0
0.0121922300 -0.0207804380 0 0
0.0119109830 -0.0191726870 0 0
0.0113463280 -0.0172525700 0 0
0.0105261810 -0.0152244670 0 0
0.0095073640 -0.0133089320 0 0
0.0083745860 -0.0117144560 0 0
0.0072320540 -0.0106109370 0 0
0.0061878670 -0.0101105300 0 0
0.0053372430 -0.0102598730 0 0
0.0047512510 -0.0110443560 0 0
0.0044724230 -0.0123997270 0 0
0.0045142470 -0.0142239400 0 0
0.0048621170 -0.0163856510 0 0
0.0054763270 -0.0187303790 0 0
0.0062984660 -0.0210873350 0 0
0.0072603810 -0.0232794210 0 0
0.0082928720 -0.0251368950 0 0
0.0093309310 -0.0265126790 0 0
0.0103140380 -0.0272958470 0 0
0.0111838570 -0.0274211950 0 0
0.0118839220 -0.0268753350 0 0
0.0123632970 -0.0256999340 0 0
0.0125822220 -0.0239906260 0 0
0.0125180750 -0.0218902000 0 0
0.0121718850 -0.0195775630 0 0
0.0115733230 -0.0172546560 0 0
0.0107797470 -0.0151307330 0 0
0.0098688940 -0.0134025970 0 0
0.0089290410 -0.0122323490 0 0
0.0080490790 -0.0117268600 0 0
0.0073087630 -0.0119229520 0 0
0.0067701420 -0.0127810190 0 0
0.0064717830 -0.0141887620 0 0
0.0064263420 -0.0159748880 0 0
0.0066204060 -0.0179299620 0 0
0.0070153760 -0.0198304700 0 0
0.0075498230 -0.0214633250 0 0
0.0081452240 -0.0226499510 0 0
0.0087157760 -0.0232690550 0 0
0.0091805440 -0.0232748660 0 0
0.0094753850 -0.0227060510 0 0
0.0095627430 -0.0216823040 0 0
0.0094377950 -0.0203888120 0 0
0.0091295250 -0.0190511670 0 0
0.0086959500 -0.0179047000 0 0
0.0082140770 -0.0171627810 0 0
0.0077665690 -0.0169879320 0 0
0.0074282930 -0.0174691620 0 0
0.0072564350 -0.0186091570 0 0
0.0072862350 -0.0203246420 0 0
0.0075309690 -0.0224603730 0 0
0.0079835230 -0.0248123820 0 0
0.0086188880 -0.0271528230 0 0
0.0093975080 -0.0292511040 0 0
0.0102677600 -0.0308913890 0 -1
0.0111666510 -0.0318883590 0 -1
0.0120215220 -0.0321018280 0 -1
0.0127561690 -0.0314500370 0 -1
0.0133008990 -0.0299206860 0 0
0.0136025750 -0.0275770770 0 0
0.0136313400 -0.0245565130 0 0
0.0133839260 -0.0210601520 0 0
0.0128852880 -0.0173362400 0 0
0.0121881670 -0.0136599550 0 0
0.0113676910 -0.0103118350 0 0
0.0105107060 -0.0075545510 0 0
0.0097040150 -0.0056080040 0 0
0.0090257740 -0.0046255960 0 0
0.0085413600 -0.0046768530 0 0
0.0083024670 -0.0057405580 0 0
0.0083460960 -0.0077087240 0 0
0.0086906130 -0.0103985850 0 0
0.0093300260 -0.0135695000 0 0
0.0102305840 -0.0169431250 0 0
0.0113317750 -0.0202262600 0 0
0.0125504200 -0.0231354190 0 0
0.0137875390 -0.0254219680 0 0
0.0149398460 -0.0268968480 0 0
0.0159143380 -0.0274522320 0 0
0.0166398230 -0.0270747090 0 0
0.0170717320 -0.0258456490 0 0
0.0171918660 -0.0239297100 0 0
0.0170060790 -0.0215559310 0 0
0.0165419960 -0.0189943090 0 0
0.0158480970 -0.0165284300 0 0
0.0149934010 -0.0144256340 0 0
0.0140649820 -0.0129081300 0 0
0.0131613590 -0.0121292850 0 0
0.0123815570 -0.0121593670 0 0
0.0118115210 -0.0129832680 0 0
0.0115120640 -0.0145091910 0 0
0.0115120350 -0.0165847410 0 0
0.0118054550 -0.0190167980 0 0
0.0123491530 -0.0215923720 0 0
0.0130622650 -0.0240979720 0 0
0.0138334480 -0.0263351700 0 0
0.0145382640 -0.0281318460 0 0
0.0150616230 -0.0293512620 0 0
0.0153171180 -0.0299009920 0 0
0.0152580590 -0.0297409650 0 0
0.0148802240 -0.0288887260 0 0
0.0142192100 -0.0274212920 0 0
0.0133441170 -0.0254729860 0 0
0.0123476090 -0.0232270460 0 0
0.0113332200 -0.0208997680 0 0
0.0104025450 -0.0187197550 0 0
0.0096446800 -0.0169066260 0 0
0.0091284800 -0.0156512640 0 0
0.0088977190 -0.0150975510 0 0
0.0089694460 -0.0153262030 0 0
0.0093345360 -0.0163426960 0 0
0.0099593160 -0.0180715280 0 0
0.0107892100 -0.0203584380 0 0
0.0117544010 -0.0229814660 0 0
0.0127746270 -0.0256708450 0 0
0.0137616130 -0.0281368400 0 0
0.0146219060 -0.0301034070 0 -1
0.0152633080 -0.0313432150 0 -1
0.0156041860 -0.0317074660 0 -1
0.0155831180 -0.0311443690 0 -1
0.0151681520 -0.0297034420 0 0
0.0143647720 -0.0275266230 0 0
0.0132191720 -0.0248294460 0 0
0.0118144410 -0.0218759350 0 0
0.0102614610 -0.0189505310 0 0
0.0086880390 -0.0163298190 0 0
0.0072267220 -0.0142562270 0 0
0.0059994390 -0.0129155500 0 0
0.0051007170 -0.0124198260 0 0
0.0045859330 -0.0127969980 0 0
0.0044690120 -0.0139888720 0 0
0.0047280720 -0.0158576270 0 0
0.0053148130 -0.0181996970 0 0
0.0061640200 -0.0207662140 0 0
0.0072009700 -0.0232897090 0 0
0.0083458430 -0.0255148390 0 0
0.0095154980 -0.0272278050 0 0
0.0106240340 -0.0282778690 0 0
0.0115842000 -0.0285867680 0 0
0.0123117610 -0.0281463100 0 0
0.0127341130 -0.0270082810 0 0
0.0128026400 -0.0252723990 0 0
0.0125057520 -0.0230766630 0 0
0.0118770530 -0.0205906990 0 0
0.0109934080 -0.0180091280 0 0
0.0099626660 -0.0155416020 0 0
0.0089066800 -0.0133984540 0 0
0.0079457490 -0.0117731220 0 0
0.0071855200 -0.0108230070 0 0
0.0067043650 -0.0106503940 0 0
0.0065419870 -0.0112859610 0 0
0.0066932380 -0.0126787350 0 0
0.0071109530 -0.0146962550 0 0
0.0077176320 -0.0171368830 0 0
0.0084203790 -0.0197531790 0 0
0.0091226240 -0.0222820330 0 0
0.0097309490 -0.0244758680 0 0
0.0101601280 -0.0261300600 0 0
0.0103388910 -0.0271032070 0 0
0.0102152230 -0.0273287330 0 0
0.0097598830 -0.0268181790 0 0
0.0089699160 -0.0256570760 0 0
0.0078729030 -0.0239938100 0 0
0.0065277170 -0.0220228570 0 0
0.0050177320 -0.0199646990 0 0
0.0034387810 -0.0180439600 0 0
0.0018881400 -0.0164667810 0 0
0.0004578590 -0.0153990940 0 0
-0.0007694950 -0.0149482280 0 0
-0.0017260840 -0.0151506790 0 0
-0.0023657330 -0.0159683980 0 0
-0.0026700990 -0.0172944470 0 0
-0.0026512490 -0.0189674510 0 0
-0.0023498580 -0.0207926740 0 0
-0.0018303390 -0.0225658500 0 0
-0.0011748380 -0.0240950940 0 0
-0.0004768860 -0.0252178500 0 0
0.0001664920 -0.0258131250 0 0
0.0006661790 -0.0258108710 0 0
0.0009544500 -0.0251991430 0 0
0.0009947160 -0.0240279680 0 0
0.0007839240 -0.0224080020 0 0
0.0003500130 -0.0205022030 0 0
-0.0002525400 -0.0185103610 0 0
-0.0009495690 -0.0166482340 0 0
-0.0016571080 -0.0151243570 0 0
-0.0022919790 -0.0141184430 0 0
-0.0027792420 -0.0137646240 0 0
-0.0030550380 -0.0141401010 0 0
-0.0030684430 -0.0152572500 0 0
-0.0027877780 -0.0170574920 0 0
-0.0022114720 -0.0194082360 0 0
-0.0013772390 -0.0221073110 0 0
-0.0003630410 -0.0248994730 0 0
0.0007219450 -0.0275054610 0 0
0.0017533760 -0.0296575910 0 0
0.0026097130 -0.0311314910 0 -1
0.0031871070 -0.0317660610 0 -1
0.0034083190 -0.0314719770 0 -1
0.0032263770 -0.0302348770 0 -1
0.0026264690 -0.0281172610 0 0
0.0016286610 -0.0252579970 0 0
0.0002901810 -0.0218663840 0 0
-0.0012965060 -0.0182087710 0 0
-0.0030121060 -0.0145872050 0 0
-0.0047235170 -0.0113105020 0 0
-0.0062969010 -0.0086597550 0 0
-0.0076081610 -0.0068536020 0 0
-0.0085526170 -0.0060211420 0 0
-0.0090566090 -0.0061882510 0 0
-0.0090897000 -0.0072783540 0 0
-0.0086723570 -0.0091255570 0 0
-0.0078741690 -0.0114968100 0 0
-0.0068012840 -0.0141192240 0 0
-0.0055770840 -0.0167091270 0 0
-0.0043233080 -0.0190009690 0 0
-0.0031472870 -0.0207739850 0 0
-0.0021363370 -0.0218724770 0 0
-0.0013569590 -0.0222162290 0 0
-0.0008560120 -0.0218013860 0 0
-0.0006618200 -0.0206947810 0 0
-0.0007840380 -0.0190249160 0 0
-0.0012124340 -0.0169716640 0 0
-0.0019155640 -0.0147545090 0 0
-0.0028401780 -0.0126168700 0 0
-0.0039125990 -0.0108042750 0 0
-0.0050438010 -0.0095369320 0 0
-0.0061384790 -0.0089807720 0 0
-0.0071058750 -0.0092233000 0 0
-0.0078686460 -0.0102600580 0 0
-0.0083675050 -0.0119946620 0 0
-0.0085632190 -0.0142520400 0 0
-0.0084394680 -0.0168017280 0 0
-0.0080077470 -0.0193866930 0 0
-0.0073121260 -0.0217527750 0 0
-0.0064303250 -0.0236743500 0 0
-0.0054686460 -0.0249738110 0 0
-0.0045505490 -0.0255350820 0 0
-0.0038005960 -0.0253118130 0 0
-0.0033269690 -0.0243297440 0 0
-0.0032062770 -0.0226826600 0 0
-0.0034732730 -0.0205223870 0 0
-0.0041172230 -0.0180439100 0 0
-0.0050857020 -0.0154671370 0 0
-0.0062934970 -0.0130171860 0 0
-0.0076320790 -0.0109046320 0 0
-0.0089778840 -0.0093067670 0 0
-0.0102013120 -0.0083509710 0 0
-0.0111785680 -0.0081014250 0 0
-0.0118060890 -0.0085512860 0 0
-0.0120142220 -0.0096237560 0 0
-0.0117753020 -0.0111842450 0 0
-0.0111036860 -0.0130618780 0 0
-0.0100495810 -0.0150749940 0 0
-0.0086908470 -0.0170543740 0 0
-0.0071259980 -0.0188592470 0 0
-0.0054679730 -0.0203838030 0 0
-0.0038362030 -0.0215556140 0 0
-0.0023469780 -0.0223304170 0 0
-0.0011044920 -0.0226873380 0 0
-0.0001935440 -0.0226261640 0 0
0.0003273810 -0.0221674590 0 0
0.0004333160 -0.0213561530 0 0
0.0001381130 -0.0202666740 0 0
-0.0005058970 -0.0190051900 0 0
-0.0014150500 -0.0177053920 0 0
-0.0024852190 -0.0165168150 0 0
-0.0036029350 -0.0155871310 0 0
-0.0046566070 -0.0150421650 0 0
-0.0055483960 -0.0149686460 0 0
-0.0062044250 -0.0154030300 0 0
-0.0065802920 -0.0163264490 0 0
-0.0066613410 -0.0176638990 0 0
-0.0064592940 -0.0192864460 0 0
-0.0060076970 -0.0210177250 0 0
-0.0053585350 -0.0226480170 0 0
-0.0045805100 -0.0239574430 0 0
-0.0037571300 -0.0247451630 0 0
-0.0029811630 -0.0248585030 0 0
-0.0023426100 -0.0242160990 0 0
-0.0019116210 -0.0228209560 0 0
-0.0017235080 -0.0207620090 0 0
-0.0017737820 -0.0182052880 0 0
-0.0020248960 -0.0153770700 0 0
-0.0024191310 -0.0125414050 0 0
-0.0028903820 -0.0099735500 0 0
-0.0033714250 -0.0079306830 0 0
-0.0037984010 -0.0066226220 0 0
-0.0041161470 -0.0061864940 0 0
-0.0042847210 -0.0066693730 0 0
-0.0042841260 -0.0080216980 0 0
-0.0041154770 -0.0101022570 0 0
-0.0037990510 -0.0126936920 0 0
-0.0033702600 -0.0155263590 0 0
-0.0028754610 -0.0183068360 0 0
-0.0023687830 -0.0207469000 0 0
-0.0019089450 -0.0225913310 0 0
-0.0015550870 -0.0236443390 0 0
-0.0013618280 -0.0237918460 0 0
-0.0013741620 -0.0230144610 0 0
-0.0016227850 -0.0213881750 0 0
-0.0021199050 -0.0190737550 0 0
-0.0028558520 -0.0162979520 0 0
-0.0037982600 -0.0133298570 0 0
-0.0048946690 -0.0104553830 0 0
-0.0060769300 -0.0079517420 0 0
-0.0072659250 -0.0060619320 0 0
-0.0083766560 -0.0049696630 0 0
-0.0093245920 -0.0047784360 0 0
-0.0100343400 -0.0054997030 0 0
-0.0104502840 -0.0070522570 0 0
-0.0105462280 -0.0092723740 0 0
-0.0103301460 -0.0119332000 0 0
-0.0098430750 -0.0147706830 0 0
-0.0091539630 -0.0175122970 0 0
-0.0083517000 -0.0199053040 0 0
-0.0075345050 -0.0217424140 0 0
-0.0067978570 -0.0228821250 0 0
-0.0062235210 -0.0232601040 0 0
-0.0058729360 -0.0228896900 0 0
-0.0057870630 -0.0218528340 0 0
-0.0059902550 -0.0202845150 0 0
-0.0064914520 -0.0183546510 0 0
-0.0072779890 -0.0162518880 0 0
-0.0083058490 -0.0141716110 0 0
-0.0094966850 -0.0123068760 0 0
-0.0107474700 -0.0108389020 0 0
-0.0119475270 -0.0099242660 0 0
-0.0129934910 -0.0096784840 0 0
-0.0137981910 -0.0101589790 0 0
-0.0142954390 -0.0113519290 0 0
-0.0144442300 -0.0131667540 0 0
-0.0142334770 -0.0154408500 0 0
-0.0136846610 -0.0179553030 0 0
-0.0128490930 -0.0204595930 0 0
-0.0118001330 -0.0227012210 0 0
-0.0106239940 -0.0244551420 0 0
-0.0094123290 -0.0255482100 0 0
-0.0082567090 -0.0258758110 0 0
-0.0072425760 -0.0254099660 0 0
-0.0064415860 -0.0241993050 0 0
-0.0059045540 -0.0223619430 0 0
-0.0056571910 -0.0200725470 0 0
-0.0056986650 -0.0175446450 0 0
-0.0060024650 -0.0150098530 0 0
-0.0065191400 -0.0126962090 0 0
-0.0071799680 -0.0108075700 0 0
-0.0079016750 -0.0095055430 0 0
-0.0085935270 -0.0088947070 0 0
-0.0091668700 -0.0090124340 0 0
-0.0095456580 -0.0098261420 0 0
-0.0096766070 -0.0112397330 0 0
-0.0095372930 -0.0131065950 0 0
-0.0091399240 -0.0152439470 0 0
-0.0085293270 -0.0174454560 0 0
-0.0077753080 -0.0194934980 0 0
-0.0069607920 -0.0211743570 0 0
-0.0061681220 -0.0222975020 0 0
-0.0054669440 -0.0227171260 0 0
-0.0049072240 -0.0223517650 0 0
-0.0045179550 -0.0211966840 0 0
-0.0043081690 -0.0193255410 0 0
-0.0042669140 -0.0168818580 0 0
-0.0043628200 -0.0140636850 0 0
-0.0045464490 -0.0111047810 0 0
-0.0047566250 -0.0082538610 0 0
-0.0049290750 -0.0057522930 0 0
-0.0050052720 -0.0038113810 0 0
-0.0049396870 -0.0025917640 0 0
-0.0047038920 -0.0021872880 0 0
-0.0042872830 -0.0026143300 0 0
-0.0036956000 -0.0038075130 0 0
-0.0029488770 -0.0056239280 0 0
-0.0020807220 -0.0078578930 0 0
-0.0011391520 -0.0102655100 0 0
-0.0001862240 -0.0125944190 0 0
0.0007061930 -0.0146127280 0 0
0.0014639700 -0.0161331500 0 0
0.0020196610 -0.0170308960 0 0
0.0023213630 -0.0172547920 0 0
0.0023395700 -0.0168306380 0 0
0.0020695590 -0.0158555900 0 0
0.0015294510 -0.0144835750 0 0
0.0007573900 -0.0129042700 0 0
-0.0001899980 -0.0113197620 0 0
-0.0012392280 -0.0099226820 0 0
-0.0023039530 -0.0088780730 0 0
-0.0032927340 -0.0083095840 0 0
-0.0041206590 -0.0082895080 0 0
-0.0047219270 -0.0088328000 0 0
-0.0050577960 -0.0098960400 0 0
-0.0051164740 -0.0113815090 0 0
-0.0049082030 -0.0131458080 0 0
-0.0044612530 -0.0150132060 0 0
-0.0038201460 -0.0167941130 0 0
-0.0030441660 -0.0183076490 0 0
-0.0022048980 -0.0194048390 0 0
-0.0013822630 -0.0199876160 0 0
-0.0006581020 -0.0200197790 0 0
-0.0001072620 -0.0195285070 0 0
0.0002115940 -0.0185972410 0 0
0.0002631760 -0.0173522690 0 0
0.0000403659 -0.0159460810 0 0
-0.0004345960 -0.0145406650 0 0
-0.0011144850 -0.0132928560 0 0
-0.0019354950 -0.0123419360 0 0
-0.0028258180 -0.0117988650 0 0
-0.0037127870 -0.0117367100 0 0
-0.0045288030 -0.0121824980 0 0
-0.0052162990 -0.0131116390 0 0
-0.0057324590 -0.0144464480 0 0
-0.0060537450 -0.0160603190 0 0
-0.0061781490 -0.0177887650 0 0
-0.0061235950 -0.0194464380 0 0
-0.0059234310 -0.0208471640 0 0
-0.0056209890 -0.0218241220 0 0
-0.0052647050 -0.0222486010 0 0
-0.0049047930 -0.0220459060 0 0
-0.0045913380 -0.0212057940 0 0
-0.0043730200 -0.0197842840 0 0
-0.0042954810 -0.0178954020 0 0
-0.0043970090 -0.0156948680 0 0
-0.0046995810 -0.0133604120 0 0
-0.0051984850 -0.0110736370 0 0
-0.0058575630 -0.0090061840 0 0
-0.0066134170 -0.0073098210 0 0
-0.0073858300 -0.0061084010 0 0
-0.0080896920 -0.0054901380 0 0
-0.0086451090 -0.0054997310 0 0
-0.0089851020 -0.0061311270 0 0
-0.0090625420 -0.0073234890 0 0
-0.0088572770 -0.0089627840 0 0
-0.0083816540 -0.0108892100 0 0
-0.0076815040 -0.0129093780 0 0
-0.0068311770 -0.0148126090 0 0
-0.0059235730 -0.0163911640 0 0
-0.0050567520 -0.0174636770 0 0
-0.0043187460 -0.0178988410 0 0
-0.0037743450 -0.0176343850 0 0
-0.0034582960 -0.0166868400 0 0
-0.0033754790 -0.0151496900 0 0
-0.0035050290 -0.0131796480 0 0
-0.0038059610 -0.0109739550 0 0
-0.0042239060 -0.0087445710 0 0
-0.0046987390 -0.0066948910 0 0
-0.0051713680 -0.0050019480 0 0
-0.0055879950 -0.0038044980 0 0
-0.0059019410 -0.0031957830 0 0
-0.0060743830 -0.0032197140 0 0
-0.0060759760 -0.0038699130 0 0
-0.0058906490 -0.0050910830 0 0
-0.0055195090 -0.0067824510 0 0
-0.0049813280 -0.0088041220 0 0
-0.0043096050 -0.0109875020 0 0
-0.0035498600 -0.0131496670 0 0
-0.0027590340 -0.0151094480 0 0
-0.0020046360 -0.0167022810 0 0
-0.0013604920 -0.0177924390 0 0
-0.0008988300 -0.0182836600 0 0
-0.0006804980 -0.0181295860 0 0
-0.0007457130 -0.0173426530 0 0
-0.0011081480 -0.0159975050 0 0
-0.0017538800 -0.0142261000 0 0
-0.0026442590 -0.0122052260 0 0
-0.0037205670 -0.0101392150 0 0
-0.0049088960 -0.0082403190 0 0
-0.0061249930 -0.0067084360 0 0
-0.0072801450 -0.0057116740 0 0
-0.0082887630 -0.0053694690 0 0
-0.0090766500 -0.0057398490 0 0
-0.0095885780 -0.0068121060 0 0
-0.0097947590 -0.0085057700 0 0
-0.0096955100 -0.0106766670 0 0
-0.0093216970 -0.0131301390 0 0
-0.0087285860 -0.0156396390 0 0
-0.0079847120 -0.0179677120 0 0
-0.0071614510 -0.0198872270 0 0
-0.0063271610 -0.0212023840 0 0
-0.0055444840 -0.0217689260 0 0
-0.0048682330 -0.0215115520 0 0
-0.0043433330 -0.0204352730 0 0
-0.0040032430 -0.0186277320 0 0
-0.0038688820 -0.0162510440 0 0
-0.0039475080 -0.0135243550 0 0
-0.0042309250 -0.0107003230 0 0
-0.0046930010 -0.0080388340 0 0
-0.0052882250 -0.0057808850 0 0
-0.0059541520 -0.0041259220 0 0
-0.0066184880 -0.0032158090 0 0
-0.0072084690 -0.0031260360 0 0
-0.0076600250 -0.0038620040 0 0
-0.0079260120 -0.0053585800 0 0
-0.0079833490 -0.0074832110 0 0
-0.0078376160 -0.0100436660 0 0
-0.0075230610 -0.0128013350 0 0
-0.0070977800 -0.0154911980 0 0
-0.0066362430 -0.0178482600 0 0
-0.0062218880 -0.0196373010 0 0
-0.0059401900 -0.0206809190 0 0
-0.0058700480 -0.0208808500 0 0
-0.0060723450 -0.0202284860 0 0
-0.0065780670 -0.0188024820 0 0
-0.0073796620 -0.0167550070 0 0
-0.0084280550 -0.0142912340 0 0
-0.0096372150 -0.0116463160 0 0
-0.0108972720 -0.0090621650 0 0
-0.0120931420 -0.0067655610 0 0
-0.0131219380 -0.0049486790 0 0
-0.0139040440 -0.0037526410 0 0
-0.0143873980 -0.0032555500 0 0
-0.0145477340 -0.0034672700 0 0
-0.0143878270 -0.0043315220 0 0
-0.0139364810 -0.0057333230 0 0
-0.0132461540 -0.0075092650 0 0
-0.0123880980 -0.0094601620 0 0
-0.0114447040 -0.0113677350 0 0
-0.0104994760 -0.0130158390 0 0
-0.0096262660 -0.0142132330 0 0
-0.0088805980 -0.0148138050 0 0
-0.0082955430 -0.0147331530 0 0
-0.0078824540 -0.0139623540 0 0
-0.0076347960 -0.0125773580 0 0
-0.0075325040 -0.0107389740 0 0
-0.0075451910 -0.0086792310 0 0
-0.0076342440 -0.0066742810 0 0
-0.0077551420 -0.0050078930 0 0
-0.0078609300 -0.0039316610 0 0
-0.0079059980 -0.0036294330 0 0
-0.0078497160 -0.0041932470 0 0
-0.0076613130 -0.0056146430 0 0
-0.0073257820 -0.0077903790 0 0
-0.0068471300 -0.0105387410 0 0
-0.0062465600 -0.0136224620 0 0
-0.0055574840 -0.0167752540 0 0
-0.0048201560 -0.0197296250 0 0
-0.0040767750 -0.0222432300 0 0
-0.0033674760 -0.0241203630 0 0
-0.0027278790 -0.0252265440 0 0
-0.0021880100 -0.0254963470 0 0
-0.0017719870 -0.0249353710 0 0
-0.0014974900 -0.0236169960 0 0
-0.0013735620 -0.0216743050 0 0
-0.0013969220 -0.0192872390 0 0
-0.0015491170 -0.0166659300 0 0
-0.0017964630 -0.0140325200 0 0
-0.0020931890 -0.0116037730 0 0
-0.0023870300 -0.0095747450 0 0
-0.0026257600 -0.0081021390 0 0
-0.0027627120 -0.0072872130 0 0
-0.0027597720 -0.0071612730 0 0
-0.0025888200 -0.0076787050 0 0
-0.0022348410 -0.0087215600 0 0
-0.0017016450 -0.0101157390 0 0
-0.0010170860 -0.0116543500 0 0
-0.0002343940 -0.0131229720 0 0
0.0005707410 -0.0143246030 0 0
0.0013058620 -0.0151032760 0 0
0.0018700220 -0.0153627360 0 0
0.0021656870 -0.0150750150 0 0
0.0021134700 -0.0142762320 0 0
0.0016660150 -0.0130527240 0 0
0.0008168000 -0.0115256290 0 0
-0.0003982950 -0.0098409880 0 0
-0.0019058460 -0.0081649260 0 0
-0.0036038660 -0.0066777660 0 0
-0.0053728530 -0.0055616490 0 0
-0.0070875130 -0.0049805550 0 0
-0.0086283310 -0.0050560780 0 0
-0.0098925340 -0.0058456780 0 0
-0.0108035950 -0.0073301180 0 0
-0.0113182950 -0.0094129480 0 0
-0.0114307670 -0.0119302830 0 0
-0.0111723280 -0.0146673030 0 0
-0.0106055950 -0.0173788590 0 0
-0.0098137000 -0.0198129560 0 0
-0.0088881930 -0.0217362180 0 0
-0.0079193290 -0.0229589700 0 0
-0.0069900860 -0.0233563450 0 0
-0.0061726160 -0.0228833940 0 0
-0.0055247280 -0.0215839460 0 0
-0.0050855150 -0.0195909570 0 0
-0.0048723150 -0.0171138260 0 0
-0.0048820530 -0.0144115640 0 0
-0.0050961710 -0.0117574600 0 0
-0.0054844540 -0.0094046830 0 0
-0.0060046490 -0.0075608550 0 0
-0.0065996260 -0.0063743590 0 0
-0.0071964370 -0.0059293740 0 0
-0.0077110040 -0.0062443560 0 0
-0.0080593420 -0.0072715150 0 0
-0.0081723170 -0.0088995190 0 0
-0.0080087090 -0.0109632370 0 0
-0.0075625590 -0.0132610760 0 0
-0.0068637440 -0.0155764260 0 0
-0.0059725030 -0.0176991450 0 0
-0.0049697760 -0.0194453150 0 0
-0.0039464180 -0.0206744590 0 0
-0.0029936430 -0.0213023190 0 0
-0.0021940260 -0.0213073260 0 0
-0.0016114080 -0.0207312010 0 0
-0.0012811430 -0.0196755090 0 0
-0.0012052600 -0.0182941370 0 0
-0.0013563610 -0.0167791800 0 0
-0.0016896720 -0.0153385020 0 0
-0.0021572650 -0.0141679370 0 0
-0.0027169250 -0.0134251300 0 0
-0.0033328600 -0.0132108410 0 0
-0.0039710460 -0.0135595960 0 0
-0.0045937440 -0.0144395540 0 0
-0.0051566410 -0.0157607120 0 0
-0.0056103550 -0.0173891390 0 0
-0.0059060880 -0.0191638000 0 0
-0.0060038610 -0.0209126930 0 0
-0.0058811250 -0.0224662710 0 0
-0.0055400350 -0.0236680390 0 0
-0.0050120260 -0.0243840710 0 0
-0.0043576710 -0.0245127620 0 0
-0.0036601720 -0.0239941440 0 0
-0.0030130880 -0.0228176680 0 0
-0.0025048300 -0.0210279230 0 0
-0.0022031960 -0.0187267450 0 0
-0.0021437210 -0.0160692000 0 0
-0.0023249050 -0.0132523450 0 0
-0.0027104600 -0.0104979550 0 0
-0.0032364140 -0.0080315870 0 0
-0.0038215850 -0.0060605920 0 0
-0.0043799270 -0.0047538060 0 0
-0.0048316770 -0.0042249990 0 0
-0.0051109670 -0.0045209260 0 0
-0.0051700740 -0.0056146580 0 0
-0.0049821550 -0.0074058000 0 0
-0.0045443630 -0.0097291880 0 0
-0.0038808070 -0.0123711090 0 0
-0.0030417460 -0.0150891830 0 0
-0.0020964910 -0.0176327120 0 0
-0.0011221800 -0.0197634930 0 0
-0.0001927700 -0.0212781500 0 0
0.0006296400 -0.0220307230 0 0
0.0013012190 -0.0219518420 0 0
0.0017996280 -0.0210606900 0 0
0.0021220470 -0.0194673140 0 0
0.0022784040 -0.0173643200 0 0
0.0022836160 -0.0150075530 0 0
0.0021527230 -0.0126862770 0 0
0.0019000570 -0.0106860540 0 0
0.0015415080 -0.0092509030 0 0
0.0010985170 -0.0085529420 0 0
0.0006016140 -0.0086757850 0 0
0.0000904518 -0.0096130850 0 0
-0.0003903280 -0.0112781330 0 0
-0.0007969240 -0.0135184570 0 0
-0.0010928300 -0.0161321410 0 0
-0.0012570730 -0.0188855350 0 0
-0.0012926720 -0.0215322180 0 0
-0.0012296360 -0.0238328450 0 0
-0.0011181820 -0.0255759450 0 0
-0.0010145860 -0.0265988500 0 0
-0.0009674350 -0.0268059410 0 0
-0.0010111700 -0.0261804110 0 0
-0.0011678090 -0.0247868660 0 0
-0.0014522230 -0.0227639600 0 0
-0.0018755020 -0.0203077930 0 0
-0.0024444870 -0.0176488060 0 0
-0.0031589930 -0.0150263310 0 0
-0.0040090190 -0.0126638620 0 0
-0.0049733870 -0.0107471640 0 0
-0.0060201150 -0.0094083100 0 0
-0.0071073080 -0.0087186030 0 0
-0.0081835760 -0.0086904950 0 0
-0.0091895980 -0.0092852910 0 0
-0.0100631690 -0.0104223870 0 0
-0.0107472870 -0.0119871870 0 0
-0.0111988320 -0.0138369510 0 0
-0.0113961300 -0.0158062100 0 0
-0.0113441520 -0.0177152000 0 0
-0.0110755020 -0.0193836640 0 0
-0.0106463050 -0.0206485920 0 0
-0.0101283720 -0.0213818450 0 0
-0.0095997140 -0.0215042890 0 0
-0.0091356430 -0.0209947770 0 0
-0.0088022950 -0.0198931430 0 0
-0.0086519840 -0.0182965700 0 0
-0.0087178900 -0.0163493120 0 0
-0.0090079190 -0.0142270620 0 0
-0.0095007390 -0.0121186720 0 0
-0.0101462760 -0.0102083340 0 0
-0.0108706710 -0.0086601290 0 0
-0.0115857770 -0.0076054530 0 0
-0.0122028730 -0.0071333870 0 0
-0.0126475490 -0.0072839750 0 0
-0.0128713660 -0.0080439980 0 0
-0.0128577440 -0.0093448670 0 0
-0.0126214980 -0.0110635750 0 0
-0.0122028210 -0.0130287550 0 0
-0.0116581720 -0.0150335220 0 0
-0.0110513510 -0.0168549790 0 0
-0.0104464990 -0.0182782300 0 0
-0.0099021670 -0.0191214420 0 0
-0.0094654120 -0.0192581160 0 0
-0.0091673220 -0.0186331800 0 0
-0.0090225220 -0.0172709150 0 0
-0.0090324460 -0.0152740260 0 0
-0.0091884550 -0.0128141480 0 0
-0.0094716660 -0.0101149440 0 0
-0.0098509580 -0.0074297060 0 0
-0.0102822780 -0.0050157270 0 0
-0.0107101670 -0.0031080040 0 0
-0.0110712330 -0.0018948810 0 0
-0.0113003050 -0.0014979090 0 0
-0.0113396370 -0.0019580750 0 0
-0.0111490610 -0.0032307250 0 0
-0.0107133580 -0.0051905570 0 0
-0.0100444260 -0.0076457280 0 0
-0.0091791190 -0.0103582720 0 0
-0.0081752830 -0.0130679330 0 0
-0.0071069020 -0.0155174370 0 0
-0.0060576750 -0.0174777160 0 0
-0.0051131300 -0.0187711970 0 0
-0.0043518800 -0.0192905040 0 0
-0.0038360290 -0.0190097740 0 0
-0.0036015170 -0.0179866650 0 0
-0.0036514660 -0.0163543040 0 0
-0.0039561010 -0.0143042850 0 0
-0.0044597050 -0.0120639070 0 0
-0.0050908730 -0.0098716810 0 0
-0.0057719680 -0.0079541010 0 0
-0.0064261950 -0.0065052520 0 0
-0.0069823800 -0.0056701970 0 0
-0.0073789100 -0.0055336850 0 0
-0.0075690880 -0.0061159080 0 0
-0.0075276480 -0.0073746980 0 0
-0.0072552460 -0.0092105580 0 0
-0.0067788320 -0.0114714460 0 0
-0.0061484320 -0.0139584140 0 0
-0.0054309780 -0.0164364870 0 0
-0.0047018340 -0.0186539490 0 0
-0.0040363200 -0.0203687640 0 0
-0.0035032420 -0.0213775450 0 0
-0.0031598020 -0.0215420750 0 0
-0.0030467940 -0.0208090460 0 0
-0.0031843630 -0.0192197070 0 0
-0.0035688770 -0.0169077360 0 0
-0.0041722330 -0.0140858020 0 0
-0.0049458040 -0.0110237150 0 0
-0.0058287830 -0.0080227040 0 0
-0.0067573550 -0.0053886970 0 0
-0.0076709660 -0.0034038360 0 0
-0.0085146380 -0.0022951810 0 0
-0.0092393110 -0.0022040350 0 0
-0.0098032370 -0.0031636940 0 0
-0.0101752840 -0.0050929700 0 0
-0.0103386190 -0.0078080660 0 0
-0.0102938880 -0.0110495050 0 0
-0.0100618220 -0.0145165550 0 0
-0.0096833520 -0.0179002520 0 0
-0.0092149300 -0.0209094380 0 0
-0.0087205240 -0.0232904620 0 0
-0.0082640200 -0.0248445130 0 0
-0.0079029810 -0.0254444530 0 0
-0.0076822910 -0.0250486530 0 0
-0.0076276390 -0.0237073400 0 0
-0.0077405990 -0.0215583470 0 0
-0.0079971800 -0.0188116610 0 0
-0.0083508570 -0.0157245650 0 0
-0.0087391150 -0.0125713480 0 0
-0.0090906110 -0.0096133010 0 0
-0.0093310610 -0.0070743180 0 0
-0.0093885340 -0.0051236800 0 0
-0.0092006190 -0.0038646190 0 0
-0.0087248900 -0.0033287560 0 0
-0.0079490400 -0.0034782980 0 0
-0.0068943490 -0.0042157150 0 0
-0.0056113330 -0.0053979890 0 0
-0.0041723040 -0.0068527150 0 0
-0.0026642430 -0.0083947170 0 0
-0.0011821990 -0.0098425810 0 0
0.0001769080 -0.0110342280 0 0
0.0013207580 -0.0118405020 0 0
0.0021697370 -0.0121760810 0 0
0.0026663600 -0.0120070040 0 0
0.0027835280 -0.0113538430 0 0
0.0025292540 -0.0102899300 0 0
0.0019464290 -0.0089347620 0 0
0.0011073150 -0.0074438150 0 0
0.0001043980 -0.0059962520 0 0
-0.0009596680 -0.0047802160 0 0
-0.0019815570 -0.0039746470 0 0
-0.0028664160 -0.0037287590 0 0
-0.0035369580 -0.0041429350 0 0
-0.0039415000 -0.0052543580 0 0
-0.0040592860 -0.0070283490 0 0
-0.0039020140 -0.0093561050 0 0
-0.0035112220 -0.0120613760 0 0
-0.0029514440 -0.0149180620 0 0
-0.0023004520 -0.0176762720 0 0
-0.0016393910 -0.0200910510 0 0
-0.0010443210 -0.0219489330 0 0
-0.0005788380 -0.0230902270 0 0
-0.0002887160 -0.0234262070 0 0
-0.0002008590 -0.0229501030 0 0
-0.0003260260 -0.0217400740 0 0
-0.0006617040 -0.0199524490 0 0
-0.0011921730 -0.0178051010 0 0
-0.0018856250 -0.0155531370 0 0
-0.0026911000 -0.0134604800 0 0
-0.0035391750 -0.0117709970 0 0
-0.0043484450 -0.0106825060 0 0
-0.0050364710 -0.0103270970 0 0
-0.0055316520 -0.0107610670 0 0
-0.0057821940 -0.0119648750 0 0
-0.0057601730 -0.0138491190 0 0
-0.0054618590 -0.0162622250 0 0
-0.0049072190 -0.0190002780 0 0
-0.0041403390 -0.0218221520 0 0
-0.0032295190 -0.0244703040 0 0
-0.0022629970 -0.0266941450 0 0
-0.0013372780 -0.0282731070 0 0
-0.0005416520 -0.0290379860 0 0
0.0000525802 -0.0288887310 0 0
0.0003943090 -0.0278060560 0 0
0.0004510910 -0.0258551790 0 0
0.0002105970 -0.0231812540 0 0
-0.0003143000 -0.0199969640 0 0
-0.0010821910 -0.0165628590 0 0
-0.0020264810 -0.0131612000 0 0
-0.0030650540 -0.0100659840 0 0
-0.0041117770 -0.0075141950 0 0
-0.0050855430 -0.0056829260 0 0
-0.0059159530 -0.0046745910 0 0
-0.0065476340 -0.0045109630 0 0
-0.0069442760 -0.0051362240 0 0
-0.0070916570 -0.0064280640 0 0
-0.0069988220 -0.0082146310 0 0
-0.0066968050 -0.0102942250 0 0
-0.0062343550 -0.0124541710 0 0
-0.0056713090 -0.0144869660 0 0
-0.0050717120 -0.0162051040 0 0
-0.0044983450 -0.0174565860 0 0
-0.0040086540 -0.0181401030 0 0
-0.0036516610 -0.0182167000 0 0
-0.0034657380 -0.0177147690 0 0
-0.0034766830 -0.0167256810 0 0
-0.0036949790 -0.0153895420 0 0
-0.0041120160 -0.0138752230 0 0
-0.0046977270 -0.0123611690 0 0
-0.0054027900 -0.0110201870 0 0
-0.0061644690 -0.0100066090 0 0
-0.0069119620 -0.0094437030 0 0
-0.0075695350 -0.0094117170 0 0
-0.0080595480 -0.0099380510 0 0
-0.0083082620 -0.0109911690 0 0
-0.0082558080 -0.0124801680 0 0
-0.0078687850 -0.0142609960 0 0
-0.0071507640 -0.0161485380 0 0
-0.0061458780 -0.0179339900 0 0
-0.0049344450 -0.0194079550 0 0
-0.0036230960 -0.0203877460 0 0
-0.0023322170 -0.0207434450 0 0
-0.0011818100 -0.0204158730 0 0
-0.0002760820 -0.0194229590 0 0
0.0003118380 -0.0178554170 0 0
0.0005513730 -0.0158643970 0 0
0.0004575410 -0.0136439700 0 0
0.0000845964 -0.0114115940 0 0
-0.0004856840 -0.0093890110 0 0
-0.0011558160 -0.0077838330 0 0
-0.0018220660 -0.0067707010 0 0
-0.0023835500 -0.0064723950 0 0
-0.0027541540 -0.0069443190 0 0
-0.0028750230 -0.0081673860 0 0
-0.0027211970 -0.0100521280 0 0
-0.0022995300 -0.0124521360 0 0
-0.0016412840 -0.0151816100 0 0
-0.0007949870 -0.0180325920 0 0
0.0001779320 -0.0207900940 0 0
0.0012062750 -0.0232454470 0 0
0.0022134890 -0.0252104410 0 0
0.0031238150 -0.0265354070 0 0
0.0038684340 -0.0271304220 0 0
0.0043902460 -0.0269830100 0 0
0.0046478560 -0.0261637950 0 0
0.0046194960 -0.0248156630 0 0
0.0043064530 -0.0231293940 0 0
0.0037349400 -0.0213140360 0 0
0.0029544340 -0.0195700580 0 0
0.0020306790 -0.0180695050 0 0
0.0010356470 -0.0169438950 0 0
0.0000394701 -0.0162782140 0 0
-0.0008940360 -0.0161080250 0 0
-0.0017101990 -0.0164178090 0 0
-0.0023659400 -0.0171410640 0 0
-0.0028324440 -0.0181635580 0 0
-0.0030984140 -0.0193309560 0 0
-0.0031721070 -0.0204623290 0 0
-0.0030794810 -0.0213699390 0 0
-0.0028585610 -0.0218822870 0 0
-0.0025531090 -0.0218650300 0 0
-0.0022085430 -0.0212357090 0 0
-0.0018701880 -0.0199716620 0 0
-0.0015811860 -0.0181127340 0 0
-0.0013779800 -0.0157603370 0 0
-0.0012843460 -0.0130726030 0 0
-0.0013067750 -0.0102535680 0 0
-0.0014333010 -0.0075346530 0 0
-0.0016357120 -0.0051498350 0 0
-0.0018735830 -0.0033093550 0 0
-0.0020986970 -0.0021770230 0 0
-0.0022599150 -0.0018538360 0 0
-0.0023090810 -0.0023687470 0 0
-0.0022069230 -0.0036766790 0 0
-0.0019273230 -0.0056636480 0 0
-0.0014605480 -0.0081589250 0 0
-0.0008165570 -0.0109538180 0 0
-0.0000264639 -0.0138246420 0 0
0.0008600820 -0.0165555920 0 0
0.0017803180 -0.0189569950 0 0
0.0026638440 -0.0208764430 0 0
0.0034370010 -0.0222035690 0 0
0.0040272160 -0.0228717820 0 0
0.0043702420 -0.0228599140 0 0
0.0044216190 -0.0221943570 0 0
0.0041678980 -0.0209504630 0 0
0.0036307760 -0.0192513270 0 0
0.0028623000 -0.0172620980 0 0
0.0019349970 -0.0151788010 0 0
0.0009313080 -0.0132122080 0 0
-0.0000649836 -0.0115683370 0 0
-0.0009739690 -0.0104275520 0 0
-0.0017228280 -0.0099245120 0 0
-0.0022505800 -0.0101311810 0 0
-0.0025159920 -0.0110447660 0 0
-0.0025065330 -0.0125829150 0 0
-0.0022443840 -0.0145893030 0 0
-0.0017859450 -0.0168505430 0 0
-0.0012129910 -0.0191212040 0 0
-0.0006171950 -0.0211526370 0 0
-0.0000836189 -0.0227230270 0 0
0.0003209990 -0.0236665050 0 0
0.0005523690 -0.0238970480 0 0
0.0005866320 -0.0234208330 0 0
0.0004171840 -0.0223330140 0 0
0.0000539053 -0.0208007060 0 0
-0.0004770380 -0.0190375520 0 0
-0.0011356050 -0.0172745450 0 0
-0.0018715680 -0.0157304700 0 0
-0.0026275810 -0.0145855180 0 0
-0.0033424230 -0.0139620760 0 0
-0.0039560230 -0.0139160760 0 0
-0.0044155790 -0.0144397430 0 0
-0.0046811360 -0.0154727420 0 0
-0.0047301190 -0.0169165290 0 0
-0.0045604360 -0.0186469350 0 0
-0.0041906120 -0.0205217790 0 0
-0.0036553820 -0.0223837150 0 0
-0.0029976650 -0.0240623390 0 0
-0.0022605730 -0.0253805620 0 0
-0.0014830460 -0.0261678750 0 0
-0.0007002050 -0.0262797880 0 0
0.0000531308 -0.0256198700 0 0
0.0007385220 -0.0241589700 0 0
0.0013120880 -0.0219461040 0 0
0.0017264830 -0.0191075060 0 0
0.0019372940 -0.0158342890 0 0
0.0019132930 -0.0123629920 0 0
0.0016485060 -0.0089536630 0 0
0.0011720450 -0.0058672940 0 0
0.0005501200 -0.0033425340 0 0
-0.0001230150 -0.0015721380 0 0
-0.0007420430 -0.0006812990 0 0
-0.0012081310 -0.0007113820 0 0
-0.0014419780 -0.0016129050 0 0
-0.0013924390 -0.0032502980 0 0
-0.0010425690 -0.0054183780 0 0
-0.0004129090 -0.0078673390 0 0
0.0004394110 -0.0103319370 0 0
0.0014263890 -0.0125612860 0 0
0.0024400320 -0.0143458620 0 0
0.0033679160 -0.0155381280 0 0
0.0041103590 -0.0160635490 0 0
0.0045947090 -0.0159204270 0 0
0.0047836220 -0.0151705720 0 0
0.0046762420 -0.0139258700 0 0
0.0043027670 -0.0123350420 0 0
0.0037151540 -0.0105720000 0 0
0.0029786680 -0.0088247470 0 0
0.0021672740 -0.0072822900 0 0
0.0013610230 -0.0061178550 0 0
0.0006413950 -0.0054702850 0 0
0.0000833857 -0.0054280330 0 0
-0.0002537230 -0.0060188920 0 0
-0.0003345710 -0.0072060330 0 0
-0.0001527490 -0.0088905690 0 0
0.0002689710 -0.0109210650 0 0
0.0008830220 -0.0131089290 0 0
0.0016242020 -0.0152474480 0 0
0.0024174420 -0.0171334960 0 0
0.0031842680 -0.0185913660 0 0
0.0038473590 -0.0194953610 0 0
0.0043350880 -0.0197850290 0 0
0.0045879010 -0.0194685520 0 0
0.0045653610 -0.0186146860 0 0
0.0042516350 -0.0173382990 0 0
0.0036587290 -0.0157857820 0 0
0.0028272220 -0.0141236180 0 0
0.0018236250 -0.0125293840 0 0
0.0007339650 -0.0111821760 0 0
-0.0003455530 -0.0102495930 0 0
-0.0013189380 -0.0098704330 0 0
-0.0021003670 -0.0101351360 0 0
-0.0026230270 -0.0110685230 0 0
-0.0028452760 -0.0126201360 0 0
-0.0027517220 -0.0146658480 0 0
-0.0023505350 -0.0170210510 0 0
-0.0016719260 -0.0194625580 0 0
-0.0007692540 -0.0217547860 0 0
0.0002813030 -0.0236758350 0 0
0.0013866890 -0.0250394300 0 0
0.0024488150 -0.0257101740 0 0
0.0033784620 -0.0256127160 0 0
0.0041053910 -0.0247372520 0 0
0.0045814020 -0.0231421150 0 0
0.0047789910 -0.0209521110 0 0
0.0046907240 -0.0183513210 0 0
0.0043311520 -0.0155697600 0 0
0.0037397880 -0.0128637830 0 0
0.0029831870 -0.0104910750 0 0
0.0021538160 -0.0086825740 0 0
0.0013628710 -0.0076158470 0 0
0.0007268530 -0.0073957440 0 0
0.0003523370 -0.0080456940 0 0
0.0003237010 -0.0095083500 0 0
0.0006946550 -0.0116520330 0 0
0.0014817610 -0.0142806190 0 0
0.0026590370 -0.0171468410 0 0
0.0041554960 -0.0199703320 0 0
0.0058590750 -0.0224616550 0 0
0.0076284910 -0.0243520010 0 0
0.0093109410 -0.0254249190 0 0
0.0107613170 -0.0255431580 0 0
0.0118584060 -0.0246639670 0 0
0.0125156720 -0.0228408100 0 0
0.0126875780 -0.0202140740 0 0
0.0123732810 -0.0169950490 0 0
0.0116169050 -0.0134460940 0 0
0.0105018930 -0.0098580150 0 0
0.0091393510 -0.0065249190 0 0
0.0076537900 -0.0037176420 0 0
0.0061695070 -0.0016578780 0 0
0.0047983630 -0.0004960960 0 0
0.0036300570 -0.0002964450 0 0
0.0027275580 -0.0010311670 0 0
0.0021282810 -0.0025855240 0 0
0.0018481630 -0.0047723670 0 0
0.0018849570 -0.0073537540 0 0
0.0022187320 -0.0100656540 0 0
0.0028099450 -0.0126421110 0 0
0.0035975210 -0.0148379850 0 0
0.0044999300 -0.0164509110 0 0
0.0054208840 -0.0173412240 0 0
0.0062595860 -0.0174467640 0 0
0.0069242780 -0.0167899510 0 0
0.0073462370 -0.0154755330 0 0
0.0074896210 -0.0136785740 0 0
0.0073535490 -0.0116237720 0 0
0.0069670400 -0.0095589990 0 0
0.0063809120 -0.0077272600 0 0
0.0056599920 -0.0063409130 0 0
0.0048766550 -0.0055611850 0 0
0.0041058180 -0.0054858570 0 0
0.0034208350 -0.0061460810 0 0
0.0028882740 -0.0075091260 0 0
0.0025598830 -0.0094821030 0 0
0.0024632010 -0.0119149160 0 0
0.0025946880 -0.0146056000 0 0
0.0029182790 -0.0173126920 0 0
0.0033702990 -0.0197765510 0 0
0.0038703420 -0.0217483890 0 0
0.0043353560 -0.0230235270 0 0
0.0046918830 -0.0234725570 0 0
0.0048832630 -0.0230623920 0 0
0.0048729630 -0.0218614900 0 0
0.0046463200 -0.0200287910 0 0
0.0042113030 -0.0177903000 0 0
0.0035975410 -0.0154086140 0 0
0.0028525350 -0.0131502040 0 0
0.0020350800 -0.0112546260 0 0
0.0012081870 -0.0099086600 0 0
0.0004337360 -0.0092272420 0 0
-0.0002317000 -0.0092431190 0 0
-0.0007418010 -0.0099071420 0 0
-0.0010659590 -0.0110996010 0 0
-0.0011926700 -0.0126496850 0 0
-0.0011295430 -0.0143571790 0 0
-0.0009012160 -0.0160117290 0 0
-0.0005464100 -0.0174100010 0 0
-0.0001137370 -0.0183737860 0 0
0.0003437120 -0.0187690890 0 0
0.0007737230 -0.0185220590 0 0
0.0011289530 -0.0176273290 0 0
0.0013694030 -0.0161472390 0 0
0.0014645540 -0.0142031390 0 0
0.0013963720 -0.0119611450 0 0
0.0011626450 -0.0096145190 0 0
0.0007790340 -0.0073644220 0 0
0.0002793990 -0.0054009590 0 0
-0.0002856060 -0.0038871650 0 0
-0.0008525490 -0.0029485850 0 0
-0.0013524570 -0.0026688680 0 0
-0.0017201390 -0.0030885750 0 0
-0.0019032570 -0.0042035950 0 0
-0.0018686030 -0.0059617250 0 0
-0.0016044100 -0.0082589180 0 0
-0.0011196910 -0.0109388330 0 0
-0.0004425460 -0.0137994710 0 0
0.0003813610 -0.0166086630 0 0
0.0012900150 -0.0191273520 0 0
0.0022069100 -0.0211371410 0 0
0.0030450530 -0.0224667460 0 0
0.0037146910 -0.0230121260 0 0
0.0041351050 -0.0227473260 0 0
0.0042474770 -0.0217249630 0 0
0.0040248910 -0.0200669220 0 0
0.0034782840 -0.0179483220 0 0
0.0026580290 -0.0155789090 0 0
0.0016492800 -0.0131841220 0 0
0.0005604390 -0.0109860710 0 0
-0.0004916940 -0.0091850420 0 0
-0.0013949690 -0.0079424990 0 0
-0.0020517480 -0.0073658510 0 0
-0.0023884550 -0.0074961470 0 0
-0.0023660640 -0.0083019870 0 0
-0.0019876290 -0.0096825330 0 0
-0.0012976770 -0.0114793170 0 0
-0.0003728140 -0.0134939710 0 0
0.0006919020 -0.0155089590 0 0
0.0017957640 -0.0173096680 0 0
0.0028425750 -0.0187065110 0 0
0.0037485010 -0.0195543230 0 0
0.0044477020 -0.0197656730 0 0
0.0048956440 -0.0193169060 0 0
0.0050707210 -0.0182484750 0 0
0.0049751780 -0.0166611250 0 0
0.0046355450 -0.0147074750 0 0
0.0041012680 -0.0125784210 0 0
0.0034405020 -0.0104857920 0 0
0.0027345380 -0.0086433900 0 0
0.0020722230 -0.0072475460 0 0
0.0015424870 -0.0064579770 0 0
0.0012231250 -0.0063808450 0 0
0.0011680760 -0.0070577590 0 0
0.0013980470 -0.0084638810 0 0
0.0018976460 -0.0105139190 0 0
0.0026188510 -0.0130709110 0 0
0.0034887240 -0.0159546110 0 0
0.0044195850 -0.0189510100 0 0
0.0053207140 -0.0218262380 0 0
0.0061098370 -0.0243455210 0 0
0.0067211370 -0.0262947410 0 0
0.0071082140 -0.0275013980 0 0
0.0072440620 -0.0278526100 0 0
0.0071212530 -0.0273080190 0 0
0.0067530770 -0.0259053120 0 0
0.0061739750 -0.0237575670 0 0
0.0054379530 -0.0210437250 0 0
0.0046142060 -0.0179938290 0 0
0.0037795600 -0.0148696300 0 0
0.0030093370 -0.0119406500 0 0
0.0023692530 -0.0094566260 0 0
0.0019096720 -0.0076196440 0 0
0.0016629920 -0.0065608990 0 0
0.0016430100 -0.0063257390 0 0
0.0018431070 -0.0068688140 0 0
0.0022336950 -0.0080604860 0 0
0.0027635370 -0.0097044150 0 0
0.0033671120 -0.0115640590 0 0
0.0039749550 -0.0133941460 0 0
0.0045227080 -0.0149721700 0 0
0.0049576170 -0.0161244620 0 0
0.0052430480 -0.0167425430 0 0
0.0053607280 -0.0167886550 0 0
0.0053111860 -0.0162926120 0 0
0.0051142130 -0.0153430690 0 0
0.0048086180 -0.0140755550 0 0
0.0044480250 -0.0126587930 0 0
0.0040922450 -0.0112809500 0 0
0.0037971520 -0.0101369810 0 0
0.0036054370 -0.0094157950 0 0
0.0035401880 -0.0092838310 0 0
0.0036036570 -0.0098630710 0 0
0.0037815720 -0.0112058970 0 0
0.0040504670 -0.0132731260 0 0
0.0043845230 -0.0159236930 0 0
0.0047590320 -0.0189227710 0 0
0.0051495840 -0.0219687740 0 0
0.0055290260 -0.0247332110 0 0
0.0058657880 -0.0269050080 0 0
0.0061257830 -0.0282314890 0 0
0.0062768430 -0.0285493920 0 0
0.0062935060 -0.0278012660 0 0
0.0061611920 -0.0260361500 0 0
0.0058789810 -0.0233972740 0 0
0.0054597710 -0.0201013550 0 0
0.0049278570 -0.0164134530 0 0
0.0043153060 -0.0126204150 0 0
0.0036585290 -0.0090056730 0 0
0.0029964830 -0.0058273020 0 0
0.0023711490 -0.0033001720 0 0
0.0018282990 -0.0015825600 0 0
0.0014153500 -0.0007667790 0 0
0.0011761620 -0.0008730860 0 0
0.0011451600 -0.0018474940 0 0
0.0013415290 -0.0035650960 0 0
0.0017635420 -0.0058395290 0 0
0.0023846590 -0.0084378980 0 0
0.0031533890 -0.0111005410 0 0
0.0039980990 -0.0135650450 0 0
0.0048367680 -0.0155925110 0 0
0.0055893140 -0.0169924370 0 0
0.0061880860 -0.0176420740 0 0
0.0065827650 -0.0174973100 0 0
0.0067397920 -0.0165947160 0 0
0.0066414650 -0.0150467560 0 0
0.0062899680 -0.0130320520 0 0
0.0057142040 -0.0107805930 0 0
0.0049714370 -0.0085525530 0 0
0.0041398500 -0.0066107280 0 0
0.0033058060 -0.0051896440 0 0
0.0025508160 -0.0044669810 0 0
0.0019405670 -0.0045437460 0 0
0.0015178630 -0.0054372270 0 0
0.0013013050 -0.0070854060 0 0
0.0012890170 -0.0093574910 0 0
0.0014643180 -0.0120666430 0 0
0.0018002410 -0.0149846190 0 0
0.0022619480 -0.0178593260 0 0
0.0028076570 -0.0204352590 0 0
0.0033886700 -0.0224756380 0 0
0.0039500980 -0.0237848040 0 0
0.0044342970 -0.0242290540 0 0
0.0047869630 -0.0237535890 0 0
0.0049644400 -0.0223927240 0 0
0.0049410620 -0.0202705160 0 0
0.0047149020 -0.0175901590 0 0
0.0043098220 -0.0146125890 0 0
0.0037729720 -0.0116268360 0 0
0.0031686970 -0.0089164060 0 0
0.0025706170 -0.0067270100 0 0
0.0020534300 -0.0052409950 0 0
0.0016860610 -0.0045622880 0 0
0.0015267820 -0.0047127610 0 0
0.0016186330 -0.0056378950 0 0
0.0019835850 -0.0072185810 0 0
0.0026163870 -0.0092864790 0 0
0.0034808710 -0.0116405860 0 0
0.0045118770 -0.0140627940 0 0
0.0056239120 -0.0163325310 0 0
0.0067235800 -0.0182432230 0 0
0.0077209520 -0.0196220530 0 0
0.0085373230 -0.0203503910 0 0
0.0091103950 -0.0203799410 0 0
0.0093985670 -0.0197402140 0 0
0.0093839100 -0.0185349970 0 0
0.0090721520 -0.0169278260 0 0
0.0084896910 -0.0151187780 0 0
0.0076801960 -0.0133174130 0 0
0.0067032630 -0.0117183120 0 0
0.0056348420 -0.0104839540 0 0
0.0045663730 -0.0097357540 0 0
0.0035990830 -0.0095509590 0 0
0.0028316630 -0.0099621560 0 0
0.0023432430 -0.0109569420 0 0
0.0021777320 -0.0124765620 0 0
0.0023365380 -0.0144140000 0 0
0.0027821720 -0.0166143660 0 0
0.0034492720 -0.0188818450 0 0
0.0042571720 -0.0209957500 0 0
0.0051197690 -0.0227341200 0 0
0.0059520740 -0.0238999940 0 0
0.0066749240 -0.0243453970 0 0
0.0072186970 -0.0239903870 0 0
0.0075267970 -0.0228355490 0 0
0.0075602460 -0.0209657240 0 0
0.0073024340 -0.0185435450 0 0
0.0067618480 -0.0157938470 0 0
0.0059735330 -0.0129813870 0 0
0.0050006870 -0.0103843110 0 0
0.0039347720 -0.0082657590 0 0
0.0028914220 -0.0068462580 0 0
0.0019998430 -0.0062798340 0 0
0.0013846790 -0.0066364820 0 0
0.0011439660 -0.0078926240 0 0
0.0013307160 -0.0099302300 0 0
0.0019438030 -0.0125457800 0 0
0.0029295750 -0.0154705970 0 0
0.0041929150 -0.0184009540 0 0
0.0056140960 -0.0210324100 0 0
0.0070660440 -0.0230924910 0 0
0.0084279910 -0.0243677090 0 0
0.0095947470 -0.0247219280 0 0
0.0104827980 -0.0241049000 0 0
0.0110345530 -0.0225532880 0 0
0.0112215030 -0.0201873360 0 0
0.0110458440 -0.0172031500 0 0
0.0105396790 -0.0138576990 0 0
0.0097617360 -0.0104451630 0 0
0.0087922860 -0.0072670400 0 0
0.0077265730 -0.0046004800 0 0
0.0066666730 -0.0026687430 0 0
0.0057123470 -0.0016173310 0 0
0.0049519540 -0.0015002420 0 0
0.0044537510 -0.0022794180 0 0
0.0042572480 -0.0038357320 0 0
0.0043655270 -0.0059863570 0 0
0.0047416960 -0.0085039200 0 0
0.0053129390 -0.0111357780 0 0
0.0059822260 -0.0136239710 0 0
0.0066440580 -0.0157266850 0 0
0.0072007060 -0.0172407310 0 0
0.0075762300 -0.0180227770 0 0
0.0077250650 -0.0180059820 0 0
0.0076334830 -0.0172089950 0 0
0.0073157820 -0.0157350480 0 0
0.0068082500 -0.0137603530 0 0
0.0061621300 -0.0115134280 0 0
0.0054360870 -0.0092485860 0 0
0.0046902470 -0.0072168140 0 0
0.0039834110 -0.0056375830 0 0
0.0033721320 -0.0046754150 0 0
0.0029094680 -0.0044239140 0 0
0.0026424220 -0.0048982130 0 0
0.0026072970 -0.0060354700 0 0
0.0028219160 -0.0077024040 0 0
0.0032763930 -0.0097091360 0 0
0.0039287710 -0.0118290080 0 0
0.0047107070 -0.0138228860 0 0
0.0055401520 -0.0154645790 0 0
0.0063329750 -0.0165639260 0 0
0.0070099360 -0.0169852810 0 0
0.0075010490 -0.0166597610 0 0
0.0077491980 -0.0155902580 0 0
0.0077134460 -0.0138492560 0 0
0.0073733620 -0.0115711020 0 0
0.0067342250 -0.0089413000 0 0
0.0058303740 -0.0061838000 0 0
0.0047248940 -0.0035449650 0 0
0.0035057070 -0.0012728970 0 0
0.0022785300 0.0004069570 0 0
0.0011573760 0.0013167030 0 0
0.0002527300 0.0013472250 0 0
-0.0003421400 0.0004722600 0 0
-0.0005630150 -0.0012462880 0 0
-0.0003810330 -0.0036621880 0 0
0.0001951670 -0.0065583510 0 0
0.0011182720 -0.0096692510 0 0
0.0023037030 -0.0127089300 0 0
0.0036383560 -0.0154002500 0 0
0.0049970090 -0.0175028390 0 0
0.0062604750 -0.0188381080 0 0
0.0073292670 -0.0193083520 0 0
0.0081315060 -0.0189061150 0 0
0.0086270820 -0.0177119010 0 0
0.0088092090 -0.0158811780 0 0
0.0087027180 -0.0136234090 0 0
0.0083581490 -0.0111768250 0 0
0.0078423990 -0.0087830990 0 0
0.0072290930 -0.0066645710 0 0
0.0065915580 -0.0050047160 0 0
0.0059982610 -0.0039333870 0 0
0.0055096950 -0.0035197010 0 0
0.0051761340 -0.0037734840 0 0
0.0050346830 -0.0046521820 0 0
0.0051051540 -0.0060681630 0 0
0.0053877040 -0.0078934920 0 0
0.0058640840 -0.0099636500 0 0
0.0065001950 -0.0120843010 0 0
0.0072477250 -0.0140442710 0 0
0.0080461090 -0.0156352840 0 0
0.0088269650 -0.0166765250 0 0
0.0095210720 -0.0170399060 0 0
0.0100662150 -0.0166701590 0 0
0.0104143840 -0.0155939850 0 0
0.0105376890 -0.0139161260 0 0
0.0104328980 -0.0118050400 0 0
0.0101242530 -0.0094726630 0 0
0.0096632270 -0.0071515910 0 0
0.0091231660 -0.0050717640 0 0
0.0085884090 -0.0034380290 0 0
0.0081413710 -0.0024099980 0 0
0.0078528890 -0.0020862810 0 0
0.0077771380 -0.0024946730 0 0
0.0079474250 -0.0035887160 0 0
0.0083707160 -0.0052512330 0 0
0.0090241600 -0.0073061820 0 0
0.0098574090 -0.0095391460 0 0
0.0108006000 -0.0117244170 0 0
0.0117745200 -0.0136539060 0 0
0.0126986230 -0.0151613670 0 0
0.0134948790 -0.0161365930 0 0
0.0140898140 -0.0165286070 0 0
0.0144189940 -0.0163417600 0 0
0.0144360050 -0.0156303490 0 0
0.0141233780 -0.0144941110 0 0
0.0134997520 -0.0130725330 0 0
0.0126193610 -0.0115348370 0 0
0.0115644990 -0.0100645110 0 0
0.0104337430 -0.0088396130 0 0
0.0093288420 -0.0080115490 0 0
0.0083427720 -0.0076856910 0 0
0.0075496480 -0.0079071390 0 0
0.0069969850 -0.0086546160 0 0
0.0067031960 -0.0098441870 0 0
0.0066619850 -0.0113418780 0 0
0.0068494240 -0.0129814770 0 0
0.0072276920 -0.0145832530 0 0
0.0077440260 -0.0159712400 0 0
0.0083281780 -0.0169890460 0 0
0.0088927650 -0.0175146770 0 0
0.0093390450 -0.0174734740 0 0
0.0095679040 -0.0168472920 0 0
0.0094938960 -0.0156783290 0 0
0.0090596080 -0.0140664990 0 0
0.0082470830 -0.0121600280 0 0
0.0070826020 -0.0101398400 0 0
0.0056337430 -0.0081993280 0 0
0.0040015770 -0.0065229300 0 0
0.0023105000 -0.0052676870 0 0
0.0006949360 -0.0045498820 0 0
-0.0007175150 -0.0044363820 0 0
-0.0018228080 -0.0049401990 0 0
-0.0025523510 -0.0060199640 0 0
-0.0028788860 -0.0075824080 0 0
-0.0028171100 -0.0094880520 0 0
-0.0024188020 -0.0115621800 0 0
-0.0017629060 -0.0136121740 0 0
-0.0009432390 -0.0154492700 0 0
-0.0000573130 -0.0169106630 0 0
0.0008013470 -0.0178770510 0 0
0.0015476930 -0.0182816910 0 0
0.0021087200 -0.0181106470 0 0
0.0024276660 -0.0173978580 0 0
0.0024691340 -0.0162190190 0 0
0.0022247140 -0.0146852830 0 0
0.0017169790 -0.0129353740 0 0
0.0009991470 -0.0111252750 0 0
0.0001497060 -0.0094162820 0 0
-0.0007368440 -0.0079623530 0 0
-0.0015609400 -0.0068972890 0 0
-0.0022281260 -0.0063230360 0 0
-0.0026572950 -0.0063008650 0 0
-0.0027873480 -0.0068458490 0 0
-0.0025823650 -0.0079237430 0 0
-0.0020345650 -0.0094501170 0 0
-0.0011648560 -0.0112927210 0 0
-0.0000217065 -0.0132780200 0 0
0.0013211770 -0.0152023750 0 0
0.0027687250 -0.0168485360 0 0
0.0042113930 -0.0180077600 0 0
0.0055361040 -0.0185060770 0 0
0.0066393470 -0.0182310520 0 0
0.0074386120 -0.0171540610 0 0
0.0078802110 -0.0153427770 0 0
0.0079443420 -0.0129595020 0 0
0.0076479700 -0.0102438970 0 0
0.0070435720 -0.0074826310 0 0
0.0062118520 -0.0049719100 0 0
0.0052500140 -0.0029803420 0 0
0.0042589410 -0.0017178870 0 0
0.0033317970 -0.0013136630 0 0
0.0025459860 -0.0018044590 0 0
0.0019592240 -0.0031354870 0 0
0.0016075190 -0.0051728150 0 0
0.0015030440 -0.0077238920 0 0
0.0016328320 -0.0105608510 0 0
0.0019597370 -0.0134419320 0 0
0.0024256780 -0.0161292690 0 0
0.0029567240 -0.0184040750 0 0
0.0034697690 -0.0200804660 0 0
0.0038811170 -0.0210178180 0 0
0.0041174240 -0.0211310910 0 0
0.0041268500 -0.0203986980 0 0
0.0038858240 -0.0188675170 0 0
0.0033996280 -0.0166543650 0 0
0.0026996710 -0.0139426400 0 0
0.0018399600 -0.0109721990 0 0
0.0008926110 -0.0080208120 0 0
-0.0000576646 -0.0053775200 0 0
-0.0009193680 -0.0033105150 0 0
-0.0016014600 -0.0020340150 0 0
-0.0020240390 -0.0016800400 0 0
-0.0021310180 -0.0022812630 0 0
-0.0018991930 -0.0037685130 0 0
-0.0013390040 -0.0059820710 0 0
-0.0004883790 -0.0086933250 0 0
0.0005955200 -0.0116331860 0 0
0.0018444450 -0.0145236080 0 0
0.0031864770 -0.0171081030 0 0
0.0045500920 -0.0191771310 0 0
0.0058640510 -0.0205845960 0 0
0.0070577240 -0.0212535840 0 0
0.0080665540 -0.0211736090 0 0
0.0088410240 -0.0203946080 0 0
0.0093532580 -0.0190208950 0 0
0.0095977660 -0.0172037900 0 0
0.0095878790 -0.0151299410 0 0
0.0093515520 -0.0130044830 0 0
0.0089287690 -0.0110313390 0 0
0.0083699240 -0.0093941630 0 0
0.0077322270 -0.0082402100 0 0
0.0070727480 -0.0076680840 0 0
0.0064423190 -0.0077196390 0 0
0.0058852950 -0.0083758210 0 0
0.0054428790 -0.0095567990 0 0
0.0051533560 -0.0111279510 0 0
0.0050466520 -0.0129126790 0 0
0.0051358160 -0.0147102150 0 0
0.0054090740 -0.0163150030 0 0
0.0058251380 -0.0175361400 0 0
0.0063136180 -0.0182171770 0 0
0.0067826390 -0.0182546580 0 0
0.0071354730 -0.0176111200 0 0
0.0072933250 -0.0163193830 0 0
0.0072141870 -0.0144788010 0 0
0.0068975460 -0.0122458690 0 0
0.0063743460 -0.0098202290 0 0
0.0056913510 -0.0074261450 0 0
0.0049000150 -0.0052904730 0 0
0.0040536910 -0.0036194220 0 0
0.0032097940 -0.0025771120 0 0
0.0024301130 -0.0022691790 0 0
0.0017744860 -0.0027336940 0 0
0.0012887690 -0.0039392050 0 0
0.0009932210 -0.0057880920 0 0
0.0008776980 -0.0081246240 0 0
0.0009053000 -0.0107488180 0 0
0.0010217180 -0.0134357620 0 0
0.0011659830 -0.0159574020 0 0
0.0012784290 -0.0181037290 0 0
0.0013043730 -0.0197014990 0 0
0.0011961410 -0.0206289220 0 0
0.0009163620 -0.0208253940 0 0
0.0004423580 -0.0202966460 0 0
-0.0002300050 -0.0191155300 0 0
-0.0010838070 -0.0174174540 0 0
-0.0020803900 -0.0153892880 0 0
-0.0031612310 -0.0132523700 0 0
-0.0042524100 -0.0112420840 0 0
-0.0052709000 -0.0095861820 0 0
-0.0061323560 -0.0084824420 0 0
-0.0067600120 -0.0080766980 0 0
-0.0070924620 -0.0084442330 0 0
-0.0070878460 -0.0095780170 0 0
-0.0067251800 -0.0113857520 0 0
-0.0060052380 -0.0136964330 0 0
-0.0049515430 -0.0162765770 0 0
-0.0036113190 -0.0188543970 0 0
-0.0020562480 -0.0211482420 0 0
-0.0003804680 -0.0228962410 0 0
0.0013068160 -0.0238858710 0 0
0.0028922470 -0.0239806220 0 0
0.0042689600 -0.0231378450 0 0
0.0053457040 -0.0214132560 0 0
0.0060549470 -0.0189529880 0 0
0.0063595630 -0.0159770620 0 0
0.0062568120 -0.0127569750 0 0
0.0057788080 -0.0095885740 0 0
0.0049893130 -0.0067614530 0 0
0.0039767610 -0.0045274650 0 0
0.0028443230 -0.0030726110 0 0
0.0016991180 -0.0024968560 0 0
0.0006422860 -0.0028048810 0 0
-0.0002398400 -0.0039085710 0 0
-0.0008838450 -0.0056399130 0 0
-0.0012563710 -0.0077717530 0 0
-0.0013588150 -0.0100436490 0 0
-0.0012269660 -0.0121902640 0 0
-0.0009237560 -0.0139698140 0 0
-0.0005268350 -0.0151900840 0 0
-0.0001156640 -0.0157290500 0 0
0.0002380420 -0.0155465900 0 0
0.0004758430 -0.0146843210 0 0
0.0005554340 -0.0132535720 0 0
0.0004526120 -0.0114155120 0 0
0.0001633340 -0.0093597670 0 0
-0.0002945390 -0.0072865310 0 0
-0.0008812450 -0.0053925940 0 0
-0.0015375660 -0.0038586420 0 0
-0.0021888190 -0.0028363400 0 0
-0.0027502780 -0.0024357050 0 0
-0.0031359350 -0.0027137820 0 0
-0.0032713880 -0.0036664610 0 0
-0.0031080050 -0.0052255140 0 0
-0.0026339630 -0.0072619730 0 0
-0.0018788480 -0.0095963460 0 0
-0.0009102850 -0.0120154610 0 0
0.0001763100 -0.0142935230 0 0
0.0012700440 -0.0162132110 0 0
0.0022540680 -0.0175837780 0 0
0.0030126500 -0.0182563250 0 0
0.0034401960 -0.0181378440 0 0
0.0034541580 -0.0172037400 0 0
0.0030087020 -0.0155055640 0 0
0.0021041640 -0.0131702700 0 0
0.0007893020 -0.0103902610 0 0
-0.0008441280 -0.0074064440 0 0
-0.0026728200 -0.0044868280 0 0
-0.0045562680 -0.0019019920 0 0
-0.0063507060 0.0001009070 0 0
-0.0079208770 0.0013224830 0 0
-0.0091501530 0.0016299630 0 0
-0.0099506160 0.0009678800 0 0
-0.0102726110 -0.0006387040 0 0
-0.0101101840 -0.0030856740 0 0
-0.0095000330 -0.0061943140 0 0
-0.0085160120 -0.0097192630 0 0
-0.0072622100 -0.0133626250 0 0
-0.0058642210 -0.0167975280 0 0
-0.0044567750 -0.0197013100 0 0
-0.0031681330 -0.0217934160 0 0
-0.0021044110 -0.0228702390 0 0
-0.0013375870 -0.0228303080 0 0
-0.0008999200 -0.0216863130 0 0
-0.0007858790 -0.0195630230 0 0
-0.0009602760 -0.0166821220 0 0
-0.0013688150 -0.0133366680 0 0
-0.0019473080 -0.0098590540 0 0
-0.0026282000 -0.0065862270 0 0
-0.0033446320 -0.0038245930 0 0
-0.0040324230 -0.0018171880 0 0
-0.0046311160 -0.0007177830 0 0
-0.0050855780 -0.0005766640 0 0
-0.0053491410 -0.0013400160 0 0
-0.0053884020 -0.0028614690 0 0
-0.0051892420 -0.0049226860 0 0
-0.0047628910 -0.0072597790 0 0
-0.0041496660 -0.0095921190 0 0
-0.0034167770 -0.0116495580 0 0
-0.0026475660 -0.0131953020 0 0
-0.0019240840 -0.0140445020 0 0
-0.0013105310 -0.0140799750 0 0
-0.0008458640 -0.0132645500 0 0
-0.0005475420 -0.0116470250 0 0
-0.0004199720 -0.0093590460 0 0
-0.0004596900 -0.0066029870 0 0
-0.0006557430 -0.0036330660 0 0
-0.0009889270 -0.0007320860 0 0
-0.0014322780 0.0018147650 0 0
-0.0019517160 0.0037478170 0 0
-0.0025049320 0.0048595820 0 0
-0.0030393880 0.0050153340 0 0
-0.0034938240 0.0041638720 0 0
-0.0038063460 0.0023391410 0 0
-0.0039259800 -0.0003437840 0 0
-0.0038216390 -0.0036963830 0 0
-0.0034862300 -0.0074685920 0 0
-0.0029377000 -0.0113657140 0 0
-0.0022183190 -0.0150703310 0 0
-0.0013909900 -0.0182689440 0 0
-0.0005315670 -0.0206826520 0 0
0.0002810950 -0.0220992280 0 0
0.0009747160 -0.0224010980 0 0
0.0014911890 -0.0215824250 0 0
0.0017912500 -0.0197504360 0 0
0.0018565800 -0.0171108930 0 0
0.0016910240 -0.0139423360 0 0
0.0013214800 -0.0105651530 0 0
0.0007973230 -0.0073091610 0 0
0.0001871280 -0.0044812610 0 0
-0.0004281080 -0.0023350900 0 0
-0.0009650350 -0.0010456260 0 0
-0.0013496810 -0.0006917340 0 0
-0.0015295090 -0.0012489890 0 0
-0.0014847650 -0.0025939620 0 0
-0.0012347610 -0.0045199890 0 0
-0.0008327940 -0.0067627440 0 0
-0.0003498550 -0.0090318490 0 0
0.0001439800 -0.0110438770 0 0
0.0005908950 -0.0125527850 0 0
0.0009471530 -0.0133744030 0 0
0.0011799520 -0.0134023440 0 0
0.0012643340 -0.0126144980 0 0
0.0011825600 -0.0110715240 0 0
0.0009269840 -0.0089093090 0 0
0.0005057250 -0.0063258710 0 0
-0.0000524482 -0.0035620990 0 0
-0.0006977680 -0.0008770830 0 0
-0.0013637260 0.0014789980 0 0
-0.0019735440 0.0032907550 0 0
-0.0024480630 0.0043994590 0 0
-0.0027149830 0.0047194940 0 0
-0.0027176160 0.0042480270 0 0
-0.0024212510 0.0030648080 0 0
-0.0018169430 0.0013194810 0 0
-0.0009226510 -0.0007914630 0 0
0.0002182230 -0.0030514500 0 0
0.0015397590 -0.0052474740 0 0
0.0029572250 -0.0071872300 0 0
0.0043731560 -0.0087106030 0 0
0.0056870520 -0.0096982860 0 0
0.0068068400 -0.0100787630 0 0
0.0076595440 -0.0098331120 0 0
0.0082002470 -0.0089973310 0 0
0.0084174740 -0.0076620010 0 0
0.0083318740 -0.0059676230 0 0
0.0079882560 -0.0040934930 0 0
0.0074453180 -0.0022406630 0 0
0.0067674510 -0.0006121730 0 0
0.0060197340 0.0006069360 0 0
0.0052644160 0.0012688530 0 0
0.0045575200 0.0012798840 0 0
0.0039458240 0.0006121370 0 0
0.0034638910 -0.0006927110 0 0
0.0031305670 -0.0025293380 0 0
0.0029460930 -0.0047435260 0 0
0.0028910150 -0.0071515420 0 0
0.0029270200 -0.0095592640 0 0
0.0030011220 -0.0117781510 0 0
0.0030551090 -0.0136373470 0 0
0.0030384680 -0.0149931610 0 0
0.0029188300 -0.0157378790 0 0
0.0026850920 -0.0158086460 0 0
0.0023433700 -0.0151959680 0 0
0.0019097240 -0.0139502310 0 0
0.0014037190 -0.0121831390 0 0
0.0008453810 -0.0100613670 0 0
0.0002563420 -0.0077926560 0 0
-0.0003369120 -0.0056070150 0 0
-0.0009013320 -0.0037353050 0 0
-0.0013987370 -0.0023856790 0 0
-0.0017896280 -0.0017183950 0 0
-0.0020382580 -0.0018223320 0 0
-0.0021175510 -0.0026982570 0 0
-0.0020124440 -0.0042530620 0 0
-0.0017222190 -0.0063082500 0 0
-0.0012634880 -0.0086238750 0 0
-0.0006723380 -0.0109336320 0 0
-0.0000015922 -0.0129817860 0 0
0.0006873060 -0.0145531110 0 0
0.0013338710 -0.0154920870 0 0
0.0018854300 -0.0157123990 0 0
0.0022994130 -0.0151993440 0 0
0.0025418360 -0.0140066600 0 0
0.0025850480 -0.0122479890 0 0
0.0024085720 -0.0100834920 0 0
0.0020050620 -0.0077031480 0 0
0.0013888560 -0.0053082510 0 0
0.0006007700 -0.0030930440 0 0
-0.0002960180 -0.0012295160 0 0
-0.0012284310 0.0001434980 0 0
-0.0021279710 0.0009295500 0 0
-0.0029397540 0.0010844960 0 0
-0.0036235090 0.0006246310 0 0
-0.0041496540 -0.0003721660 0 0
-0.0044950340 -0.0017745090 0 0
-0.0046410680 -0.0034121150 0 0
-0.0045761310 -0.0050927570 0 0
-0.0043034230 -0.0066192310 0 0
-0.0038516810 -0.0078060390 0 0
-0.0032807250 -0.0084967150 0 0
-0.0026752310 -0.0085821100 0 0
-0.0021284460 -0.0080169940 0 0
-0.0017234800 -0.0068300800 0 0
-0.0015187340 -0.0051238260 0 0
-0.0015399530 -0.0030633430 0 0
-0.0017784390 -0.0008565680 0 0
-0.0021945490 0.0012700750 0 0
-0.0027258100 0.0030958130 0 0
-0.0032976480 0.0044264070 0 0
-0.0038339020 0.0051105970 0 0
-0.0042656040 0.0050515380 0 0
-0.0045372510 0.0042132320 0 0
-0.0046100030 0.0026228140 0 0
-0.0044631910 0.0003695070 0 0
-0.0040960560 -0.0023995330 0 0
-0.0035292930 -0.0054868640 0 0
-0.0028045730 -0.0086575160 0 0
-0.0019816550 -0.0116588070 0 0
-0.0011337320 -0.0142475940 0 0
-0.0003405240 -0.0162220340 0 0
0.0003216580 -0.0174513920 0 0
0.0007915990 -0.0178958450 0 0
0.0010338270 -0.0176101840 0 0
0.0010456280 -0.0167300200 0 0
0.0008586530 -0.0154448240 0 0
0.0005339600 -0.0139663300 0 0
0.0001510930 -0.0125005050 0 0
-0.0002051680 -0.0112268680 0 0
-0.0004558360 -0.0102851050 0 0
-0.0005352040 -0.0097677940 0 0
-0.0003969980 -0.0097173400 0 0
-0.0000205687 -0.0101248110 0 0
0.0005852100 -0.0109297040 0 0
0.0013836800 -0.0120221500 0 0
0.0023178490 -0.0132503890 0 0
0.0033201490 -0.0144353550 0 0
0.0043208960 -0.0153913950 0 0
0.0052537620 -0.0159496340 0 0
0.0060584760 -0.0159797100 0 0
0.0066824900 -0.0154064380 0 0
0.0070841340 -0.0142187160 0 0
0.0072378570 -0.0124693570 0 0
0.0071384030 -0.0102675890 0 0
0.0068006560 -0.0077678100 0 0
0.0062565590 -0.0051568570 0 0
0.0055529960 -0.0026395170 0 0
0.0047511380 -0.0004210330 0 0
0.0039245500 0.0013128470 0 0
0.0031544300 0.0024149040 0 0
0.0025219430 0.0027905910 0 0
0.0020980310 0.0024054310 0 0
0.0019332540 0.0012860700 0 0
0.0020521060 -0.0004832320 0 0
0.0024530390 -0.0027664510 0 0
0.0031116680 -0.0053833670 0 0
0.0039850860 -0.0081206860 0 0
0.0050158550 -0.0107484600 0 0
0.0061337200 -0.0130411560 0 0
0.0072557950 -0.0148008450 0 0
0.0082890910 -0.0158790880 0 0
0.0091378710 -0.0161937740 0 0
0.0097145880 -0.0157379640 0 0
0.0099516640 -0.0145792850 0 0
0.0098112530 -0.0128503040 0 0
0.0092905220 -0.0107326550 0 0
0.0084219690 -0.0084384770 0 0
0.0072707040 -0.0061910300 0 0
0.0059309690 -0.0042054540 0 0
0.0045214660 -0.0026712880 0 0
0.0031765390 -0.0017375570 0 0
0.0020313340 -0.0014993920 0 0
0.0012033360 -0.0019861790 0 0
0.0007757000 -0.0031537940 0 0
0.0007866420 -0.0048846380 0 0
0.0012261700 -0.0069982470 0 0
0.0020407470 -0.0092720250 0 0
0.0031454310 -0.0114677320 0 0
0.0044385510 -0.0133583780 0 0
0.0058118970 -0.0147528180 0 0
0.0071542170 -0.0155172830 0 0
0.0083527920 -0.0155913230 0 0
0.0092995860 -0.0149935240 0 0
0.0099035090 -0.0138146840 0 0
0.0101036740 -0.0122008890 0 0
0.0098778140 -0.0103316020 0 0
0.0092449850 -0.0083978630 0 0
0.0082642220 -0.0065844190 0 0
0.0070290890 -0.0050573130 0 0
0.0056586680 -0.0039558880 0 0
0.0042870780 -0.0033872850 0 0
0.0030509190 -0.0034224640 0 0
0.0020727510 -0.0040934020 0 0
0.0014435740 -0.0053903290 0 0
0.0012099740 -0.0072573740 0 0
0.0013686310 -0.0095875100 0 0
0.0018683550 -0.0122209220 0 0
0.0026190230 -0.0149505330 0 0
0.0035054520 -0.0175362010 0 0
0.0044036610 -0.0197280080 0 0
0.0051973330 -0.0212967860 0 0
0.0057923920 -0.0220655850 0 0
0.0061274250 -0.0219344970 0 0
0.0061778820 -0.0208945420 0 0
0.0059536490 -0.0190300380 0 0
0.0054918230 -0.0165100250 0 0
0.0048478000 -0.0135696130 0 0
0.0040882540 -0.0104833690 0 0
0.0032874640 -0.0075344680 0 0
0.0025241090 -0.0049840580 0 0
0.0018741560 -0.0030448440 0 0
0.0013999570 -0.0018625660 0 0
0.0011415070 -0.0015076440 0 0
0.0011154360 -0.0019758910 0 0
0.0013203510 -0.0031945310 0 0
0.0017424240 -0.0050305130 0 0
0.0023578210 -0.0073009740 0 0
0.0031335800 -0.0097871790 0 0
0.0040294640 -0.0122523300 0 0
0.0050007730 -0.0144623560 0 0
0.0060004080 -0.0162081760 0 0
0.0069788580 -0.0173266560 0 0
0.0078821980 -0.0177169370 0 0
0.0086512290 -0.0173508460 0 0
0.0092270080 -0.0162777900 0 0
0.0095644570 -0.0146233770 0 0
0.0096483080 -0.0125795500 0 0
0.0095020930 -0.0103849050 0 0
0.0091845840 -0.0082969290 0 0
0.0087750930 -0.0065613840 0 0
0.0083551260 -0.0053846230 0 0
0.0079954200 -0.0049123850 0 0
0.0077517970 -0.0052163530 0 0
0.0076656850 -0.0062880260 0 0
0.0077637130 -0.0080387950 0 0
0.0080545010 -0.0103064660 0 0
0.0085240620 -0.0128697740 0 0
0.0091326180 -0.0154710210 0 0
0.0098159490 -0.0178437270 0 0
0.0104928770 -0.0197407210 0 0
0.0110773030 -0.0209596250 0 0
0.0114910750 -0.0213642460 0 0
0.0116740840 -0.0208996130 0 0
0.0115900080 -0.0195983540 0 0
0.0112284980 -0.0175777290 0 0
0.0106052470 -0.0150275180 0 0
0.0097611910 -0.0121898750 0 0
0.0087614540 -0.0093337570 0 0
0.0076917490 -0.0067270960 0 0
0.0066490750 -0.0046092380 0 0
0.0057280870 -0.0031662040 0 0
0.0050080580 -0.0025123300 0 0
0.0045433360 -0.0026820280 0 0
0.0043574470 -0.0036327790 0 0
0.0044411280 -0.0052565960 0 0
0.0047547780 -0.0073952360 0 0
0.0052349770 -0.0098557610 0 0
0.0058043460 -0.0124257160 0 0
0.0063826480 -0.0148884120 0 0
0.0068956020 -0.0170383120 0 0
0.0072796190 -0.0186960340 0 0
0.0074839350 -0.0197228660 0 0
0.0074728010 -0.0200345130 0 0
0.0072291150 -0.0196119220 0 0
0.0067582110 -0.0185054600 0 0
0.0060890330 -0.0168303660 0 0
0.0052714830 -0.0147550380 0 0
0.0043710090 -0.0124852380 0 0
0.0034620500 -0.0102455220 0 0
0.0026216900 -0.0082573690 0 0
0.0019242760 -0.0067147420 0 0
0.0014360040 -0.0057611520 0 0
0.0012079730 -0.0054730250 0 0
0.0012686080 -0.0058513440 0 0
0.0016188640 -0.0068213100 0 0
0.0022322980 -0.0082396310 0 0
0.0030582530 -0.0099093110 0 0
0.0040256980 -0.0116011340 0 0
0.0050487260 -0.0130798310 0 0
0.0060361970 -0.0141317660 0 0
0.0069045710 -0.0145903690 0 0
0.0075891410 -0.0143558120 0 0
0.0080501020 -0.0134067790 0 0
0.0082732850 -0.0118036980 0 0
0.0082666980 -0.0096833470 0 0
0.0080536710 -0.0072447660 0 0
0.0076640020 -0.0047279470 0 0
0.0071262960 -0.0023888240 0 0
0.0064651530 -0.0004741420 0 0
0.0057035480 0.0008016640 0 0
0.0048669450 0.0012762530 0 0
0.0039852050 0.0008544390 0 0
0.0030900450 -0.0004822230 0 0
0.0022079610 -0.0026712160 0 0
0.0013509830 -0.0055706960 0 0
0.0005093970 -0.0089693200 0 0
-0.0003497820 -0.0126061770 0 0
-0.0012777380 -0.0161991200 0 0
-0.0023346760 -0.0194765370 0 0
-0.0035797660 -0.0222067530 0 0
-0.0050621830 -0.0242204950 0 0
-0.0068142020 -0.0254249830 0 0
-0.0088469760 -0.0258107920 0 0
-0.0111489850 -0.0254519010 0 0
-0.0136864380 -0.0244974070 0 0
-0.0164054750 -0.0231541810 0 0
-0.0192375060 -0.0216632150 0 0
-0.0221081520 -0.0202745860 0 0
-0.0249467620 -0.0192248220 0 0
-0.0276927600 -0.0187177220 0 0
-0.0302990910 -0.0189080610 -1 0
-0.0327356970 -0.0198885000 -1 0
-0.0349929630 -0.0216812120 -1 0
-0.0370814340 -0.0242351910 -1 0
-0.0390267130 -0.0274293090 -1 0
-0.0408630180 -0.0310812420 -1 -1
-0.0426284220 -0.0349625300 -1 -1
-0.0443624530 -0.0388192350 -1 -1
-0.0461070510 -0.0423967570 -1 -1
-0.0479107910 -0.0454670450 -1 -1
-0.0498323270 -0.0478553220 -1 -1
-0.0519371630 -0.0494614540 -1 -1
-0.0542851230 -0.0502712800 -1 -1
-0.0569123480 -0.0503561050 -1 -1
-0.0598166550 -0.0498610660 -1 -1
-0.0629543670 -0.0489843610 -1 -1
-0.0662502140 -0.0479509110 -1 -1
-0.0696142330 -0.0469858000 -1 -1
-0.0729568280 -0.0462925160 -1 -1
-0.0761963740 -0.0460382080 -1 -1
-0.0792595470 -0.0463447880 -1 -1
-0.0820792450 -0.0472831230 -1 -1
-0.0845958940 -0.0488683890 -1 -1
-0.0867641100 -0.0510564560 -1 -1
-0.0885617540 -0.0537428210 -1 -1
-0.0899973790 -0.0567668710 -1 -1
-0.0911138950 -0.0599238070 -1 -1
-0.0919869100 -0.0629839070 -1 -1
-0.0927163840 -0.0657166320 -1 -1
-0.0934117750 -0.0679165490 -1 -1
-0.0941733040 -0.0694275340 -1 -1
-0.0950751720 -0.0701610740 -1 -1
-0.0961580950 -0.0701062190 -1 -1
-0.0974338320 -0.0693315280 -1 -1
-0.0988961330 -0.0679797860 -1 -1
-0.1005293210 -0.0662551430 -1 -1
-0.1023104380 -0.0644027190 -1 -1
-0.1042076200 -0.0626826620 -1 -1
-0.1061790870 -0.0613416030 -1 -1
-0.1081737990 -0.0605844520 -1 -1
-0.1101320410 -0.0605505070 -1 -1
-0.1119849670 -0.0612986530 -1 -1
-0.1136554540 -0.0628039110 -1 -1
-0.1150636420 -0.0649635350 -1 -1
-0.1161369690 -0.0676095920 -1 -1
-0.1168213620 -0.0705266120 -1 -1
-0.1170912130 -0.0734734980 -1 -1
-0.1169569960 -0.0762072980 -1 -1
-0.1164683690 -0.0785055690 -1 -1
-0.1157104510 -0.0801856940 -1 -1
-0.1147938730 -0.0811211940 -1 -1
-0.1138413100 -0.0812542800 -1 -1
-0.1129726270 -0.0806024310 -1 -1
-0.1122902400 -0.0792572650 -1 -1
-0.1118670470 -0.0773755700 -1 -1
-0.1117394810 -0.0751632880 -1 -1
-0.1119069210 -0.0728541150 -1 -1
-0.1123359010 -0.0706858410 -1 -1
-0.1129669090 -0.0688779330 -1 -1
-0.1137233910 -0.0676124960 -1 -1
-0.1145227280 -0.0670193840 -1 -1
-0.1152867330 -0.0671659470 -1 -1
-0.1159483130 -0.0680521030 -1 -1
-0.1164529690 -0.0696110490 -1 -1
-0.1167575780 -0.0717156500 -1 -1
-0.1168305910 -0.0741904310 -1 -1
-0.1166558320 -0.0768278160 -1 -1
-0.1162392490 -0.0794060270 -1 -1
-0.1156155410 -0.0817067000 -1 -1
-0.1148500570 -0.0835320090 -1 -1
-0.1140329090 -0.0847219240 -1 -1
-0.1132660900 -0.0851713150 -1 -1
-0.1126469640 -0.0848442610 -1 -1
-0.1122519330 -0.0837809790 -1 -1
-0.1121238590 -0.0820941670 -1 -1
-0.1122659950 -0.0799559050 -1 -1
-0.1126434470 -0.0775791920 -1 -1
-0.1131904350 -0.0751975540 -1 -1
-0.1138200530 -0.0730440460 -1 -1
-0.1144349850 -0.0713301530 -1 -1
-0.1149391750 -0.0702258430 -1 -1
-0.1152495330 -0.0698433250 -1 -1
-0.1153059620 -0.0702269960 -1 -1
-0.1150780440 -0.0713499900 -1 -1
-0.1145667690 -0.0731156760 -1 -1
-0.1138010780 -0.0753628180 -1 -1
-0.1128317020 -0.0778753180 -1 -1
-0.1117255360 -0.0803988000 -1 -1
-0.1105614080 -0.0826648930 -1 -1
-0.1094254820 -0.0844210730 -1 -1
-0.1084047700 -0.0854613640 -1 -1
-0.1075794470 -0.0856522570 -1 -1
-0.1070154380 -0.0849489480 -1 -1
-0.1067573140 -0.0833996310 -1 -1
-0.1068217070 -0.0811389830 -1 -1
-0.1071942950 -0.0783741100 -1 -1
-0.1078332090 -0.0753660440 -1 -1
-0.1086764030 -0.0724076560 -1 -1
-0.1096479000 -0.0697973700 -1 -1
-0.1106619670 -0.0678088150 -1 -1
-0.1116288420 -0.0666591810 -1 -1
-0.1124639960 -0.0664815870 -1 -1
-0.1130983320 -0.0673069850 -1 -1
-0.1134859480 -0.0690585430 -1 -1
-0.1136081680 -0.0715593910 -1 -1
-0.1134731630 -0.0745533410 -1 -1
-0.1131117510 -0.0777351690 -1 -1
-0.1125719600 -0.0807843770 -1 -1
-0.1119134510 -0.0833974910 -1 -1
-0.1112000300 -0.0853167420 -1 -1
-0.1104900380 -0.0863538360 -1 -1
-0.1098283950 -0.0864071190 -1 -1
-0.1092447870 -0.0854702750 -1 -1
-0.1087579150 -0.0836313350 -1 -1
-0.1083808540 -0.0810620950 -1 -1
-0.1081229070 -0.0779991170 -1 -1
-0.1079871950 -0.0747178980 -1 -1
-0.1079659310 -0.0715029420 -1 -1
-0.1080360000 -0.0686181940 -1 -1
-0.1081571380 -0.0662824500 -1 -1
-0.1082746350 -0.0646528400 -1 -1
-0.1083272530 -0.0638174570 -1 -1
-0.1082578140 -0.0637951740 -1 -1
-0.1080223490 -0.0645383270 -1 -1
-0.1075961620 -0.0659359700 -1 -1
-0.1069778440 -0.0678199990 -1 -1
-0.1061911530 -0.0699778740 -1 -1
-0.1052828260 -0.0721730380 -1 -1
-0.1043162410 -0.0741701180 -1 -1
-0.1033635750 -0.0757598040 -1 -1
-0.1024987670 -0.0767789920 -1 -1
-0.1017917930 -0.0771236750 -1 -1
-0.1013044080 -0.0767543580 -1 -1
-0.1010874480 -0.0756961920 -1 -1
-0.1011784340 -0.0740362160 -1 -1
-0.1015972200 -0.0719177960 -1 -1
-0.1023395190 -0.0695302600 -1 -1
-0.1033717800 -0.0670921540 -1 -1
-0.1046316120 -0.0648294830 -1 -1
-0.1060337420 -0.0629533030 -1 -1
-0.1074779470 -0.0616409270 -1 -1
-0.1088571520 -0.0610227620 -1 -1
-0.1100664570 -0.0611745500 -1 -1
-0.1110130870 -0.0621132000 -1 -1
-0.1116258940 -0.0637940690 -1 -1
-0.1118630410 -0.0661090690 -1 -1
-0.1117168770 -0.0688873010 -1 -1
-0.1112157890 -0.0719016790 -1 -1
-0.1104228290 -0.0748843790 -1 -1
-0.1094292180 -0.0775514680 -1 -1
-0.1083416690 -0.0796344460 -1 -1
-0.1072666420 -0.0809140070 -1 -1
-0.1062963340 -0.0812495030 -1 -1
-0.1054995020 -0.0805981420 -1 -1
-0.1049178690 -0.0790210000 -1 -1
-0.1045665500 -0.0766759670 -1 -1
-0.1044359100 -0.0737992270 -1 -1
-0.1044933040 -0.0706780710 -1 -1
-0.1046848970 -0.0676187660 -1 -1
-0.1049386200 -0.0649129400 -1 -1
-0.1051692710 -0.0628053660 -1 -1
-0.1052869960 -0.0614664770 -1 -1
-0.1052100910 -0.0609733510 -1 -1
-0.1048800540 -0.0613023920 -1 -1
-0.1042729760 -0.0623349970 -1 -1
-0.1034022830 -0.0638751550 -1 -1
-0.1023137530 -0.0656761420 -1 -1
-0.1010775090 -0.0674720940 -1 -1
-0.0997794080 -0.0690098610 -1 -1
-0.0985115230 -0.0700771340 -1 -1
-0.0973625870 -0.0705232210 -1 -1
-0.0964105180 -0.0702698090 -1 -1
-0.0957168770 -0.0693121490 -1 -1
-0.0953213220 -0.0677137410 -1 -1
-0.0952363370 -0.0655971300 -1 -1
-0.0954450190 -0.0631319070 -1 -1
-0.0959034370 -0.0605205900 -1 -1
-0.0965467310 -0.0579826340 -1 -1
-0.0972976970 -0.0557364240 -1 -1
-0.0980760970 -0.0539797330 -1 -1
-0.0988065550 -0.0528701890 -1 -1
-0.0994241620 -0.0525081200 -1 -1
-0.0998785170 -0.0529241820 -1 -1
-0.1001371780 -0.0540734670 -1 -1
-0.1001881570 -0.0558371940 -1 -1
-0.1000393140 -0.0580332000 -1 -1
-0.0997135830 -0.0604352920 -1 -1
-0.0992430740 -0.0627986560 -1 -1
-0.0986667380 -0.0648864650 -1 -1
-0.0980323970 -0.0664937170 -1 -1
-0.0973984470 -0.0674667760 -1 -1
-0.0968297490 -0.0677181910 -1 -1
-0.0963864030 -0.0672357410 -1 -1
-0.0961094290 -0.0660838410 -1 -1
-0.0960106560 -0.0643958030 -1 -1
-0.0960715000 -0.0623579870 -1 -1
-0.0962481940 -0.0601895790 -1 -1
-0.0964787140 -0.0581214550 -1 -1
-0.0966906990 -0.0563751080 -1 -1
-0.0968115260 -0.0551420720 -1 -1
-0.0967790010 -0.0545660320 -1 -1
-0.0965491020 -0.0547305610 -1 -1
-0.0960985360 -0.0556538600 -1 -1
-0.0954232270 -0.0572897880 -1 -1
-0.0945358470 -0.0595335710 -1 -1
-0.0934646850 -0.0622316100 -1 -1
-0.0922540230 -0.0651958420 -1 -1
-0.0909642130 -0.0682213910 -1 -1
-0.0896694200 -0.0711036190 -1 -1
-0.0884525810 -0.0736512880 -1 -1
-0.0873980870 -0.0756964030 -1 -1
-0.0865828630 -0.0771036070 -1 -1
-0.0860675490 -0.0777809100 -1 -1
-0.0858901110 -0.0776913410 -1 -1
-0.0860636620 -0.0768627790 -1 -1
-0.0865781950 -0.0753916630 -1 -1
-0.0874034260 -0.0734369160 -1 -1
-0.0884903080 -0.0712036120 -1 -1
-0.0897718990 -0.0689193780 -1 -1
-0.0911660180 -0.0668085230 -1 -1
-0.0925807740 -0.0650686830 -1 -1
-0.0939216600 -0.0638529240 -1 -1
-0.0950983100 -0.0632574990 -1 -1
-0.0960306120 -0.0633137670 -1 -1
-0.0966552250 -0.0639837900 -1 -1
-0.0969329470 -0.0651611070 -1 -1
-0.0968551960 -0.0666786590 -1 -1
-0.0964464260 -0.0683248080 -1 -1
-0.0957613970 -0.0698667520 -1 -1
-0.0948791690 -0.0710783910 -1 -1
-0.0938951450 -0.0717681490 -1 -1
-0.0929107380 -0.0718025620 -1 -1
-0.0920216240 -0.0711225880 -1 -1
-0.0913075000 -0.0697510390 -1 -1
-0.0908251170 -0.0677909280 -1 -1
-0.0906040770 -0.0654149440 -1 -1
-0.0906448530 -0.0628465240 -1 -1
-0.0909196180 -0.0603346250 -1 -1
-0.0913764770 -0.0581264880 -1 -1
-0.0919465250 -0.0564425840 -1 -1
-0.0925524280 -0.0554558920 -1 -1
-0.0931174890 -0.0552761340 -1 -1
-0.0935744850 -0.0559393830 -1 -1
-0.0938727030 -0.0574033500 -1 -1
-0.0939817680 -0.0595485020 -1 -1
-0.0938928510 -0.0621853150 -1 -1
-0.0936184000 -0.0650684970 -1 -1
-0.0931898270 -0.0679193760 -1 -1
-0.0926522790 -0.0704563050 -1 -1
-0.0920580380 -0.0724291620 -1 -1
-0.0914615530 -0.0736502040 -1 -1
-0.0909169090 -0.0740136620 -1 -1
-0.0904752640 -0.0735016280 -1 -1
-0.0901802440 -0.0721792200 -1 -1
-0.0900621020 -0.0701830060 -1 -1
-0.0901322720 -0.0677047200 -1 -1
-0.0903792070 -0.0649717570 -1 -1
-0.0907671890 -0.0622269400 -1 -1
-0.0912408100 -0.0597098150 -1 -1
-0.0917345720 -0.0576398580 -1 -1
-0.0921825430 -0.0562011310 -1 -1
-0.0925241900 -0.0555286730 -1 -1
-0.0927080520 -0.0556969150 -1 -1
-0.0926973490 -0.0567098080 -1 -1
-0.0924780890 -0.0584938130 -1 -1
-0.0920646170 -0.0608975480 -1 -1
-0.0914975340 -0.0637016830 -1 -1
-0.0908357640 -0.0666393260 -1 -1
-0.0901484440 -0.0694240650 -1 -1
-0.0895084950 -0.0717821110 -1 -1
-0.0889864800 -0.0734848950 -1 -1
-0.0886441820 -0.0743774680 -1 -1
-0.0885278070 -0.0743973490 -1 -1
-0.0886608030 -0.0735794680 -1 -1
-0.0890386870 -0.0720460250 -1 -1
-0.0896294250 -0.0699844460 -1 -1
-0.0903795840 -0.0676197690 -1 -1
-0.0912230930 -0.0651878300 -1 -1
-0.0920899410 -0.0629133350 -1 -1
-0.0929140750 -0.0609939670 -1 -1
-0.0936399250 -0.0595889810 -1 -1
-0.0942261000 -0.0588095340 -1 -1
-0.0946453060 -0.0587093910 -1 -1
-0.0948818420 -0.0592774220 -1 -1
-0.0949298730 -0.0604346520 -1 -1
-0.0947948800 -0.0620383820 -1 -1
-0.0944966420 -0.0638954230 -1 -1
-0.0940691020 -0.0657849470 -1 -1
-0.0935557150 -0.0674877580 -1 -1
-0.0930045080 -0.0688149870 -1 -1
-0.0924659160 -0.0696292070 -1 -1
-0.0919912690 -0.0698547520 -1 -1
-0.0916291770 -0.0694787520 -1 -1
-0.0914200240 -0.0685468810 -1 -1
-0.0913900260 -0.0671565390 -1 -1
-0.0915464810 -0.0654477250 -1 -1
-0.0918758900 -0.0635910360 -1 -1
-0.0923454330 -0.0617723840 -1 -1
-0.0929071090 -0.0601745010 -1 -1
-0.0935039670 -0.0589569910 -1 -1
-0.0940772420 -0.0582385130 -1 -1
-0.0945715770 -0.0580843310 -1 -1
-0.0949370720 -0.0584998950 -1 -1
-0.0951309740 -0.0594296170 -1 -1
-0.0951216890 -0.0607609080 -1 -1
-0.0948938860 -0.0623344660 -1 -1
-0.0944522100 -0.0639609470 -1 -1
-0.0938224030 -0.0654419870 -1 -1
-0.0930494250 -0.0665919650 -1 -1
-0.0921925730 -0.0672570900 -1 -1
-0.0913189290 -0.0673301060 -1 -1
-0.0904974000 -0.0667597220 -1 -1
-0.0897940160 -0.0655541960 -1 -1
-0.0892670110 -0.0637797760 -1 -1
-0.0889608190 -0.0615552730 -1 -1
-0.0888996380 -0.0590431920 -1 -1
-0.0890824560 -0.0564377110 -1 -1
-0.0894820430 -0.0539503730 -1 -1
-0.0900490190 -0.0517934310 -1 -1
-0.0907194310 -0.0501600550 -1 -1
-0.0914234690 -0.0492027580 -1 -1
-0.0920937340 -0.0490147920 -1 -1
-0.0926721100 -0.0496194740 -1 -1
-0.0931141620 -0.0509692810 -1 -1
-0.0933900860 -0.0529526680 -1 -1
-0.0934824050 -0.0554046920 -1 -1
-0.0933831040 -0.0581191480 -1 -1
-0.0930942970 -0.0608631080 -1 -1
-0.0926334470 -0.0633962430 -1 -1
-0.0920391540 -0.0654954310 -1 -1
-0.0913722920 -0.0669813750 -1 -1
-0.0907100510 -0.0677412870 -1 -1
-0.0901346230 -0.0677425830 -1 -1
-0.0897205720 -0.0670356020 -1 -1
-0.0895237180 -0.0657455070 -1 -1
-0.0895725070 -0.0640548700 -1 -1
-0.0898635110 -0.0621801690 -1 -1
-0.0903629770 -0.0603462490 -1 -1
-0.0910136210 -0.0587625950 -1 -1
-0.0917433330 -0.0576046860 -1 -1
-0.0924735860 -0.0570013980 -1 -1
-0.0931280300 -0.0570262450 -1 -1
-0.0936415660 -0.0576898910 -1 -1
-0.0939679920 -0.0589349090 -1 -1
-0.0940844960 -0.0606366360 -1 -1
-0.0939929150 -0.0626128270 -1 -1
-0.0937177380 -0.0646414730 -1 -1
-0.0933009480 -0.0664845560 -1 -1
-0.0927949450 -0.0679158260 -1 -1
-0.0922556240 -0.0687496930 -1 -1
-0.0917372820 -0.0688656900 -1 -1
-0.0912891880 -0.0682226880 -1 -1
-0.0909526730 -0.0668607950 -1 -1
-0.0907584750 -0.0648926670 -1 -1
-0.0907247670 -0.0624875750 -1 -1
-0.0908554950 -0.0598515980 -1 -1
-0.0911385530 -0.0572065900 -1 -1
-0.0915446120 -0.0547696930 -1 -1
-0.0920279830 -0.0527346730 -1 -1
-0.0925300050 -0.0512563740 -1 -1
-0.0929847960 -0.0504393870 -1 -1
-0.0933269790 -0.0503309400 -1 -1
-0.0935006380 -0.0509173290 -1 -1
-0.0934677960 -0.0521238450 -1 -1
-0.0932137930 -0.0538190860 -1 -1
-0.0927482260 -0.0558243120 -1 -1
-0.0921024950 -0.0579278870 -1 -1
-0.0913254010 -0.0599037280 -1 -1
-0.0904778910 -0.0615317710 -1 -1
-0.0896278050 -0.0626187470 -1 -1
-0.0888446350 -0.0630176070 -1 -1
-0.0881939220 -0.0626432280 -1 -1
-0.0877317350 -0.0614824520 -1 -1
-0.0874999340 -0.0595981200 -1 -1
-0.0875222380 -0.0571275860 -1 -1
-0.0878008390 -0.0542755150 -1 -1
-0.0883142160 -0.0512991620 -1 -1
-0.0890174250 -0.0484841280 -1 -1
-0.0898450690 -0.0461117030 -1 -1
-0.0907163130 -0.0444232220 -1 -1
-0.0915421320 -0.0435889920 -1 -1
-0.0922342480 -0.0436881020 -1 -1
-0.0927130320 -0.0447016890 -1 -1
-0.0929135730 -0.0465182600 -1 -1
-0.0927924900 -0.0489482890 -1 -1
-0.0923360310 -0.0517462660 -1 -1
-0.0915654100 -0.0546383240 -1 -1
-0.0905351070 -0.0573519370 -1 -1
-0.0893237610 -0.0596438060 -1 -1
-0.0880210360 -0.0613227130 -1 -1
-0.0867149640 -0.0622650430 -1 -1
-0.0854830660 -0.0624225850 -1 -1
-0.0843885630 -0.0618241300 -1 -1
-0.0834807480 -0.0605713780 -1 -1
-0.0827961320 -0.0588279300 -1 -1
-0.0823568750 -0.0568013980 -1 -1
-0.0821667990 -0.0547210200 -1 -1
-0.0822086510 -0.0528136850 -1 -1
-0.0824443830 -0.0512809090 -1 -1
-0.0828168350 -0.0502791910 -1 -1
-0.0832527010 -0.0499057860 -1 -1
-0.0836701090 -0.0501909160 -1 -1
-0.0839918700 -0.0510967050 -1 -1
-0.0841600040 -0.0525226090 -1 -1
-0.0841461500 -0.0543161330 -1 -1
-0.0839552300 -0.0562869310 -1 -1
-0.0836220880 -0.0582230830 -1 -1
-0.0832035380 -0.0599094760 -1 -1
-0.0827697240 -0.0611475320 -1 -1
-0.0823962620 -0.0617739990 -1 -1
-0.0821557250 -0.0616765500 -1 -1
-0.0821085290 -0.0608050280 -1 -1
-0.0822958550 -0.0591774700 -1 -1
-0.0827356880 -0.0568801880 -1 -1
-0.0834201230 -0.0540623360 -1 -1
-0.0843138330 -0.0509257500 -1 -1
-0.0853566370 -0.0477098780 -1 -1
-0.0864710380 -0.0446718160 -1 -1
-0.0875711570 -0.0420628560 -1 -1
-0.0885698100 -0.0401036660 -1 -1
-0.0893849440 -0.0389603540 -1 -1
-0.0899481230 -0.0387246660 -1 -1
-0.0902144390 -0.0394023320 -1 -1
-0.0901702300 -0.0409119120 -1 -1
-0.0898359000 -0.0430937010 -1 -1
-0.0892636130 -0.0457265000 -1 -1
-0.0885305990 -0.0485498250 -1 -1
-0.0877292120 -0.0512894410 -1 -1
-0.0869550210 -0.0536842570 -1 -1
-0.0862940870 -0.0555120020 -1 -1
-0.0858112760 -0.0566105910 -1 -1
-0.0855427320 -0.0568923290 -1 -1
-0.0854945450 -0.0563494670 -1 -1
-0.0856465380 -0.0550519490 -1 -1
-0.0859587050 -0.0531398760 -1 -1
-0.0863790100 -0.0508126460 -1 -1
-0.0868515680 -0.0483148740 -1 -1
-0.0873233560 -0.0459178340 -1 -1
-0.0877483490 -0.0438952380 -1 -1
-0.0880895000 -0.0424937000 -1 -1
-0.0883188530 -0.0419007610 -1 -1
-0.0884156520 -0.0422164160 -1 -1
-0.0883641310 -0.0434361820 -1 -1
-0.0881544760 -0.0454513830 -1 -1
-0.0877882830 -0.0480656260 -1 -1
-0.0872847530 -0.0510210770 -1 -1
-0.0866817270 -0.0540282120 -1 -1
-0.0860294270 -0.0567960970 -1 -1
-0.0853806350 -0.0590621810 -1 -1
-0.0847829050 -0.0606196740 -1 -1
-0.0842757760 -0.0613393890 -1 -1
-0.0838920550 -0.0611831350 -1 -1
-0.0836595150 -0.0602064810 -1 -1
-0.0835997840 -0.0585496410 -1 -1
-0.0837244640 -0.0564172550 -1 -1
-0.0840312230 -0.0540506780 -1 -1
-0.0845018750 -0.0516979950 -1 -1
-0.0851021600 -0.0495863690 -1 -1
-0.0857825190 -0.0479000030 -1 -1
-0.0864808390 -0.0467660090 -1 -1
-0.0871285890 -0.0462488730 -1 -1
-0.0876589480 -0.0463522120 -1 -1
-0.0880140140 -0.0470257380 -1 -1
-0.0881502560 -0.0481756030 -1 -1
-0.0880430070 -0.0496761100 -1 -1
-0.0876903940 -0.0513806150 -1 -1
-0.0871164830 -0.0531304260 -1 -1
-0.0863721530 -0.0547628220 -1 -1
-0.0855314380 -0.0561204640 -1 -1
-0.0846832530 -0.0570623480 -1 -1
-0.0839207660 -0.0574748020 -1 -1
-0.0833306500 -0.0572819520 -1 -1
-0.0829835640 -0.0564558460 -1 -1
-0.0829265140 -0.0550253680 -1 -1
-0.0831773960 -0.0530811390 -1 -1
-0.0837219830 -0.0507728290 -1 -1
-0.0845140030 -0.0482974730 -1 -1
-0.0854793930 -0.0458809330 -1 -1
-0.0865252770 -0.0437559910 -1 -1
-0.0875522000 -0.0421397020 -1 -1
-0.0884663840 -0.0412117130 -1 -1
-0.0891890810 -0.0410945930 -1 -1
-0.0896615560 -0.0418370350 -1 -1
-0.0898459750 -0.0434020200 -1 -1
-0.0897245360 -0.0456637010 -1 -1
-0.0892995610 -0.0484159130 -1 -1
-0.0885946830 -0.0513920680 -1 -1
-0.0876555760 -0.0542936330 -1 -1
-0.0865498360 -0.0568235960 -1 -1
-0.0853658950 -0.0587211890 -1 -1
-0.0842089960 -0.0597935490 -1 -1
-0.0831916040 -0.0599390570 -1 -1
-0.0824180780 -0.0591572000 -1 -1
-0.0819667590 -0.0575431330 -1 -1
-0.0818753160 -0.0552703260 -1 -1
-0.0821352850 -0.0525667470 -1 -1
-0.0826969340 -0.0496884130 -1 -1
-0.0834797170 -0.0468933190 -1 -1
-0.0843828150 -0.0444184970 -1 -1
-0.0852941290 -0.0424613800 -1 -1
-0.0860992600 -0.0411652290 -1 -1
-0.0866920530 -0.0406088000 -1 -1
-0.0869863150 -0.0408013330 -1 -1
-0.0869265340 -0.0416842560 -1 -1
-0.0864947870 -0.0431393990 -1 -1
-0.0857123430 -0.0450012460 -1 -1
-0.0846365210 -0.0470714400 -1 -1
-0.0833538930 -0.0491357160 -1 -1
-0.0819702700 -0.0509823610 -1 -1
-0.0805983210 -0.0524197680 -1 -1
-0.0793448850 -0.0532920900 -1 -1
-0.0783000180 -0.0534936240 -1 -1
-0.0775292960 -0.0529811450 -1 -1
-0.0770713470 -0.0517810730 -1 -1
-0.0769407870 -0.0499885570 -1 -1
-0.0771321220 -0.0477582310 -1 -1
-0.0776194030 -0.0452885790 -1 -1
-0.0783522450 -0.0428020090 -1 -1
-0.0792542220 -0.0405227130 -1 -1
-0.0802283800 -0.0386550850 -1 -1
-0.0811693260 -0.0373655880 -1 -1
-0.0819779720 -0.0367695120 -1 -1
-0.0825747100 -0.0369222970 -1 -1
-0.0829078600 -0.0378141070 -1 -1
-0.0829558470 -0.0393669400 -1 -1
-0.0827242500 -0.0414357630 -1 -1
-0.0822415020 -0.0438168450 -1 -1
-0.0815559070 -0.0462653250 -1 -1
-0.0807332080 -0.0485205520 -1 -1
-0.0798523690 -0.0503354000 -1 -1
-0.0789983890 -0.0515057630 -1 -1
-0.0782527580 -0.0518966380 -1 -1
-0.0776833440 -0.0514605140 -1 -1
-0.0773360340 -0.0502440940 -1 -1
-0.0772301120 -0.0483821970 -1 -1
-0.0773580620 -0.0460814150 -1 -1
-0.0776896470 -0.0435977330 -1 -1
-0.0781793600 -0.0412107660 -1 -1
-0.0787748250 -0.0391950860 -1 -1
-0.0794230480 -0.0377893540 -1 -1
-0.0800730490 -0.0371665340 -1 -1
-0.0806761790 -0.0374111540 -1 -1
-0.0811871820 -0.0385095640 -1 -1
-0.0815681580 -0.0403551870 -1 -1
-0.0817942320 -0.0427655480 -1 -1
-0.0818575520 -0.0455058370 -1 -1
-0.0817678490 -0.0483149390 -1 -1
-0.0815505340 -0.0509308280 -1 -1
-0.0812431790 -0.0531131280 -1 -1
-0.0808902630 -0.0546622490 -1 -1
-0.0805368020 -0.0554352250 -1 -1
-0.0802226960 -0.0553573870 -1 -1
-0.0799797940 -0.0544280730 -1 -1
-0.0798319040 -0.0527194850 -1 -1
-0.0797949190 -0.0503699660 -1 -1
-0.0798743710 -0.0475733020 -1 -1
-0.0800615960 -0.0445639960 -1 -1
-0.0803316050 -0.0415981310 -1 -1
-0.0806440810 -0.0389306770 -1 -1
-0.0809473140 -0.0367908720 -1 -1
-0.0811847900 -0.0353581120 -1 -1
-0.0813032650 -0.0347420520 -1 -1
-0.0812599640 -0.0349700660 -1 -1
-0.0810278960 -0.0359835850 -1 -1
-0.0806009150 -0.0376437470 -1 -1
-0.0799989850 -0.0397461120 -1 -1
-0.0792702570 -0.0420432260 -1 -1
-0.0784857350 -0.0442721400 -1 -1
-0.0777263480 -0.0461826860 -1 -1
-0.0770674720 -0.0475625010 -1 -1
-0.0765670370 -0.0482560230 -1 -1
-0.0762592440 -0.0481768870 -1 -1
-0.0761522960 -0.0473152720 -1 -1
-0.0762296000 -0.0457413150 -1 -1
-0.0764553770 -0.0436038710 -1 -1
-0.0767830890 -0.0411221800 -1 -1
-0.0771627450 -0.0385671940 -1 -1
-0.0775454360 -0.0362316510 -1 -1
-0.0778866070 -0.0343932220 -1 -1
-0.0781489560 -0.0332783610 -1 -1
-0.0783035800 -0.0330336400 -1 -1
-0.0783284800 -0.0337086460 -1 -1
-0.0782062140 -0.0352521920 -1 -1
-0.0779239750 -0.0375213610 -1 -1
-0.0774771680 -0.0403007310 -1 -1
-0.0768738570 -0.0433278640 -1 -1
-0.0761367610 -0.0463212650 -1 -1
-0.0753019360 -0.0490079330 -1 -1
-0.0744154570 -0.0511480730 -1 -1
-0.0735297830 -0.0525549430 -1 -1
-0.0727006860 -0.0531087210 -1 -1
-0.0719854860 -0.0527644420 -1 -1
-0.0714426270 -0.0515544160 -1 -1
-0.0711294020 -0.0495853100 -1 -1
-0.0710937800 -0.0470297530 -1 -1
-0.0713619690 -0.0441124370 -1 -1
-0.0719287520 -0.0410914380 -1 -1
-0.0727557890 -0.0382362170 -1 -1
-0.0737772420 -0.0358038500 -1 -1
-0.0749084460 -0.0340150630 -1 -1
-0.0760538780 -0.0330322030 -1 -1
-0.0771140170 -0.0329418800 -1 -1
-0.0779934060 -0.0337451750 -1 -1
-0.0786112600 -0.0353572060 -1 -1
-0.0789128110 -0.0376162200 -1 -1
-0.0788774600 -0.0403016260 -1 -1
-0.0785201450 -0.0431589720 -1 -1
-0.0778858250 -0.0459274540 -1 -1
-0.0770412420 -0.0483653970 -1 -1
-0.0760678760 -0.0502715620 -1 -1
-0.0750559800 -0.0515011420 -1 -1
-0.0740977320 -0.0519748340 -1 -1
-0.0732796180 -0.0516807460 -1 -1
-0.0726762230 -0.0506717440 -1 -1
-0.0723464240 -0.0490608640 -1 -1
-0.0723299930 -0.0470138160 -1 -1
-0.0726422440 -0.0447355210 -1 -1
-0.0732675130 -0.0424504170 -1 -1
-0.0741548050 -0.0403799340 -1 -1
-0.0752189980 -0.0387206450 -1 -1
-0.0763501040 -0.0376254260 -1 -1
-0.0774306500 -0.0371899550 -1 -1
-0.0783566400 -0.0374455510 -1 -1
-0.0790549610 -0.0383570380 -1 -1
-0.0794926720 -0.0398244780 -1 -1
-0.0796773310 -0.0416900950 -1 -1
-0.0796491290 -0.0437519770 -1 -1
-0.0794676680 -0.0457836020 -1 -1
-0.0791986050 -0.0475565770 -1 -1
-0.0789050100 -0.0488643930 -1 -1
-0.0786449070 -0.0495447530 -1 -1
-0.0784717610 -0.0494974440 -1 -1
-0.0784329280 -0.0486959010 -1 -1
-0.0785645960 -0.0471918830 -1 -1
-0.0788853920 -0.0451123190 -1 -1
-0.0793911120 -0.0426473250 -1 -1
-0.0800527750 -0.0400300700 -1 -1
-0.0808197030 -0.0375110440 -1 -1
-0.0816266560 -0.0353304050 -1 -1
-0.0824014420 -0.0336927280 -1 -1
-0.0830700330 -0.0327477810 -1 -1
-0.0835598800 -0.0325790760 -1 -1
-0.0838050460 -0.0332008940 -1 -1
-0.0837547570 -0.0345632100 -1 -1
-0.0833820070 -0.0365610530 -1 -1
-0.0826879580 -0.0390438390 -1 -1
-0.0817016360 -0.0418231670 -1 -1
-0.0804765620 -0.0446810860 -1 -1
-0.0790847330 -0.0473813380 -1 -1
-0.0776088270 -0.0496852950 -1 -1
-0.0761356130 -0.0513734870 -1 -1
-0.0747516200 -0.0522710480 -1 -1
-0.0735385520 -0.0522717990 -1 -1
-0.0725665950 -0.0513552740 -1 -1
-0.0718865580 -0.0495937180 -1 -1
-0.0715223930 -0.0471483140 -1 -1
-0.0714656750 -0.0442543280 -1 -1
-0.0716736310 -0.0411958610 -1 -1
-0.0720720430 -0.0382734850 -1 -1
-0.0725641570 -0.0357693430 -1 -1
-0.0730452960 -0.0339137040 -1 -1
-0.0734193530 -0.0328573830 -1 -1
-0.0736124810 -0.0326552900 -1 -1
-0.0735824510 -0.0332642230 -1 -1
-0.0733238200 -0.0345538810 -1 -1
-0.0728674910 -0.0363278310 -1 -1
-0.0722731460 -0.0383502310 -1 -1
-0.0716168140 -0.0403731560 -1 -1
-0.0709784200 -0.0421605960 -1 -1
-0.0704317960 -0.0435086120 -1 -1
-0.0700365900 -0.0442629930 -1 -1
-0.0698320010 -0.0443343880 -1 -1
-0.0698340840 -0.0437079260 -1 -1
-0.0700373040 -0.0424435400 -1 -1
-0.0704185400 -0.0406659560 -1 -1
-0.0709414310 -0.0385474960 -1 -1
-0.0715603420 -0.0362885370 -1 -1
-0.0722240110 -0.0340989860 -1 -1
-0.0728793420 -0.0321822810 -1 -1
-0.0734752850 -0.0307223550 -1 -1
-0.0739655480 -0.0298726550 -1 0
-0.0743103660 -0.0297450000 -1 0
-0.0744801080 -0.0303967500 -1 -1
-0.0744615980 -0.0318178850 -1 -1
-0.0742635270 -0.0339229460 -1 -1
-0.0739163640 -0.0365530520 -1 -1
-0.0734656380 -0.0394893620 -1 -1
-0.0729618400 -0.0424751410 -1 -1
-0.0724517880 -0.0452425620 -1 -1
-0.0719745030 -0.0475409640 -1 -1
-0.0715612620 -0.0491635060 -1 -1
-0.0712376020 -0.0499694440 -1 -1
-0.0710251790 -0.0499002940 -1 -1
-0.0709418890 -0.0489883630 -1 -1
-0.0710000350 -0.0473551260 -1 -1
-0.0712046820 -0.0451970560 -1 -1
-0.0715541010 -0.0427599440 -1 -1
-0.0720406880 -0.0403072170 -1 -1
-0.0726494500 -0.0380890890 -1 -1
-0.0733545590 -0.0363171170 -1 -1
-0.0741176070 -0.0351462500 -1 -1
-0.0748889590 -0.0346647150 -1 -1
-0.0756103620 -0.0348901740 -1 -1
-0.0762187170 -0.0357702280 -1 -1
-0.0766533960 -0.0371872480 -1 -1
-0.0768671360 -0.0389690720 -1 -1
-0.0768372530 -0.0409067840 -1 -1
-0.0765734710 -0.0427784790 -1 -1
-0.0761189860 -0.0443747210 -1 -1
-0.0755431660 -0.0455202590 -1 -1
-0.0749286010 -0.0460889630 -1 -1
-0.0743579780 -0.0460120890 -1 -1
-0.0739034890 -0.0452811300 -1 -1
-0.0736178550 -0.0439463530 -1 -1
-0.0735275050 -0.0421118690 -1 -1
-0.0736307850 -0.0399274380 -1 -1
-0.0739017830 -0.0375764590 -1 -1
-0.0742970860 -0.0352595940 -1 -1
-0.0747629850 -0.0331754760 -1 -1
-0.0752422450 -0.0315020880 -1 -1
-0.0756795570 -0.0303815510 -1 -1
-0.0760244060 -0.0299084720 -1 0
-0.0762315110 -0.0301211900 -1 -1
-0.0762611740 -0.0309957010 -1 -1
-0.0760822320 -0.0324431670 -1 -1
-0.0756781970 -0.0343138540 -1 -1
-0.0750544110 -0.0364100110 -1 -1
-0.0742422520 -0.0385064170 -1 -1
-0.0732966770 -0.0403742720 -1 -1
-0.0722871570 -0.0418047880 -1 -1
-0.0712870680 -0.0426304650 -1 -1
-0.0703663840 -0.0427426090 -1 -1
-0.0695872430 -0.0421034930 -1 -1
-0.0689993510 -0.0407515070 -1 -1
-0.0686346070 -0.0387984820 -1 -1
-0.0685030030 -0.0364194870 -1 -1
-0.0685917700 -0.0338358800 -1 -1
-0.0688672870 -0.0312931040 -1 -1
-0.0692774250 -0.0290357590 -1 0
-0.0697536240 -0.0272827570 -1 0
-0.0702153760 -0.0262051990 -1 0
-0.0705800220 -0.0259094650 -1 0
-0.0707767020 -0.0264269970 -1 0
-0.0707592430 -0.0277118850 -1 0
-0.0705126310 -0.0296473920 -1 0
-0.0700516510 -0.0320603800 -1 -1
