-0.0031048680 -0.0262025610 0 0
-0.0046204910 -0.0240153690 0 0
-0.0060384390 -0.0220136930 0 0
-0.0072666280 -0.0204037430 0 0
-0.0082260800 -0.0193437160 0 0
-0.0088540340 -0.0189349340 0 0
-0.0091087710 -0.0192177920 0 0
-0.0089763110 -0.0201710770 0 0
-0.0084762020 -0.0217144330 0 0
-0.0076627440 -0.0237141100 0 0
-0.0066197310 -0.0259928170 0 0
-0.0054498140 -0.0283451310 0 0
-0.0042611500 -0.0305587860 0 -1
-0.0031542030 -0.0324391030 0 -1
-0.0022113520 -0.0338315770 0 -1
-0.0014912540 -0.0346384440 0 -1
-0.0010284620 -0.0348272210 0 -1
-0.0008364190 -0.0344310120 0 -1
-0.0009106400 -0.0335416950 0 -1
-0.0012307320 -0.0322980700 0 -1
-0.0017621530 -0.0308710510 0 -1
-0.0024582810 -0.0294471980 0 0
-0.0032623720 -0.0282107250 0 0
-0.0041098990 -0.0273242540 0 0
-0.0049327620 -0.0269102540 0 0
-0.0056652430 -0.0270373300 0 0
-0.0062490250 -0.0277158220 0 0
-0.0066358660 -0.0289039380 0 0
-0.0067896850 -0.0305202000 0 -1
-0.0066896240 -0.0324551260 0 -1
-0.0063332880 -0.0345777860 0 -1
-0.0057388610 -0.0367378430 0 -1
-0.0049450190 -0.0387668690 0 -1
-0.0040072450 -0.0404836810 0 -1
-0.0029905080 -0.0417073240 0 -1
-0.0019617280 -0.0422778350 0 -1
-0.0009863120 -0.0420808120 0 -1
-0.0001284710 -0.0410698380 0 -1
0.0005493410 -0.0392816800 0 -1
0.0009919610 -0.0368407930 0 -1
0.0011623730 -0.0339507950 0 -1
0.0010535520 -0.0308723830 0 -1
0.0006946760 -0.0278908930 0 0
0.0001478030 -0.0252799170 0 0
-0.0005040440 -0.0232678090 0 0
-0.0011735440 -0.0220117300 0 0
-0.0017849480 -0.0215814110 0 0
-0.0022829210 -0.0219534710 0 0
-0.0026316730 -0.0230170220 0 0
-0.0028098750 -0.0245904210 0 0
-0.0028100380 -0.0264464310 0 0
-0.0026429270 -0.0283407350 0 0
-0.0023396980 -0.0300389580 0 -1
-0.0019477790 -0.0313394890 0 -1
-0.0015233860 -0.0320907430 0 -1
-0.0011244090 -0.0322018680 0 -1
-0.0008042010 -0.0316467140 0 -1
-0.0006054840 -0.0304627200 0 -1
-0.0005553670 -0.0287473590 0 0
-0.0006636560 -0.0266529980 0 0
-0.0009251800 -0.0243774650 0 0
-0.0013242690 -0.0221466210 0 0
-0.0018382490 -0.0201890280 0 0
-0.0024380940 -0.0187075230 0 0
-0.0030871490 -0.0178541320 0 0
-0.0037405120 -0.0177135740 0 0
-0.0043469400 -0.0182976470 0 0
-0.0048527370 -0.0195488880 0 0
-0.0052064410 -0.0213497360 0 0
-0.0053654530 -0.0235348970 0 0
-0.0053056160 -0.0259064560 0 0
-0.0050300340 -0.0282510890 0 0
-0.0045721560 -0.0303582710 0 -1
-0.0039922990 -0.0320385530 0 -1
-0.0033692780 -0.0331409260 0 -1
-0.0027884190 -0.0335683810 0 -1
-0.0023282730 -0.0332906000 0 -1
-0.0020496070 -0.0323517300 0 -1
-0.0019886650 -0.0308703970 0 -1
-0.0021548070 -0.0290297940 0 0
-0.0025325500 -0.0270580460 0 0
-0.0030871650 -0.0252025310 0 0
-0.0037710860 -0.0237034720 0 0
-0.0045279260 -0.0227698270 0 0
-0.0052935610 -0.0225575810 0 0
-0.0059982640 -0.0231507280 0 0
-0.0065739990 -0.0245477760 0 0
-0.0069652940 -0.0266576230 0 0
-0.0071384130 -0.0293069430 0 0
-0.0070855310 -0.0322582850 0 -1
-0.0068241140 -0.0352356270 0 -1
-0.0063937710 -0.0379529970 0 -1
-0.0058527100 -0.0401426180 0 -1
-0.0052737210 -0.0415806150 0 -1
-0.0047377830 -0.0421088730 0 -1
-0.0043239140 -0.0416509380 0 -1
-0.0040973070 -0.0402191160 0 -1
-0.0041006690 -0.0379109490 0 -1
-0.0043512880 -0.0348964640 0 -1
-0.0048410320 -0.0314000390 0 -1
-0.0055358940 -0.0276801020 0 0
-0.0063764740 -0.0240079330 0 0
-0.0072837620 -0.0206461400 0 0
-0.0081713020 -0.0178277070 0 0
-0.0089597960 -0.0157371340 0 0
-0.0095889770 -0.0144950940 0 0
-0.0100229270 -0.0141478170 0 0
-0.0102463500 -0.0146631420 0 0
-0.0102527460 -0.0159354280 0 0
-0.0100319150 -0.0177993280 0 0
-0.0095679200 -0.0200493280 0 0
-0.0088521840 -0.0224609070 0 0
-0.0079029920 -0.0248101620 0 0
-0.0067762180 -0.0268905090 0 0
-0.0055598120 -0.0285269220 0 0
-0.0043563570 -0.0295885130 0 0
-0.0032622680 -0.0299992240 0 0
-0.0023505240 -0.0297451940 0 0
-0.0016617050 -0.0288763330 0 0
-0.0012046590 -0.0274993580 0 0
-0.0009635130 -0.0257621740 0 0
-0.0009064890 -0.0238339730 0 0
-0.0009940640 -0.0218875340 0 0
-0.0011846310 -0.0200876710 0 0
-0.0014360200 -0.0185846590 0 0
-0.0017031950 -0.0175082960 0 0
-0.0019344730 -0.0169595910 0 0
-0.0020697050 -0.0170002910 0 0
-0.0020445720 -0.0176421880 0 0
-0.0018030910 -0.0188388640 0 0
-0.0013154220 -0.0204833330 0 0
-0.0005942470 -0.0224148760 0 0
0.0002972940 -0.0244366130 0 0
0.0012511830 -0.0263418120 0 0
0.0021342340 -0.0279430480 0 0
0.0028153490 -0.0290972410 0 0
0.0031900080 -0.0297217910 0 0
0.0031959630 -0.0297998550 0 0
0.0028196820 -0.0293754290 0 0
0.0020941830 -0.0285418130 0 0
0.0010895200 -0.0274281520 0 0
-0.0001003170 -0.0261863700 0 0
-0.0013699220 -0.0249779520 0 0
-0.0026126410 -0.0239598720 0 0
-0.0037284540 -0.0232699280 0 0
-0.0046295440 -0.0230124640 0 0
-0.0052441970 -0.0232462600 0 0
-0.0055218000 -0.0239768350 0 0
-0.0054408910 -0.0251547320 0 0
-0.0050171730 -0.0266802640 0 0
-0.0043055200 -0.0284144250 0 0
-0.0033930860 -0.0301944100 0 -1
-0.0023858830 -0.0318506680 0 -1
-0.0013940480 -0.0332224650 0 -1
-0.0005197560 -0.0341707990 0 -1
0.0001519530 -0.0345888870 0 -1
0.0005611110 -0.0344104670 0 -1
0.0006792200 -0.0336163240 0 -1
0.0005116030 -0.0322394460 0 -1
0.0000945188 -0.0303677270 0 -1
-0.0005117300 -0.0281408850 0 0
-0.0012322660 -0.0257386100 0 0
-0.0019882310 -0.0233608280 0 0
-0.0027055540 -0.0212047090 0 0
-0.0033193530 -0.0194433770 0 0
-0.0037749250 -0.0182089970 0 0
-0.0040285610 -0.0175812780 0 0
-0.0040506650 -0.0175817830 0 0
-0.0038309040 -0.0181741790 0 0
-0.0033821260 -0.0192698530 0 0
-0.0027402250 -0.0207370090 0 0
-0.0019605250 -0.0224113420 0 0
-0.0011125190 -0.0241083500 0 0
-0.0002730340 -0.0256388300 0 0
0.0004831690 -0.0268285480 0 0
0.0010950520 -0.0275404210 0 0
0.0015258220 -0.0276940330 0 0
0.0017668020 -0.0272765800 0 0
0.0018322120 -0.0263425090 0 0
0.0017484070 -0.0250031050 0 0
0.0015436490 -0.0234097350 0 0
0.0012426360 -0.0217349400 0 0
0.0008670590 -0.0201540650 0 0
0.0004404220 -0.0188282270 0 0
-0.0000074652 -0.0178893690 0 0
-0.0004407540 -0.0174290350 0 0
-0.0008222110 -0.0174919630 0 0
-0.0011176100 -0.0180735660 0 0
-0.0012965960 -0.0191194450 0 0
-0.0013316890 -0.0205266050 0 0
-0.0011999450 -0.0221489090 0 0
-0.0008899450 -0.0238100020 0 0
-0.0004118560 -0.0253238760 0 0
0.0001954790 -0.0265193570 0 0
0.0008659400 -0.0272633340 0 0
0.0015167430 -0.0274785540 0 0
0.0020643330 -0.0271531990 0 0
0.0024405840 -0.0263402820 0 0
0.0026046340 -0.0251466760 0 0
0.0025465510 -0.0237149970 0 0
0.0022834490 -0.0222038640 0 0
0.0018539980 -0.0207707730 0 0
0.0013158550 -0.0195584490 0 0
0.0007435610 -0.0186838190 0 0
0.0002206850 -0.0182297550 0 0
-0.0001754930 -0.0182407410 0 0
-0.0003906080 -0.0187223980 0 0
-0.0004029970 -0.0196432900 0 0
-0.0002243290 -0.0209379150 0 0
0.0001060170 -0.0225107760 0 0
0.0005301610 -0.0242416660 0 0
0.0009827250 -0.0259928170 0 0
0.0014003010 -0.0276186780 0 0
0.0017261520 -0.0289777680 0 0
0.0019103500 -0.0299451620 0 0
0.0019091250 -0.0304252810 0 -1
0.0016875670 -0.0303648730 0 -1
0.0012261580 -0.0297643110 0 0
0.0005280900 -0.0286845730 0 0
-0.0003760820 -0.0272474840 0 0
-0.0014293790 -0.0256268310 0 0
-0.0025566250 -0.0240294360 0 0
-0.0036773330 -0.0226686420 0 0
-0.0047167560 -0.0217345240 0 0
-0.0056106890 -0.0213657960 0 0
-0.0063054290 -0.0216292240 0 0
-0.0067571290 -0.0225116570 0 0
-0.0069334900 -0.0239263360 0 0
-0.0068178360 -0.0257306050 0 0
-0.0064128070 -0.0277486830 0 0
-0.0057415500 -0.0297931530 0 0
-0.0048475790 -0.0316818910 0 -1
-0.0037942740 -0.0332500540 0 -1
-0.0026629380 -0.0343582210 0 -1
-0.0015485360 -0.0348988710 0 -1
-0.0005519490 -0.0348034960 0 -1
0.0002329170 -0.0340510710 0 -1
0.0007350890 -0.0326759390 0 -1
0.0009190380 -0.0307710980 0 -1
0.0007884720 -0.0284831420 0 0
0.0003809450 -0.0259981190 0 0
-0.0002437940 -0.0235212710 0 0
-0.0010167770 -0.0212557900 0 0
-0.0018685530 -0.0193853070 0 0
-0.0027310270 -0.0180620260 0 0
-0.0035353670 -0.0173982080 0 0
-0.0042126110 -0.0174570010 0 0
-0.0047012160 -0.0182416650 0 0
-0.0049594050 -0.0196869720 0 0
-0.0049764080 -0.0216577910 0 0
-0.0047774050 -0.0239573720 0 0
-0.0044204360 -0.0263451240 0 0
-0.0039864120 -0.0285625840 0 0
-0.0035641340 -0.0303652830 0 -1
-0.0032331200 -0.0315560190 0 -1
-0.0030492460 -0.0320125270 0 -1
-0.0030379790 -0.0317027170 0 -1
-0.0031959430 -0.0306845360 0 -1
-0.0034978030 -0.0290920900 0 0
-0.0039050210 -0.0271129960 0 0
-0.0043735100 -0.0249627680 0 0
-0.0048580720 -0.0228603740 0 0
-0.0053137930 -0.0210071860 0 0
-0.0056962650 -0.0195706030 0 0
-0.0059619290 -0.0186726040 0 0
-0.0060692300 -0.0183827170 0 0
-0.0059812000 -0.0187148740 0 0
-0.0056692370 -0.0196278310 0 0
-0.0051177360 -0.0210293050 0 0
-0.0043293620 -0.0227842560 0 0
-0.0033298690 -0.0247270880 0 0
-0.0021706430 -0.0266762050 0 0
-0.0009272570 -0.0284486550 0 0
0.0003079540 -0.0298739110 0 0
0.0014399700 -0.0308074300 0 -1
0.0023880550 -0.0311439170 0 -1
0.0030986320 -0.0308289920 0 -1
0.0035493410 -0.0298682320 0 0
0.0037450370 -0.0283324950 0 0
0.0037104270 -0.0263570120 0 0
0.0034836350 -0.0241315250 0 0
0.0031114780 -0.0218812940 0 0
0.0026442380 -0.0198423610 0 0
0.0021287310 -0.0182357110 0 0
0.0016027060 -0.0172438220 0 0
0.0010948790 -0.0169918260 0 0
0.0006296780 -0.0175342940 0 0
0.0002306080 -0.0188476580 0 0
-0.0000816623 -0.0208290370 0 0
-0.0002947230 -0.0233036960 0 0
-0.0004100400 -0.0260430980 0 0
-0.0004465020 -0.0287927500 0 0
-0.0004401240 -0.0313052590 0 -1
-0.0004397460 -0.0333718260 0 -1
-0.0005003010 -0.0348462970 0 -1
-0.0006743590 -0.0356585550 0 -1
-0.0010023250 -0.0358167410 0 -1
-0.0015044590 -0.0353993700 0 -1
-0.0021788530 -0.0345389210 0 -1
-0.0030048440 -0.0333991670 0 -1
-0.0039471740 -0.0321498240 0 -1
-0.0049579420 -0.0309434900 0 -1
-0.0059775460 -0.0298999140 0 0
-0.0069370970 -0.0291001110 0 0
-0.0077633050 -0.0285887800 0 0
-0.0083852160 -0.0283803840 0 0
-0.0087411610 -0.0284642290 0 0
-0.0087839680 -0.0288064240 0 0
-0.0084846190 -0.0293492540 0 0
-0.0078369170 -0.0300101060 0 -1
-0.0068645050 -0.0306831960 0 -1
-0.0056271440 -0.0312465650 0 -1
-0.0042207220 -0.0315741030 0 -1
-0.0027681990 -0.0315500140 0 -1
-0.0014039980 -0.0310828220 0 -1
-0.0002569790 -0.0301172430 0 -1
0.0005645030 -0.0286433400 0 0
0.0009844940 -0.0267024010 0 0
0.0009679480 -0.0243883970 0 0
0.0005247740 -0.0218443100 0 0
-0.0002911420 -0.0192531170 0 0
-0.0013876850 -0.0168230290 0 0
-0.0026453490 -0.0147675630 0 0
-0.0039331800 -0.0132826300 0 0
-0.0051265240 -0.0125229450 0 0
-0.0061211150 -0.0125803790 0 0
-0.0068403860 -0.0134683140 0 0
-0.0072370900 -0.0151157630 0 0
-0.0072924880 -0.0173726700 0 0
-0.0070147430 -0.0200259750 0 0
-0.0064346320 -0.0228247560 0 0
-0.0055984360 -0.0255102770 0 0
-0.0045636800 -0.0278442860 0 0
-0.0034015950 -0.0296306630 0 0
-0.0022022730 -0.0307303010 0 -1
-0.0010762390 -0.0310711050 0 -1
-0.0001480970 -0.0306532290 0 -1
0.0004607640 -0.0295480300 0 0
0.0006587150 -0.0278893780 0 0
0.0004103240 -0.0258578640 0 0
-0.0002494420 -0.0236608460 0 0
-0.0012201700 -0.0215121050 0 0
-0.0023581400 -0.0196136750 0 0
-0.0035067390 -0.0181405400 0 0
-0.0045242060 -0.0172277540 0 0
-0.0053015260 -0.0169596350 0 0
-0.0057703790 -0.0173620570 0 0
-0.0059044500 -0.0183997910 0 0
-0.0057158920 -0.0199796540 0 0
-0.0052489810 -0.0219586220 0 0
-0.0045745310 -0.0241557190 0 0
-0.0037850230 -0.0263666430 0 0
-0.0029859100 -0.0283806660 0 0
-0.0022808370 -0.0299998730 0 0
-0.0017546850 -0.0310596010 0 -1
-0.0014612760 -0.0314468310 0 -1
-0.0014197630 -0.0311131510 0 -1
-0.0016183110 -0.0300807450 0 -1
-0.0020207940 -0.0284414720 0 0
-0.0025733440 -0.0263497270 0 0
-0.0032101390 -0.0240102640 0 0
-0.0038595020 -0.0216621660 0 0
-0.0044514030 -0.0195592220 0 0
-0.0049255880 -0.0179458990 0 0
-0.0052380520 -0.0170291690 0 0
-0.0053645360 -0.0169500520 0 0
-0.0053014380 -0.0177609240 0 0
-0.0050647300 -0.0194135960 0 0
-0.0046864740 -0.0217620970 0 0
-0.0042079160 -0.0245824770 0 0
-0.0036695370 -0.0276064220 0 0
-0.0031013620 -0.0305588190 0 -1
-0.0025184650 -0.0331882810 0 -1
-0.0019248420 -0.0352851330 0 -1
-0.0013236340 -0.0366890000 0 -1
-0.0007273780 -0.0372924410 0 -1
-0.0001628190 -0.0370460220 0 -1
0.0003309700 -0.0359659040 0 -1
0.0007091020 -0.0341405190 0 -1
0.0009284680 -0.0317305200 0 -1
0.0009538900 -0.0289569910 0 0
0.0007632360 -0.0260767360 0 0
0.0003524770 -0.0233487240 0 0
-0.0002604610 -0.0209998530 0 0
-0.0010335830 -0.0191983560 0 0
-0.0018994570 -0.0180388240 0 0
-0.0027670570 -0.0175377070 0 0
-0.0035315480 -0.0176364960 0 0
-0.0040915820 -0.0182116430 0 0
-0.0043676900 -0.0190921120 0 0
-0.0043150670 -0.0200841530 0 0
-0.0039281170 -0.0209984540 0 0
-0.0032390180 -0.0216726590 0 0
-0.0023141440 -0.0219852430 0 0
-0.0012494870 -0.0218615190 0 0
-0.0001631090 -0.0212752420 0 0
0.0008175440 -0.0202495930 0 0
0.0015726230 -0.0188585640 0 0
0.0020064950 -0.0172252340 0 0
0.0020589630 -0.0155121010 0 0
0.0017099190 -0.0139029410 0 0
0.0009801140 -0.0125806540 0 0
-0.0000696087 -0.0117066030 0 0
-0.0013420870 -0.0114048910 0 0
-0.0027141090 -0.0117527710 0 0
-0.0040531160 -0.0127770750 0 0
-0.0052349080 -0.0144552830 0 0
-0.0061568100 -0.0167183230 0 0
-0.0067457730 -0.0194525510 0 0
-0.0069639110 -0.0225010110 0 0
-0.0068122870 -0.0256666440 0 0
-0.0063312020 -0.0287212660 0 0
-0.0055961200 -0.0314232010 0 -1
-0.0047097420 -0.0335429210 0 -1
-0.0037898520 -0.0348916940 0 -1
-0.0029536220 -0.0353462130 0 -1
-0.0023031970 -0.0348638350 0 -1
-0.0019164280 -0.0334877630 0 -1
-0.0018408950 -0.0313448270 0 -1
-0.0020894550 -0.0286369910 0 0
-0.0026399410 -0.0256250140 0 0
-0.0034405860 -0.0226036000 0 0
-0.0044183240 -0.0198701500 0 0
-0.0054875250 -0.0176913750 0 0
-0.0065602210 -0.0162734950 0 0
-0.0075586620 -0.0157415620 0 0
-0.0084270580 -0.0161309430 0 0
-0.0091367510 -0.0173908990 0 0
-0.0096815170 -0.0193976680 0 0
-0.0100660300 -0.0219731810 0 0
-0.0102953640 -0.0249051090 0 0
-0.0103724920 -0.0279644700 0 0
-0.0103053650 -0.0309197560 0 -1
-0.0101191790 -0.0335493780 0 -1
-0.0098654320 -0.0356545540 0 -1
-0.0096196540 -0.0370740120 0 -1
-0.0094657760 -0.0377001650 0 -1
-0.0094733270 -0.0374930010 0 -1
-0.0096772800 -0.0364865730 0 -1
-0.0100675720 -0.0347860470 0 -1
-0.0105898660 -0.0325566770 0 -1
-0.0111546840 -0.0300072080 0 -1
-0.0116510160 -0.0273701350 0 0
-0.0119625670 -0.0248808020 0 0
-0.0119865820 -0.0227561560 0 0
-0.0116540370 -0.0211732490 0 0
-0.0109452300 -0.0202494430 0 0
-0.0098915560 -0.0200287470 0 0
-0.0085604080 -0.0204782270 0 0
-0.0070316820 -0.0214948380 0 0
-0.0053789780 -0.0229196380 0 0
-0.0036625280 -0.0245561790 0 0
-0.0019324010 -0.0261923440 0 0
-0.0002374390 -0.0276251690 0 0
0.0013647700 -0.0286851630 0 0
0.0028035100 -0.0292555960 0 0
0.0040012280 -0.0292840870 0 0
0.0048884240 -0.0287851370 0 0
0.0054200010 -0.0278340580 0 0
0.0055862440 -0.0265552270 0 0
0.0054140390 -0.0251071270 0 0
0.0049586790 -0.0236642850 0 0
0.0042928840 -0.0223968240 0 0
0.0035009320 -0.0214508170 0 0
0.0026785920 -0.0209329880 0 0
0.0019314110 -0.0209016710 0 0
0.0013646920 -0.0213640990 0 0
0.0010668570 -0.0222789050 0 0
0.0010941630 -0.0235626060 0 0
0.0014636420 -0.0250991700 0 0
0.0021552830 -0.0267514740 0 0
0.0031190520 -0.0283734540 0 0
0.0042820440 -0.0298222370 0 0
0.0055547160 -0.0309694090 0 -1
0.0068374330 -0.0317100980 0 -1
0.0080276470 -0.0319695610 0 -1
0.0090268350 -0.0317083200 0 -1
0.0097465020 -0.0309260900 0 -1
0.0101132030 -0.0296631830 0 0
0.0100733780 -0.0279986040 0 0
0.0095994130 -0.0260455920 0 0
0.0086969860 -0.0239455010 0 0
0.0074109120 -0.0218592270 0 0
0.0058262500 -0.0199540080 0 0
0.0040633510 -0.0183852560 0 0
0.0022668430 -0.0172768020 0 0
0.0005891430 -0.0167044120 0 0
-0.0008288770 -0.0166854780 0 0
-0.0018750370 -0.0171763260 0 0
-0.0024761370 -0.0180790320 0 0
-0.0026008760 -0.0192580150 0 0
-0.0022583890 -0.0205618380 0 0
-0.0014952450 -0.0218428290 0 0
-0.0003928440 -0.0229696960 0 0
0.0009338600 -0.0238329560 0 0
0.0023392500 -0.0243461070 0 0
0.0036575230 -0.0244464020 0 0
0.0047235040 -0.0240977990 0 0
0.0053996000 -0.0232961310 0 0
0.0056006320 -0.0220745880 0 0
0.0053089480 -0.0205066110 0 0
0.0045755730 -0.0187035950 0 0
0.0035071610 -0.0168070470 0 0
0.0022428490 -0.0149769740 0 0
0.0009289560 -0.0133779960 0 0
-0.0003003810 -0.0121628580 0 0
-0.0013339640 -0.0114523040 0 0
-0.0020892430 -0.0113130640 0 0
-0.0025165210 -0.0117402660 0 0
-0.0026009900 -0.0126516980 0 0
-0.0023617460 -0.0138979630 0 0
-0.0018488400 -0.0152866490 0 0
-0.0011377560 -0.0166121960 0 0
-0.0003200740 -0.0176816380 0 0
0.0005083240 -0.0183326870 0 0
0.0012590180 -0.0184470200 0 0
0.0018615430 -0.0179595940 0 0
0.0022714110 -0.0168603460 0 0
0.0024730500 -0.0151886170 0 0
0.0024747530 -0.0130280370 0 0
0.0022969090 -0.0105070000 0 0
0.0019611430 -0.0078001660 0 0
0.0014881550 -0.0051226780 0 0
0.0009047510 -0.0027120260 0 0
0.0002541500 -0.0007975930 0 0
-0.0003975940 0.0004354330 0 0
-0.0009636470 0.0008767060 0 0
-0.0013475600 0.0005084870 0 0
-0.0014614840 -0.0005899660 0 0
-0.0012479860 -0.0022506480 0 0
-0.0006992360 -0.0042381270 0 0
0.0001350060 -0.0062807140 0 0
0.0011555260 -0.0081033290 0 0
0.0022349470 -0.0094554550 0 0
0.0032433330 -0.0101325300 0 0
0.0040693600 -0.0099913570 0 0
0.0046331850 -0.0089594680 0 0
0.0048922880 -0.0070372570 0 0
0.0048428520 -0.0042924070 0 0
0.0045173260 -0.0008491490 0 0
0.0039776350 0.0031239940 0 0
0.0033047160 0.0074273820 0 0
0.0025864780 0.0118463470 0 0
0.0019070990 0.0161709370 0 0
0.0013400720 0.0202181100 0 0
0.0009438420 0.0238540140 0 0
0.0007576540 0.0270117620 0 0
0.0007986670 0.0296987290 0 0
0.0010614930 0.0319915020 0 1
0.0015182590 0.0340226030 0 1
0.0021188860 0.0359644290 0 1
0.0027946350 0.0380124800 0 1
0.0034668080 0.0403668930 0 1
0.0040595450 0.0432118520 0 1
0.0045136180 0.0466959440 0 1
0.0047964810 0.0509187440 0 1
0.0049047370 0.0559271410 0 1
0.0048591550 0.0617199100 0 1
0.0046957850 0.0682536800 0 1
0.0044576080 0.0754432290 0 1
0.0041897750 0.0831559650 0 1
0.0039381950 0.0912079940 0 1
0.0037482550 0.0993700760 0 1
0.0036618170 0.1073867340 0 1
0.0037138140 0.1150056930 0 1
0.0039297950 0.1220111210 0 1
0.0043245270 0.1282535310 0 1
0.0049020150 0.1336706510 0 1
0.0056569810 0.1382955700 0 1
0.0065757460 0.1422507440 0 1
0.0076348250 0.1457291960 0 1
0.0087993120 0.1489674930 0 1
0.0100239670 0.1522166590 0 1
0.0112565690 0.1557150330 0 1
0.0124421210 0.1596636820 0 1
0.0135275660 0.1642039960 0 1
0.0144657670 0.1693992940 0 1
0.0152171570 0.1752246550 0 1
0.0157496790 0.1815689170 0 1
0.0160391460 0.1882491150 0 1
0.0160722720 0.1950333630 0 1
0.0158532320 0.2016665520 0 1
0.0154108990 0.2078939980 0 1
0.0148004740 0.2134803520 0 1
0.0140955750 0.2182241630 0 1
0.0133742900 0.2219699930 0 1
0.0127065410 0.2246184920 0 1
0.0121467040 0.2261333930 0 1
0.0117314270 0.2265451560 0 1
0.0114810230 0.2259523120 0 1
0.0114010620 0.2245202840 0 1
0.0114799180 0.2224746190 0 1
0.0116827480 0.2200850890 0 1
0.0119492440 0.2176401440 0 1
0.0122007190 0.2154156300 0 1
0.0123532320 0.2136443220 0 1
0.0123301150 0.2124921850 0 1
0.0120715450 0.2120444070 0 1
0.0115420930 0.2123011570 0 1
0.0107365150 0.2131810830 0 1
0.0096826270 0.2145306580 0 1
0.0084401350 0.2161395280 0 1
0.0070955370 0.2177627600 0 1
0.0057543200 0.2191480900 0 1
0.0045311770 0.2200630110 0 1
0.0035383840 0.2203167940 0 1
0.0028733340 0.2197755700 0 1
0.0026073080 0.2183716830 0 1
0.0027774650 0.2161088450 0 1
0.0033824860 0.2130625580 0 1
0.0043818210 0.2093743000 0 1
0.0056994400 0.2052395360 0 1
0.0072313080 0.2008909950 0 1
0.0088530860 0.1965783040 0 1
0.0104268970 0.1925440820 0 1
0.0118108560 0.1889974290 0 1
0.0128741280 0.1860883330 0 1
0.0135141680 0.1838880810 0 1
0.0136705210 0.1823799460 0 1
0.0133330250 0.1814621210 0 1
0.0125443600 0.1809624100 0 1
0.0113959040 0.1806620450 0 1
0.0100164920 0.1803242320 0 1
0.0085562890 0.1797226580 0 1
0.0071689450 0.1786661950 0 1
0.0059934270 0.1770175120 0 1
0.0051362800 0.1747045020 0 1
0.0046569400 0.1717246080 0 1
0.0045599170 0.1681430290 0 1
0.0047967090 0.1640859250 0 1
0.0052779150 0.1597285170 0 1
0.0058923360 0.1552771000 0 1
0.0065268540 0.1509457670 0 1
0.0070818110 0.1469309480 0 1
0.0074805660 0.1433872830 0 1
0.0076741830 0.1404085400 0 1
0.0076416780 0.1380179790 0 1
0.0073862590 0.1361704930 0 1
0.0069291100 0.1347641340 0 1
0.0063033880 0.1336553960 0 1
0.0055506710 0.1326741100 0 1
0.0047189300 0.1316379930 0 1
0.0038591370 0.1303692740 0 1
0.0030203820 0.1287140260 0 1
0.0022460030 0.1265614900 0 1
0.0015721830 0.1238586800 0 1
0.0010288760 0.1206157640 0 1
0.0006420520 0.1169003270 0 1
0.0004351230 0.1128235170 0 1
0.0004276420 0.1085248200 0 1
0.0006313440 0.1041607590 0 1
0.0010449880 0.0998976990 0 1
0.0016493110 0.0959057340 0 1
0.0024035980 0.0923512450 0 1
0.0032455900 0.0893871570 0 1
0.0040952710 0.0871403670 0 1
0.0048620900 0.0856962940 0 1
0.0054559790 0.0850828680 0 1
0.0058023010 0.0852583600 0 1
0.0058576640 0.0861067450 0 1
0.0056212000 0.0874424110 0 1
0.0051370860 0.0890253010 0 1
0.0044871420 0.0905865260 0 1
0.0037759840 0.0918612480 0 1
0.0031142570 0.0926219960 0 1
0.0026051750 0.0927051410 0 1
0.0023358710 0.0920265200 0 1
0.0023720260 0.0905855280 0 1
0.0027546540 0.0884582110 0 1
0.0034981310 0.0857813370 0 1
0.0045867760 0.0827324550 0 1
0.0059687420 0.0795117040 0 1
0.0075516600 0.0763275400 0 1
0.0092077280 0.0733845910 0 1
0.0107918000 0.0708707450 0 1
0.0121674290 0.0689418880 0 1
0.0132299260 0.0677057740 0 1
0.0139173610 0.0672087680 0 1
0.0142084010 0.0674282630 0 1
0.0141126650 0.0682715670 0 1
0.0136609490 0.0695813720 0 1
0.0129007640 0.0711476420 0 1
0.0118978980 0.0727253610 0 1
0.0107392410 0.0740578260 0 1
0.0095306490 0.0749044210 0 1
0.0083865090 0.0750693440 0 1
0.0074132780 0.0744261160 0 1
0.0066946980 0.0729332810 0 1
0.0062846260 0.0706385040 0 1
0.0062058110 0.0676705320 0 1
0.0064502510 0.0642212090 0 1
0.0069804070 0.0605219770 0 1
0.0077326480 0.0568198760 0 1
0.0086222620 0.0533565010 0 1
0.0095490380 0.0503506290 0 1
0.0104051740 0.0479832110 0 1
0.0110877570 0.0463833830 0 1
0.0115140790 0.0456158890 0 1
0.0116344030 0.0456721340 0 1
0.0114376820 0.0464677210 0 1
0.0109501890 0.0478484260 0 1
0.0102300440 0.0496044860 0 1
0.0093590110 0.0514917010 0 1
0.0084303150 0.0532571400 0 1
0.0075329560 0.0546663590 0 1
0.0067377430 0.0555281920 0 1
0.0060908300 0.0557128580 0 1
0.0056155430 0.0551602770 0 1
0.0053177580 0.0538786330 0 1
0.0051892900 0.0519359660 0 1
0.0052089270 0.0494473840 0 1
0.0053457880 0.0465598760 0 1
0.0055665630 0.0434385590 0 1
0.0058411260 0.0402585940 0 1
0.0061416610 0.0372022670 0 1
0.0064381260 0.0344548400 0 1
0.0066964840 0.0321923530 0 1
0.0068823390 0.0305600680 0 1
0.0069681410 0.0296467070 0 0
0.0069411430 0.0294624750 0 0
0.0068091020 0.0299285760 0 0
0.0066000020 0.0308829190 0 1
0.0063548030 0.0321014740 0 1
0.0061178620 0.0333301840 0 1
0.0059312180 0.0343211420 0 1
0.0058347630 0.0348673820 0 1
0.0058690780 0.0348310460 0 1
0.0060751460 0.0341608000 0 1
0.0064870740 0.0328969670 0 1
0.0071202640 0.0311649480 0 1
0.0079615550 0.0291581600 0 0
0.0089655140 0.0271125410 0 0
0.0100574160 0.0252765040 0 0
0.0111419100 0.0238809530 0 0
0.0121149040 0.0231127520 0 0
0.0128758710 0.0230931430 0 0
0.0133393910 0.0238622240 0 0
0.0134445720 0.0253720670 0 0
0.0131599200 0.0274912590 0 0
0.0124832900 0.0300206270 0 1
0.0114396570 0.0327166660 0 1
0.0100795840 0.0353183200 0 1
0.0084791870 0.0375728730 0 1
0.0067398000 0.0392576880 0 1
0.0049842040 0.0401976140 0 1
0.0033475850 0.0402799780 0 1
0.0019633350 0.0394668590 0 1
0.0009453330 0.0378010440 0 1
0.0003713430 0.0354020390 0 1
0.0002733060 0.0324513000 0 1
0.0006363050 0.0291692300 0 0
0.0014036180 0.0257895840 0 0
0.0024850750 0.0225380860 0 0
0.0037660110 0.0196189530 0 0
0.0051135190 0.0172077820 0 0
0.0063805600 0.0154459380 0 0
0.0074147130 0.0144323210 0 0
0.0080767310 0.0142118910 0 0
0.0082651410 0.0147639980 0 0
0.0079373110 0.0159951260 0 0
0.0071185060 0.0177401210 0 0
0.0058956300 0.0197744810 0 0
0.0043991340 0.0218374420 0 0
0.0027808530 0.0236616730 0 0
0.0011943890 0.0250032970 0 0
-0.0002196880 0.0256674470 0 0
-0.0013454800 0.0255279050 0 0
-0.0021024070 0.0245413650 0 0
-0.0024532660 0.0227556030 0 0
-0.0024056490 0.0203082140 0 0
-0.0020058600 0.0174128950 0 0
-0.0013291550 0.0143342730 0 0
-0.0004700860 0.0113563520 0 0
0.0004666640 0.0087505520 0 0
0.0013761320 0.0067474290 0 0
0.0021635030 0.0055144430 0 0
0.0027531030 0.0051414020 0 0
0.0030938530 0.0056345060 0 0
0.0031602970 0.0069187170 0 0
0.0029502190 0.0088472620 0 0
0.0024816200 0.0112164900 0 0
0.0017912080 0.0137844520 0 0
0.0009334870 0.0162923240 0 0
-0.0000219826 0.0184872610 0 0
-0.0009964540 0.0201441200 0 0
-0.0019105130 0.0210840120 0 0
-0.0026931440 0.0211897230 0 0
-0.0032887560 0.0204186890 0 0
-0.0036606920 0.0188116130 0 0
-0.0037912550 0.0164919290 0 0
-0.0036790720 0.0136527300 0 0
-0.0033350070 0.0105330870 0 0
-0.0027785440 0.0073899590 0 0
-0.0020372270 0.0044722600 0 0
-0.0011499050 0.0020008270 0 0
-0.0001705420 0.0001547750 0 0
0.0008318620 -0.0009370960 0 0
0.0017793620 -0.0012019920 0 0
0.0025966040 -0.0006283820 0 0
0.0032241880 0.0007286460 0 0
0.0036285160 0.0027446400 0 0
0.0038053660 0.0052294710 0 0
0.0037785850 0.0079400910 0 0
0.0035961060 0.0106030340 0 0
0.0033229500 0.0129450290 0 0
0.0030287330 0.0147276570 0 0
0.0027711540 0.0157798050 0 0
0.0025835290 0.0160211720 0 0
0.0024724660 0.0154722430 0 0
0.0024226850 0.0142495010 0 0
0.0024035190 0.0125473700 0 0
0.0023763900 0.0106105900 0 0
0.0023034800 0.0087022890 0 0
0.0021551900 0.0070728260 0 0
0.0019145390 0.0059326150 0 0
0.0015787600 0.0054309830 0 0
0.0011579510 0.0056427490 0 0
0.0006701450 0.0065631150 0 0
0.0001340370 0.0081103030 0 0
-0.0004370470 0.0101352460 0 0
-0.0010352040 0.0124374150 0 0
-0.0016499250 0.0147850010 0 0
-0.0022575500 0.0169362260 0 0
-0.0028188950 0.0186588900 0 0
-0.0032897770 0.0197483990 0 0
-0.0036373780 0.0200467910 0 0
-0.0038511250 0.0194630990 0 0
-0.0039425980 0.0179912050 0 0
-0.0039366320 0.0157185900 0 0
-0.0038596700 0.0128203320 0 0
-0.0037318090 0.0095379120 0 0
-0.0035654940 0.0061485820 0 0
-0.0033685730 0.0029330970 0 0
-0.0031483150 0.0001469810 0 0
-0.0029151390 -0.0020026020 0 0
-0.0026848290 -0.0033731650 0 0
-0.0024771280 -0.0038953420 0 0
-0.0023106970 -0.0035739240 0 0
-0.0021978300 -0.0024836290 0 0
-0.0021423100 -0.0007616290 0 0
-0.0021399650 0.0014026160 0 0
-0.0021798330 0.0037810090 0 0
-0.0022464480 0.0061251740 0 0
-0.0023243360 0.0081898490 0 0
-0.0024020760 0.0097594240 0 0
-0.0024715390 0.0106736510 0 0
-0.0025219610 0.0108478350 0 0
-0.0025337240 0.0102834500 0 0
-0.0024779720 0.0090670370 0 0
-0.0023250030 0.0073577360 0 0
-0.0020581990 0.0053656030 0 0
-0.0016852870 0.0033238890 0 0
-0.0012411560 0.0014596890 0 0
-0.0007834180 -0.0000322978 0 0
-0.0003841040 -0.0010099660 0 0
-0.0001184960 -0.0013966580 0 0
-0.0000517620 -0.0011855850 0 0
-0.0002254270 -0.0004355120 0 0
-0.0006467810 0.0007407110 0 0
-0.0012847240 0.0021915320 0 0
-0.0020739600 0.0037425990 0 0
-0.0029265640 0.0052119520 0 0
-0.0037485030 0.0064256940 0 0
-0.0044576200 0.0072350150 0 0
-0.0049982640 0.0075329380 0 0
-0.0053489130 0.0072671920 0 0
-0.0055216760 0.0064463490 0 0
-0.0055543470 0.0051385550 0 0
-0.0054978160 0.0034640300 0 0
-0.0054034270 0.0015828460 0 0
-0.0053138610 -0.0003211080 0 0
-0.0052588420 -0.0020592560 0 0
-0.0052552430 -0.0034587140 0 0
-0.0053108160 -0.0043807690 0 0
-0.0054301450 -0.0047340930 0 0
-0.0056194550 -0.0044807800 0 0
-0.0058870650 -0.0036357570 0 0
-0.0062410200 -0.0022617140 0 0
-0.0066884140 -0.0004616280 0 0
-0.0072363200 0.0016298200 0 0
-0.0078886100 0.0038554040 0 0
-0.0086356050 0.0060452260 0 0
-0.0094409090 0.0080272330 0 0
-0.0102330250 0.0096377470 0 0
-0.0109067480 0.0107321420 0 0
-0.0113362660 0.0111966090 0 0
-0.0113992480 0.0109607450 0 0
-0.0110057460 0.0100088910 0 0
-0.0101212910 0.0083879040 0 0
-0.0087765270 0.0062092720 0 0
-0.0070624100 0.0036428010 0 0
-0.0051141950 0.0009000590 0 0
-0.0030893540 -0.0017896860 0 0
-0.0011453390 -0.0042045390 0 0
0.0005783120 -0.0061508740 0 0
0.0019719850 -0.0074784640 0 0
0.0029620850 -0.0080900240 0 0
0.0035107730 -0.0079466820 0 0
0.0036110860 -0.0070719390 0 0
0.0032828250 -0.0055544980 0 0
0.0025723810 -0.0035463140 0 0
0.0015529700 -0.0012519250 0 0
0.0003203130 0.0010909430 0 0
-0.0010162530 0.0032363760 0 0
-0.0023443440 0.0049566390 0 0
-0.0035590540 0.0060653590 0 0
-0.0045728760 0.0064345500 0 0
-0.0053230290 0.0060057950 0 0
-0.0057730410 0.0047973270 0 0
-0.0059090010 0.0029064390 0 0
-0.0057363920 0.0005042410 0 0
-0.0052821110 -0.0021793110 0 0
-0.0045986020 -0.0048789670 0 0
-0.0037626950 -0.0073234460 0 0
-0.0028658080 -0.0092669360 0 0
-0.0019990240 -0.0105180380 0 0
-0.0012388110 -0.0109607530 0 0
-0.0006366890 -0.0105646060 0 0
-0.0002139050 -0.0093847610 0 0
0.0000385398 -0.0075542330 0 0
0.0001541340 -0.0052694950 0 0
0.0001791500 -0.0027706410 0 0
0.0001573060 -0.0003181210 0 0
0.0001172190 0.0018317920 0 0
0.0000694651 0.0034517300 0 0
0.0000142319 0.0043670080 0 0
-0.0000461963 0.0044753840 0 0
-0.0000977875 0.0037587910 0 0
-0.0001129430 0.0022842010 0 0
-0.0000566674 0.0001927800 0 0
0.0001034990 -0.0023207200 0 0
0.0003889600 -0.0050335570 0 0
0.0008048310 -0.0077201560 0 0
0.0013366470 -0.0101729760 0 0
0.0019492250 -0.0122174880 0 0
0.0025911770 -0.0137219380 0 0
0.0032062640 -0.0146037550 0 0
0.0037461090 -0.0148338800 0 0
0.0041768570 -0.0144396460 0 0
0.0044783910 -0.0135071480 0 0
0.0046407990 -0.0121822720 0 0
0.0046624430 -0.0106650670 0 0
0.0045502200 -0.0091918480 0 0
0.0043215330 -0.0080052180 0 0
0.0040076410 -0.0073175160 0 0
0.0036562280 -0.0072756720 0 0
0.0033294270 -0.0079361980 0 0
0.0030953850 -0.0092569220 0 0
0.0030150000 -0.0111061340 0 0
0.0031272650 -0.0132837570 0 0
0.0034366730 -0.0155474810 0 0
0.0039065450 -0.0176398320 0 0
0.0044628680 -0.0193150960 0 0
0.0050100280 -0.0203646860 0 0
0.0054518290 -0.0206380410 0 0
0.0057076210 -0.0200563170 0 0
0.0057198720 -0.0186181310 0 0
0.0054567200 -0.0163984600 0 0
0.0049127500 -0.0135419970 0 0
0.0041080760 -0.0102518010 0 0
0.0030849930 -0.0067741810 0 0
0.0019025980 -0.0033800160 0 0
0.0006313010 -0.0003416480 0 0
-0.0006511920 0.0020942380 0 0
-0.0018634840 0.0037336500 0 0
-0.0029260630 0.0044555910 0 0
-0.0037696690 0.0042211640 0 0
-0.0043450080 0.0030727210 0 0
-0.0046306840 0.0011275320 0 0
-0.0046358350 -0.0014316910 0 0
-0.0043963870 -0.0043708190 0 0
-0.0039676850 -0.0074243650 0 0
-0.0034174640 -0.0103198950 0 0
-0.0028202360 -0.0128029760 0 0
-0.0022517900 -0.0146592900 0 0
-0.0017833130 -0.0157318330 0 0
-0.0014753460 -0.0159322610 0 0
-0.0013719060 -0.0152469680 0 0
-0.0014959080 -0.0137387990 0 0
-0.0018471500 -0.0115437630 0 0
-0.0024030710 -0.0088613110 0 0
-0.0031215640 -0.0059377420 0 0
-0.0039448390 -0.0030435880 0 0
-0.0048039570 -0.0004466030 0 0
-0.0056246670 0.0016167360 0 0
-0.0063344470 0.0029663910 0 0
-0.0068692710 0.0034951360 0 0
-0.0071790780 0.0031733710 0 0
-0.0072323270 0.0020436820 0 0
-0.0070193250 0.0002087410 0 0
-0.0065530740 -0.0021829940 0 0
-0.0058679100 -0.0049490750 0 0
-0.0050168400 -0.0078812860 0 0
-0.0040665860 -0.0107559610 0 0
-0.0030893120 -0.0133530960 0 0
-0.0021535530 -0.0154831510 0 0
-0.0013184340 -0.0170129720 0 0
-0.0006326450 -0.0178823110 0 0
-0.0001359600 -0.0181076330 0 0
0.0001411730 -0.0177744990 0 0
0.0001834080 -0.0170210590 0 0
-0.0000004738 -0.0160153470 0 0
-0.0003722560 -0.0149311270 0 0
-0.0008669170 -0.0139281600 0 0
-0.0014006920 -0.0131396910 0 0
-0.0018808500 -0.0126656270 0 0
-0.0022167180 -0.0125689580 0 0
-0.0023317320 -0.0128736660 0 0
-0.0021743260 -0.0135626120 0 0
-0.0017261830 -0.0145753530 0 0
-0.0010070790 -0.0158089540 0 0
-0.0000733315 -0.0171252060 0 0
0.0009919200 -0.0183644380 0 0
0.0020916680 -0.0193630850 0 0
0.0031242510 -0.0199718670 0 0
0.0039892640 -0.0200728680 0 0
0.0045964340 -0.0195952640 0 0
0.0048786010 -0.0185291090 0 0
0.0048022630 -0.0169337140 0 0
0.0043708820 -0.0149359840 0 0
0.0036221970 -0.0127178930 0 0
0.0026219910 -0.0104970470 0 0
0.0014555820 -0.0085043430 0 0
0.0002188940 -0.0069599200 0 0
-0.0009887920 -0.0060472430 0 0
-0.0020712670 -0.0058870590 0 0
-0.0029445760 -0.0065164210 0 0
-0.0035492320 -0.0078793380 0 0
-0.0038601390 -0.0098323990 0 0
-0.0038887430 -0.0121640830 0 0
-0.0036767360 -0.0146235430 0 0
-0.0032852720 -0.0169532260 0 0
-0.0027855650 -0.0189193200 0 0
-0.0022538680 -0.0203352460 0 0
-0.0017675100 -0.0210754560 0 0
-0.0013974510 -0.0210798420 0 0
-0.0011987720 -0.0203521480 0 0
-0.0012039140 -0.0189561610 0 0
-0.0014206800 -0.0170108490 0 0
-0.0018335630 -0.0146832360 0 0
-0.0024058980 -0.0121780400 0 0
-0.0030808960 -0.0097245350 0 0
-0.0037822640 -0.0075610230 0 0
-0.0044185290 -0.0059160040 0 0
-0.0048942160 -0.0049853810 0 0
-0.0051247440 -0.0049081000 0 0
-0.0050479450 -0.0057454160 0 0
-0.0046287870 -0.0074683150 0 0
-0.0038601810 -0.0099555120 0 0
-0.0027636320 -0.0130035540 0 0
-0.0013894790 -0.0163488310 0 0
0.0001853620 -0.0196972480 0 0
0.0018619800 -0.0227549850 0 0
0.0035252280 -0.0252561090 0 0
0.0050517270 -0.0269865170 0 0
0.0063223940 -0.0278037410 0 0
0.0072391800 -0.0276497640 0 0
0.0077415020 -0.0265544230 0 0
0.0078162340 -0.0246296980 0 0
0.0074980370 -0.0220564090 0 0
0.0068612280 -0.0190658360 0 0
0.0060069170 -0.0159199310 0 0
0.0050485030 -0.0128921840 0 0
0.0040965670 -0.0102482380 0 0
0.0032444120 -0.0082252080 0 0
0.0025578570 -0.0070108640 0 0
0.0020715800 -0.0067260980 0 0
0.0017901550 -0.0074142370 0 0
0.0016919570 -0.0090376120 0 0
0.0017365410 -0.0114782820 0 0
0.0018751160 -0.0145411400 0 0
0.0020615070 -0.0179626070 0 0
0.0022601170 -0.0214299310 0 0
0.0024469190 -0.0246125300 0 0
0.0026026030 -0.0272012830 0 0
0.0027031830 -0.0289478700 0 0
0.0027150680 -0.0296957910 0 0
0.0025978110 -0.0293976180 0 0
0.0023139450 -0.0281174330 0 0
0.0018419420 -0.0260200770 0 0
0.0011848080 -0.0233491550 0 0
0.0003688850 -0.0203963640 0 0
-0.0005639780 -0.0174675890 0 0
-0.0015634370 -0.0148526260 0 0
-0.0025743070 -0.0128015400 0 0
-0.0035388950 -0.0115061410 0 0
-0.0043992640 -0.0110848690 0 0
-0.0050999710 -0.0115715700 0 0
-0.0055922100 -0.0129106900 0 0
-0.0058393340 -0.0149621270 0 0
-0.0058220470 -0.0175163710 0 0
-0.0055411570 -0.0203165690 0 0
-0.0050174570 -0.0230840570 0 0
-0.0042898350 -0.0255458930 0 0
-0.0034122970 -0.0274621410 0 0
-0.0024502790 -0.0286495630 0 0
-0.0014774220 -0.0289997580 0 0
-0.0005724320 -0.0284906500 0 0
0.0001865680 -0.0271894330 0 0
0.0007309410 -0.0252454370 0 0
0.0010110810 -0.0228731310 0 0
0.0010035530 -0.0203275200 0 0
0.0007143050 -0.0178761370 0 0
0.0001773960 -0.0157726570 0 0
-0.0005503710 -0.0142354740 0 0
-0.0013970820 -0.0134310100 0 0
-0.0022829060 -0.0134600880 0 0
-0.0031246890 -0.0143475760 0 0
-0.0038385030 -0.0160369430 0 0
-0.0043443900 -0.0183909950 0 0
-0.0045778150 -0.0212001680 0 0
-0.0045062730 -0.0241998620 0 0
-0.0041419290 -0.0270964360 0 0
-0.0035414700 -0.0295986070 0 0
-0.0027933520 -0.0314493860 0 -1
-0.0020000050 -0.0324540720 0 -1
-0.0012621360 -0.0325008180 0 -1
-0.0006681210 -0.0315709990 0 -1
-0.0002882850 -0.0297380210 0 0
-0.0001728480 -0.0271555890 0 0
-0.0003524860 -0.0240385740 0 0
-0.0008395760 -0.0206404390 0 0
-0.0016272700 -0.0172312960 0 0
-0.0026861910 -0.0140789890 0 0
-0.0039630220 -0.0114321390 0 0
-0.0053853430 -0.0095022690 0 0
-0.0068718280 -0.0084442760 0 0
-0.0083423600 -0.0083381920 0 0
-0.0097236250 -0.0091767420 0 0
-0.0109510700 -0.0108623610 0 0
-0.0119715400 -0.0132155000 0 0
-0.0127485930 -0.0159940830 0 0
-0.0132688710 -0.0189224110 0 0
-0.0135470660 -0.0217261690 0 0
-0.0136266990 -0.0241671090 0 0
-0.0135740260 -0.0260691130 0 0
-0.0134651250 -0.0273308410 0 0
-0.0133703400 -0.0279267400 0 0
-0.0133419540 -0.0279005250 0 0
-0.0134083650 -0.0273531420 0 0
-0.0135737620 -0.0264264860 0 0
-0.0138206530 -0.0252853990 0 0
-0.0141137520 -0.0241005550 0 0
-0.0144046460 -0.0230339590 0 0
-0.0146366630 -0.0222276420 0 0
-0.0147501850 -0.0217945290 0 0
-0.0146900200 -0.0218096430 0 0
-0.0144153750 -0.0223013170 0 0
-0.0139093160 -0.0232449070 0 0
-0.0131830100 -0.0245628550 0 0
-0.0122726260 -0.0261327030 0 0
-0.0112313800 -0.0278005140 0 0
-0.0101224860 -0.0293954040 0 0
-0.0090168010 -0.0307433830 0 -1
-0.0079927280 -0.0316818340 0 -1
-0.0071318780 -0.0320759260 0 -1
-0.0065073520 -0.0318354270 0 -1
-0.0061685370 -0.0309283010 0 -1
-0.0061297400 -0.0293882890 0 0
-0.0063679000 -0.0273157700 0 0
-0.0068298690 -0.0248716780 0 0
-0.0074453170 -0.0222634730 0 0
-0.0081395280 -0.0197230740 0 0
-0.0088419630 -0.0174797800 0 0
-0.0094894210 -0.0157334700 0 0
-0.0100257760 -0.0146329570 0 0
-0.0104023870 -0.0142625940 0 0
-0.0105815410 -0.0146383770 0 0
-0.0105416530 -0.0157120080 0 0
-0.0102817730 -0.0173789840 0 0
-0.0098233220 -0.0194877560 0 0
-0.0092071590 -0.0218500410 0 0
-0.0084855830 -0.0242533980 0 0
-0.0077127490 -0.0264766260 0 0
-0.0069392280 -0.0283078440 0 0
-0.0062126910 -0.0295637190 0 0
-0.0055809340 -0.0301074310 0 -1
-0.0050926650 -0.0298639000 0 0
-0.0047937730 -0.0288313540 0 0
-0.0047182990 -0.0270873200 0 0
-0.0048757450 -0.0247862080 0 0
-0.0052411970 -0.0221465810 0 0
-0.0057561120 -0.0194285100 0 0
-0.0063404960 -0.0169035030 0 0
-0.0069081660 -0.0148212970 0 0
-0.0073769850 -0.0133795190 0 0
-0.0076746060 -0.0127019710 0 0
-0.0077456170 -0.0128280870 0 0
-0.0075621510 -0.0137130510 0 0
-0.0071326630 -0.0152372080 0 0
-0.0065020270 -0.0172232980 0 0
-0.0057418820 -0.0194600570 0 0
-0.0049363650 -0.0217304480 0 0
-0.0041690840 -0.0238406350 0 0
-0.0035136670 -0.0256431400 0 0
-0.0030274070 -0.0270480110 0 0
-0.0027474600 -0.0280204910 0 0
-0.0026901310 -0.0285698440 0 0
-0.0028534540 -0.0287370340 0 0
-0.0032215280 -0.0285862790 0 0
-0.0037679850 -0.0281997950 0 0
-0.0044562670 -0.0276725000 0 0
-0.0052367120 -0.0271052650 0 0
-0.0060444610 -0.0265975470 0 0
-0.0068032320 -0.0262400800 0 0
-0.0074355660 -0.0261073350 0 0
-0.0078755230 -0.0262500000 0 0
-0.0080799780 -0.0266889140 0 0
-0.0080367510 -0.0274116570 0 0
-0.0077683320 -0.0283720360 0 0
-0.0073307130 -0.0294925880 0 0
-0.0068081230 -0.0306695890 0 -1
-0.0063032570 -0.0317795610 0 -1
-0.0059210050 -0.0326882370 0 -1
-0.0057479070 -0.0332641840 0 -1
-0.0058360620 -0.0333963580 0 -1
-0.0061991230 -0.0330113350 0 -1
-0.0068195050 -0.0320857680 0 -1
-0.0076593170 -0.0306517730 0 -1
-0.0086676150 -0.0287953330 0 0
-0.0097820280 -0.0266489410 0 0
-0.0109285860 -0.0243792430 0 0
-0.0120246890 -0.0221708680 0 0
-0.0129865500 -0.0202096520 0 0
-0.0137386250 -0.0186682550 0 0
-0.0142220250 -0.0176931780 0 0
-0.0144009470 -0.0173905740 0 0
-0.0142673930 -0.0178119980 0 0
-0.0138430680 -0.0189449370 0 0
-0.0131761110 -0.0207118800 0 0
-0.0123329220 -0.0229777100 0 0
-0.0113894920 -0.0255625320 0 0
-0.0104264220 -0.0282568440 0 0
-0.0095263210 -0.0308374090 0 -1
-0.0087686260 -0.0330844020 0 -1
-0.0082200840 -0.0348018310 0 -1
-0.0079249170 -0.0358412950 0 -1
-0.0078998650 -0.0361249270 0 -1
-0.0081349770 -0.0356612870 0 -1
-0.0085977040 -0.0345495180 0 -1
-0.0092388330 -0.0329691670 0 -1
-0.0100000870 -0.0311554820 0 -1
-0.0108219250 -0.0293645420 0 0
-0.0116489610 -0.0278365990 0 0
-0.0124314950 -0.0267651680 0 0
-0.0131240090 -0.0262751510 0 0
-0.0136836580 -0.0264105040 0 0
-0.0140713110 -0.0271315830 0 0
-0.0142545160 -0.0283222170 0 0
-0.0142109400 -0.0298063910 0 0
-0.0139326920 -0.0313737770 0 -1
-0.0134319160 -0.0328104000 0 -1
-0.0127455770 -0.0339271040 0 -1
-0.0119359260 -0.0345789870 0 -1
-0.0110847060 -0.0346742460 0 -1
-0.0102819950 -0.0341759140 0 -1
-0.0096127950 -0.0331010010 0 -1
-0.0091449490 -0.0315190120 0 -1
-0.0089211490 -0.0295486850 0 0
-0.0089567310 -0.0273508850 0 0
-0.0092426560 -0.0251166460 0 0
-0.0097502240 -0.0230499870 0 0
-0.0104346990 -0.0213459570 0 0
-0.0112382920 -0.0201668240 0 0
-0.0120935950 -0.0196215250 0 0
-0.0129278880 -0.0197529450 0 0
-0.0136691020 -0.0205355590 0 0
-0.0142531060 -0.0218828560 0 0
-0.0146295310 -0.0236603170 0 0
-0.0147636540 -0.0256995820 0 0
-0.0146355640 -0.0278135210 0 0
-0.0142415380 -0.0298139080 0 0
-0.0136010210 -0.0315306180 0 -1
-0.0127656280 -0.0328282110 0 -1
-0.0118214780 -0.0336156580 0 -1
-0.0108789410 -0.0338478770 0 -1
-0.0100523460 -0.0335217320 0 -1
-0.0094389790 -0.0326707490 0 -1
-0.0091057720 -0.0313610920 0 -1
-0.0090845860 -0.0296885910 0 0
-0.0093712690 -0.0277753350 0 0
-0.0099259840 -0.0257649810 0 0
-0.0106778580 -0.0238168030 0 0
-0.0115360460 -0.0220975850 0 0
-0.0124030470 -0.0207693550 0 0
-0.0131848510 -0.0199720070 0 0
-0.0137972300 -0.0198030930 0 0
-0.0141707120 -0.0203000030 0 0
-0.0142562220 -0.0214298050 0 0
-0.0140309390 -0.0230891500 0 0
-0.0135018450 -0.0251137470 0 0
-0.0127057730 -0.0272958210 0 0
-0.0117074500 -0.0294078460 0 0
-0.0105957910 -0.0312300190 0 -1
-0.0094764480 -0.0325773620 0 -1
-0.0084605270 -0.0333216510 0 -1
-0.0076518590 -0.0334043270 0 -1
-0.0071342200 -0.0328388270 0 -1
-0.0069592580 -0.0317035130 0 -1
-0.0071378530 -0.0301286520 0 -1
-0.0076380390 -0.0282809640 0 0
-0.0083905930 -0.0263473610 0 0
-0.0093021790 -0.0245181710 0 0
-0.0102741480 -0.0229703830 0 0
-0.0112204270 -0.0218514150 0 0
-0.0120765200 -0.0212640540 0 0
-0.0127987050 -0.0212550770 0 0
-0.0133594800 -0.0218111490 0 0
-0.0137427250 -0.0228632670 0 0
-0.0139376400 -0.0242976510 0 0
-0.0139346880 -0.0259703040 0 0
-0.0137297950 -0.0277234680 0 0
-0.0133348390 -0.0294019900 0 0
-0.0127847480 -0.0308663040 0 -1
-0.0121357120 -0.0320001160 0 -1
-0.0114573180 -0.0327150560 0 -1
-0.0108239600 -0.0329560690 0 -1
-0.0103081150 -0.0327082700 0 -1
-0.0099744370 -0.0320023590 0 -1
-0.0098727720 -0.0309151810 0 -1
-0.0100312050 -0.0295648720 0 0
-0.0104521820 -0.0281028630 0 0
-0.0111120190 -0.0267036500 0 0
-0.0119617440 -0.0255500500 0 0
-0.0129289440 -0.0248120750 0 0
-0.0139223280 -0.0246218740 0 0
-0.0148396900 -0.0250518430 0 0
-0.0155782810 -0.0261034800 0 0
-0.0160465230 -0.0277090330 0 0
-0.0161761130 -0.0297414540 0 0
-0.0159325730 -0.0320275250 0 -1
-0.0153218140 -0.0343631590 0 -1
-0.0143916910 -0.0365318860 0 -1
-0.0132287670 -0.0383255520 0 -1
-0.0119495400 -0.0395645000 0 -1
-0.0106846540 -0.0401148580 0 -1
-0.0095580820 -0.0399017550 0 -1
-0.0086677790 -0.0389175300 0 -1
-0.0080737120 -0.0372235550 0 -1
-0.0077947980 -0.0349448700 0 -1
-0.0078124010 -0.0322591880 0 -1
-0.0080760300 -0.0293823820 0 0
-0.0085083720 -0.0265504890 0 0
-0.0090113230 -0.0239975900 0 0
-0.0094764210 -0.0219315840 0 0
-0.0098001510 -0.0205120590 0 0
-0.0099008840 -0.0198339790 0 0
-0.0097330000 -0.0199189020 0 0
-0.0092949690 -0.0207141250 0 0
-0.0086296960 -0.0220993610 0 0
-0.0078163580 -0.0238998880 0 0
-0.0069551930 -0.0259045690 0 0
-0.0061497570 -0.0278876660 0 0
-0.0054911960 -0.0296331320 0 0
-0.0050472230 -0.0309576860 0 -1
-0.0048566430 -0.0317278350 0 -1
-0.0049283000 -0.0318687830 0 -1
-0.0052434410 -0.0313662750 0 -1
-0.0057620930 -0.0302636000 0 -1
-0.0064325400 -0.0286561140 0 0
-0.0072005630 -0.0266845970 0 0
-0.0080160070 -0.0245269750 0 0
-0.0088360300 -0.0223872110 0 0
-0.0096244370 -0.0204802140 0 0
-0.0103470040 -0.0190124100 0 0
-0.0109656120 -0.0181590930 0 0
-0.0114367520 -0.0180417840 0 0
-0.0117170650 -0.0187112130 0 0
-0.0117720950 -0.0201413660 0 0
-0.0115830940 -0.0222351680 0 0
-0.0111515160 -0.0248371170 0 0
-0.0105034130 -0.0277478810 0 0
-0.0096923800 -0.0307398230 0 -1
-0.0087958720 -0.0335750320 0 -1
-0.0079026380 -0.0360258650 0 -1
-0.0070960640 -0.0378953140 0 -1
-0.0064407860 -0.0390345860 0 -1
-0.0059763170 -0.0393572540 0 -1
-0.0057174950 -0.0388504600 0 -1
-0.0056601510 -0.0375823850 0 -1
-0.0057889610 -0.0357022780 0 -1
-0.0060819670 -0.0334283760 0 -1
-0.0065078320 -0.0310225820 0 -1
-0.0070188740 -0.0287563640 0 0
-0.0075477890 -0.0268755280 0 0
-0.0080134110 -0.0255714740 0 0
-0.0083351460 -0.0249641180 0 0
-0.0084512290 -0.0250968420 0 0
-0.0083329620 -0.0259394580 0 0
-0.0079889240 -0.0273952420 0 0
-0.0074607880 -0.0293104970 0 0
-0.0068168910 -0.0314866130 0 -1
-0.0061457200 -0.0336957720 0 -1
-0.0055463080 -0.0357013780 0 -1
-0.0051140740 -0.0372821450 0 -1
-0.0049255300 -0.0382565470 0 -1
-0.0050267190 -0.0385033250 0 -1
-0.0054281620 -0.0379746940 0 -1
-0.0061069450 -0.0367016860 0 -1
-0.0070146170 -0.0347920910 0 -1
-0.0080881250 -0.0324200310 0 -1
-0.0092605640 -0.0298068850 0 0
-0.0104685650 -0.0271969450 0 0
-0.0116546870 -0.0248324570 0 0
-0.0127665150 -0.0229313320 0 0
-0.0137551960 -0.0216694780 0 0
-0.0145742840 -0.0211684080 0 0
-0.0151795260 -0.0214869540 0 0
-0.0155317030 -0.0226152560 0 0
-0.0156042190 -0.0244710870 0 0
-0.0153933070 -0.0269013720 0 0
-0.0149244850 -0.0296921950 0 0
-0.0142497240 -0.0325884500 0 -1
-0.0134366590 -0.0353209070 0 -1
-0.0125565560 -0.0376357700 0 -1
-0.0116768030 -0.0393220800 0 -1
-0.0108592770 -0.0402345660 0 -1
-0.0101623000 -0.0403102260 0 -1
-0.0096420280 -0.0395754280 0 -1
-0.0093500510 -0.0381404260 0 -1
-0.0093272920 -0.0361820510 0 -1
-0.0095965930 -0.0339194760 0 -1
-0.0101550170 -0.0315887570 0 -1
-0.0109663290 -0.0294198550 0 0
-0.0119577480 -0.0276173870 0 0
-0.0130267930 -0.0263447940 0 0
-0.0140582020 -0.0257116040 0 0
-0.0149433690 -0.0257652060 0 0
-0.0155942890 -0.0264891600 0 0
-0.0159502260 -0.0278075660 0 0
-0.0159801380 -0.0295926370 0 0
-0.0156831540 -0.0316739960 0 -1
-0.0150871730 -0.0338515770 0 -1
-0.0142462870 -0.0359142580 0 -1
-0.0132384490 -0.0376627630 0 -1
-0.0121620880 -0.0389321590 0 -1
-0.0111285480 -0.0396092790 0 -1
-0.0102501580 -0.0396426930 0 -1
-0.0096267880 -0.0390454610 0 -1
-0.0093328050 -0.0378928180 0 -1
-0.0094053540 -0.0363170450 0 -1
-0.0098366110 -0.0344996980 0 -1
-0.0105731980 -0.0326589500 0 -1
-0.0115239430 -0.0310294850 0 -1
-0.0125741380 -0.0298345490 0 0
-0.0136025720 -0.0292537420 0 0
-0.0144978030 -0.0293939730 0 0
-0.0151706740 -0.0302719100 0 -1
-0.0155610900 -0.0318129110 0 -1
-0.0156399980 -0.0338658360 0 -1
-0.0154087550 -0.0362286660 0 -1
-0.0148954270 -0.0386777220 0 -1
-0.0141473160 -0.0409928570 0 -1
-0.0132233840 -0.0429739470 0 -1
-0.0121903810 -0.0444498750 0 -1
-0.0111209060 -0.0452852510 0 -1
-0.0100889040 -0.0453896770 0 -1
-0.0091613490 -0.0447302800 0 -1
-0.0083895480 -0.0433437450 0 -1
-0.0078045180 -0.0413417250 0 -1
-0.0074171170 -0.0389044930 0 -1
-0.0072195950 -0.0362615200 0 -1
-0.0071859560 -0.0336627050 0 -1
-0.0072719050 -0.0313476250 0 -1
-0.0074170790 -0.0295194000 0 0
-0.0075524340 -0.0283255380 0 0
-0.0076130950 -0.0278454800 0 0
-0.0075523580 -0.0280847650 0 0
-0.0073507180 -0.0289760600 0 0
-0.0070160670 -0.0303870630 0 -1
-0.0065754730 -0.0321348660 0 -1
-0.0060637250 -0.0340051090 0 -1
-0.0055154240 -0.0357731610 0 -1
-0.0049642510 -0.0372254750 0 -1
-0.0044479710 -0.0381806840 0 -1
-0.0040140520 -0.0385097690 0 -1
-0.0037202720 -0.0381525050 0 -1
-0.0036276510 -0.0371260290 0 -1
-0.0037874910 -0.0355225730 0 -1
-0.0042273580 -0.0334967410 0 -1
-0.0049413280 -0.0312460730 0 -1
-0.0058872250 -0.0289903450 0 0
-0.0069905900 -0.0269530710 0 0
-0.0081542220 -0.0253442660 0 0
-0.0092718650 -0.0243417260 0 0
-0.0102432310 -0.0240706470 0 0
-0.0109864730 -0.0245853200 0 0
-0.0114454660 -0.0258589480 0 0
-0.0115926540 -0.0277859480 0 0
-0.0114296760 -0.0301964030 0 -1
-0.0109858890 -0.0328784530 0 -1
-0.0103142140 -0.0356033480 0 -1
-0.0094857850 -0.0381483630 0 -1
-0.0085848150 -0.0403143700 0 -1
-0.0077019160 -0.0419378860 0 -1
-0.0069232340 -0.0429003470 0 -1
-0.0063175270 -0.0431373160 0 -1
-0.0059284720 -0.0426471840 0 -1
-0.0057761830 -0.0414960540 0 -1
-0.0058633810 -0.0398154810 0 -1
-0.0061799340 -0.0377914210 0 -1
-0.0067042730 -0.0356447040 0 -1
-0.0074028900 -0.0336053230 0 -1
-0.0082288540 -0.0318847650 0 -1
-0.0091207660 -0.0306514820 0 -1
-0.0100045590 -0.0300133300 0 -1
-0.0107998330 -0.0300084690 0 -1
-0.0114300500 -0.0306045330 0 -1
-0.0118339630 -0.0317050790 0 -1
-0.0119748530 -0.0331620180 0 -1
-0.0118448180 -0.0347926110 0 -1
-0.0114630610 -0.0363994670 0 -1
-0.0108697110 -0.0377910490 0 -1
-0.0101192080 -0.0387992660 0 -1
-0.0092761520 -0.0392920560 0 -1
-0.0084126280 -0.0391824910 0 -1
-0.0076042370 -0.0384372800 0 -1
-0.0069239130 -0.0370841030 0 -1
-0.0064350950 -0.0352129730 0 -1
-0.0061864570 -0.0329678400 0 -1
-0.0062082710 -0.0305298450 0 -1
-0.0065084970 -0.0280969440 0 0
-0.0070682160 -0.0258642060 0 0
-0.0078383220 -0.0240076590 0 0
-0.0087399190 -0.0226729940 0 0
-0.0096708370 -0.0219682830 0 0
-0.0105193190 -0.0219586200 0 0
-0.0111817580 -0.0226611030 0 0
-0.0115789120 -0.0240397560 0 0
-0.0116670250 -0.0260008690 0 0
-0.0114425820 -0.0283909070 0 0
-0.0109394000 -0.0310012330 0 -1
-0.0102179700 -0.0335831860 0 -1
-0.0093508180 -0.0358732000 0 -1
-0.0084098560 -0.0376242380 0 -1
-0.0074595390 -0.0386386220 0 -1
-0.0065557730 -0.0387964110 0 -1
-0.0057479810 -0.0380731640 0 -1
-0.0050808790 -0.0365433870 0 -1
-0.0045937760 -0.0343700630 0 -1
-0.0043175420 -0.0317837330 0 -1
-0.0042700520 -0.0290550370 0 0
-0.0044508780 -0.0264640940 0 0
-0.0048377050 -0.0242706700 0 0
-0.0053873840 -0.0226894130 0 0
-0.0060411610 -0.0218723280 0 0
-0.0067309770 -0.0218983740 0 0
-0.0073849630 -0.0227691520 0 0
-0.0079326410 -0.0244098520 0 0
-0.0083106930 -0.0266757180 0 0
-0.0084692700 -0.0293649500 0 0
-0.0083788200 -0.0322375670 0 -1
-0.0080370100 -0.0350377220 0 -1
-0.0074741350 -0.0375165190 0 -1
-0.0067551500 -0.0394536340 0 -1
-0.0059763900 -0.0406770950 0 -1
-0.0052547400 -0.0410801160 0 -1
-0.0047093620 -0.0406324000 0 -1
-0.0044411420 -0.0393834580 0 -1
-0.0045170340 -0.0374583660 0 -1
-0.0049626130 -0.0350489730 0 -1
-0.0057613340 -0.0324021090 0 -1
-0.0068577970 -0.0298027360 0 0
-0.0081640030 -0.0275488260 0 0
-0.0095690610 -0.0259177340 0 0
-0.0109530090 -0.0251288630 0 0
-0.0122034310 -0.0253113770 0 0
-0.0132296770 -0.0264848400 0 0
-0.0139692070 -0.0285551050 0 0
-0.0143867610 -0.0313235580 0 -1
-0.0144724450 -0.0345084540 0 -1
-0.0142426100 -0.0377771890 0 -1
-0.0137406520 -0.0407855420 0 -1
-0.0130325720 -0.0432180670 0 -1
-0.0121965950 -0.0448241710 0 -1
-0.0113107950 -0.0454446730 0 -1
-0.0104432700 -0.0450246870 0 -1
-0.0096472220 -0.0436120640 0 -1
-0.0089605430 -0.0413444850 0 -1
-0.0084083410 -0.0384298040 0 -1
-0.0080068180 -0.0351240620 0 -1
-0.0077657010 -0.0317106410 0 -1
-0.0076871940 -0.0284813560 0 0
-0.0077637790 -0.0257170380 0 0
-0.0079788490 -0.0236644740 0 0
-0.0083102050 -0.0225094210 0 0
-0.0087329270 -0.0223503810 0 0
-0.0092191660 -0.0231812390 0 0
-0.0097353420 -0.0248893350 0 0
-0.0102397400 -0.0272699410 0 0
-0.0106837840 -0.0300534530 0 -1
-0.0110179260 -0.0329401920 0 -1
-0.0111999680 -0.0356368710 0 -1
-0.0112027060 -0.0378877670 0 -1
-0.0110187520 -0.0394962390 0 -1
-0.0106621830 -0.0403378050 0 -1
-0.0101680380 -0.0403684860 0 -1
-0.0095897540 -0.0396296060 0 -1
-0.0089927510 -0.0382463390 0 -1
-0.0084434580 -0.0364156580 0 -1
-0.0079967570 -0.0343822390 0 -1
-0.0076867090 -0.0324058460 0 -1
-0.0075229510 -0.0307264370 0 -1
-0.0074910230 -0.0295340320 0 0
-0.0075543410 -0.0289493610 0 0
-0.0076584910 -0.0290173800 0 0
-0.0077392740 -0.0297115790 0 0
-0.0077332120 -0.0309453990 0 -1
-0.0075881840 -0.0325871050 0 -1
-0.0072725280 -0.0344749370 0 -1
-0.0067807640 -0.0364301320 0 -1
-0.0061339660 -0.0382671990 0 -1
-0.0053746640 -0.0398033520 0 -1
-0.0045592270 -0.0408702120 0 -1
-0.0037515930 -0.0413289000 0 -1
-0.0030191860 -0.0410860740 0 -1
-0.0024290520 -0.0401073110 0 -1
-0.0020421310 -0.0384255280 0 -1
-0.0019046410 -0.0361433790 0 -1
-0.0020384970 -0.0334284920 0 -1
-0.0024356830 -0.0305005880 0 -1
-0.0030599420 -0.0276108480 0 0
-0.0038541600 -0.0250165920 0 0
-0.0047488720 -0.0229556160 0 0
-0.0056681320 -0.0216228100 0 0
-0.0065330970 -0.0211496380 0 0
-0.0072669990 -0.0215879230 0 0
-0.0078028090 -0.0229017090 0 0
-0.0080905990 -0.0249708540 0 0
-0.0081025770 -0.0276065930 0 0
-0.0078365660 -0.0305754430 0 -1
-0.0073184180 -0.0336269190 0 -1
-0.0066030450 -0.0365215650 0 -1
-0.0057737910 -0.0390553040 0 -1
-0.0049382730 -0.0410749160 0 -1
-0.0042176900 -0.0424817870 0 -1
-0.0037283550 -0.0432271040 0 -1
-0.0035582590 -0.0433051920 0 -1
-0.0037464870 -0.0427492580 0 -1
-0.0042747250 -0.0416293640 0 -1
-0.0050736490 -0.0400506150 0 -1
-0.0060388640 -0.0381500590 0 -1
-0.0070496000 -0.0360907320 0 -1
-0.0079866060 -0.0340507450 0 -1
-0.0087482770 -0.0322070730 0 -1
-0.0092639270 -0.0307162970 0 -1
-0.0095017290 -0.0296955540 0 0
-0.0094691950 -0.0292076340 0 0
-0.0092057930 -0.0292541270 0 0
-0.0087683750 -0.0297776000 0 0
-0.0082126530 -0.0306700870 0 -1
-0.0075786300 -0.0317850480 0 -1
-0.0068873830 -0.0329522750 0 -1
-0.0061490910 -0.0339958540 0 -1
-0.0053757250 -0.0347537210 0 -1
-0.0045919260 -0.0350962420 0 -1
-0.0038405130 -0.0349414760 0 -1
-0.0031812360 -0.0342652500 0 -1
-0.0026838640 -0.0331046760 0 -1
-0.0024185540 -0.0315546900 0 -1
-0.0024450220 -0.0297575850 0 0
-0.0028003280 -0.0278862040 0 0
-0.0034877560 -0.0261236400 0 0
-0.0044729650 -0.0246442930 0 0
-0.0056903850 -0.0235997880 0 0
-0.0070547950 -0.0231092970 0 0
-0.0084707060 -0.0232515900 0 0
-0.0098376890 -0.0240574580 0 0
-0.0110550480 -0.0255030890 0 0
-0.0120302220 -0.0275057460 0 0
-0.0126923030 -0.0299236830 0 0
-0.0130065500 -0.0325630240 0 -1
-0.0129826670 -0.0351933340 0 -1
-0.0126730520 -0.0375704550 0 -1
-0.0121625810 -0.0394632790 0 -1
-0.0115537580 -0.0406823490 0 -1
-0.0109517380 -0.0411081050 0 -1
-0.0104539880 -0.0407127810 0 -1
-0.0101456200 -0.0395680770 0 -1
-0.0100954420 -0.0378345820 0 -1
-0.0103472360 -0.0357352630 0 -1
-0.0109079750 -0.0335205600 0 -1
-0.0117404110 -0.0314345710 0 -1
-0.0127645170 -0.0296886570 0 0
-0.0138668540 -0.0284434540 0 0
-0.0149165360 -0.0277976360 0 0
-0.0157867750 -0.0277825420 0 0
-0.0163768750 -0.0283631340 0 0
-0.0166271170 -0.0294454650 0 0
-0.0165234990 -0.0308897700 0 -1
-0.0160948030 -0.0325278120 0 -1
-0.0154051160 -0.0341826600 0 -1
-0.0145430620 -0.0356878670 0 -1
-0.0136089270 -0.0369022410 0 -1
-0.0127019030 -0.0377176390 0 -1
-0.0119091530 -0.0380608380 0 -1
-0.0112972320 -0.0378937150 0 -1
-0.0109065400 -0.0372149560 0 -1
-0.0107492120 -0.0360625110 0 -1
-0.0108100820 -0.0345134330 0 -1
-0.0110504260 -0.0326788670 0 -1
-0.0114143380 -0.0306948640 0 -1
-0.0118370260 -0.0287111400 0 0
-0.0122536450 -0.0268789000 0 0
-0.0126061970 -0.0253375910 0 0
-0.0128460100 -0.0242017400 0 0
-0.0129320950 -0.0235507770 0 0
-0.0128292640 -0.0234232610 0 0
-0.0125098780 -0.0238138920 0 0
-0.0119593920 -0.0246713610 0 0
-0.0111830650 -0.0258976110 0 0
-0.0102109270 -0.0273516920 0 0
-0.0090982780 -0.0288611880 0 0
-0.0079202230 -0.0302406460 0 -1
-0.0067621140 -0.0313127470 0 -1
-0.0057094200 -0.0319282840 0 -1
-0.0048387940 -0.0319842560 0 -1
-0.0042105270 -0.0314400680 0 -1
-0.0038628700 -0.0303288150 0 -1
-0.0038093860 -0.0287587280 0 0
-0.0040400060 -0.0269021140 0 0
-0.0045250720 -0.0249732640 0 0
-0.0052203670 -0.0232000820 0 0
-0.0060711260 -0.0217952680 0 0
-0.0070143810 -0.0209316400 0 0
-0.0079805920 -0.0207239410 0 0
-0.0088960910 -0.0212175450 0 0
-0.0096877960 -0.0223840610 0 0
-0.0102912600 -0.0241244610 0 0
-0.0106612190 -0.0262799860 0 0
-0.0107807930 -0.0286491120 0 0
-0.0106654700 -0.0310078090 0 -1
-0.0103610540 -0.0331310430 0 -1
-0.0099362130 -0.0348141200 0 -1
-0.0094710680 -0.0358926860 0 -1
-0.0090459870 -0.0362600310 0 -1
-0.0087342110 -0.0358790560 0 -1
-0.0085967160 -0.0347864590 0 -1
-0.0086753900 -0.0330899740 0 -1
-0.0089844930 -0.0309611090 0 -1
-0.0095053110 -0.0286229100 0 0
-0.0101889980 -0.0263300040 0 0
-0.0109678210 -0.0243411640 0 0
-0.0117698330 -0.0228891640 0 0
-0.0125297520 -0.0221538570 0 0
-0.0131914600 -0.0222420940 0 0
-0.0137046690 -0.0231757450 0 0
-0.0140230050 -0.0248889190 0 0
-0.0141077740 -0.0272363820 0 0
-0.0139356410 -0.0300137290 0 -1
-0.0135055720 -0.0329856260 0 -1
-0.0128421720 -0.0359149860 0 -1
-0.0119958040 -0.0385862660 0 -1
-0.0110402450 -0.0408197780 0 -1
-0.0100670990 -0.0424780180 0 -1
-0.0091766890 -0.0434679220 0 -1
-0.0084665760 -0.0437430930 0 -1
-0.0080192660 -0.0433072240 0 -1
-0.0078907870 -0.0422166980 0 -1
-0.0081025780 -0.0405787110 0 -1
-0.0086398620 -0.0385422030 0 -1
-0.0094569550 -0.0362823730 0 -1
-0.0104856350 -0.0339831700 0 -1
-0.0116422140 -0.0318217950 0 -1
-0.0128322870 -0.0299553320 0 0
-0.0139555850 -0.0285079000 0 0
-0.0149136720 -0.0275592970 0 0
-0.0156201470 -0.0271379630 0 0
-0.0160107210 -0.0272193550 0 0
-0.0160510680 -0.0277290330 0 0
-0.0157416070 -0.0285503360 0 0
-0.0151189690 -0.0295370130 0 0
-0.0142532370 -0.0305291950 0 -1
-0.0132388850 -0.0313695140 0 -1
-0.0121788640 -0.0319172030 0 -1
-0.0111667430 -0.0320599630 0 -1
-0.0102746120 -0.0317240250 0 -1
-0.0095500180 -0.0308821320 0 -1
-0.0090196680 -0.0295579200 0 0
-0.0086961930 -0.0278252550 0 0
-0.0085836330 -0.0258024750 0 0
-0.0086774710 -0.0236425380 0 0
-0.0089599230 -0.0215203520 0 0
-0.0093964050 -0.0196181680 0 0
-0.0099375570 -0.0181090830 0 0
-0.0105254320 -0.0171388850 0 0
-0.0111002100 -0.0168087470 0 0
-0.0116061990 -0.0171628500 0 0
-0.0119985950 -0.0181835780 0 0
-0.0122513640 -0.0197948420 0 0
-0.0123627770 -0.0218728050 0 0
-0.0123546670 -0.0242613940 0 0
-0.0122659050 -0.0267875330 0 0
-0.0121433870 -0.0292720800 0 0
-0.0120327940 -0.0315373130 0 -1
-0.0119711060 -0.0334153720 0 -1
-0.0119835280 -0.0347608780 0 -1
-0.0120857790 -0.0354668610 0 -1
-0.0122896560 -0.0354799200 0 -1
-0.0126078500 -0.0348098390 0 -1
-0.0130546720 -0.0335302270 0 -1
-0.0136426360 -0.0317700640 0 -1
-0.0143763020 -0.0297004510 0 0
-0.0152437120 -0.0275210380 0 0
-0.0162076630 -0.0254458170 0 0
-0.0172024590 -0.0236849570 0 0
-0.0181400420 -0.0224223990 0 0
-0.0189238970 -0.0217932550 0 0
-0.0194653210 -0.0218663610 0 0
-0.0196976230 -0.0226359590 0 0
-0.0195876750 -0.0240243600 0 0
-0.0191447660 -0.0258950380 0 0
-0.0184233370 -0.0280726150 0 0
-0.0175156800 -0.0303642670 0 -1
-0.0165353470 -0.0325785700 0 -1
-0.0155969120 -0.0345414550 0 -1
-0.0147982640 -0.0361100130 0 -1
-0.0142094990 -0.0371833220 0 -1
-0.0138703740 -0.0377090010 0 -1
-0.0137947810 -0.0376851200 0 -1
-0.0139765520 -0.0371574740 0 -1
-0.0143912490 -0.0362127340 0 -1
-0.0149942020 -0.0349688750 0 -1
-0.0157199580 -0.0335637410 0 -1
-0.0164876150 -0.0321419030 0 -1
-0.0172120670 -0.0308407260 0 -1
-0.0178173230 -0.0297782740 0 0
-0.0182474790 -0.0290455750 0 0
-0.0184728140 -0.0287028820 0 0
-0.0184905720 -0.0287773840 0 0
-0.0183219740 -0.0292612840 0 0
-0.0180080690 -0.0301113690 0 -1
-0.0176046650 -0.0312508210 0 -1
-0.0171744000 -0.0325723960 0 -1
-0.0167765770 -0.0339422120 0 -1
-0.0164587750 -0.0352053620 0 -1
-0.0162528220 -0.0361958620 0 -1
-0.0161741740 -0.0367529620 0 -1
-0.0162232100 -0.0367429030 0 -1
-0.0163887840 -0.0360810840 0 -1
-0.0166554560 -0.0347483970 0 -1
-0.0170133710 -0.0327984930 0 -1
-0.0174635880 -0.0303561300 0 -1
-0.0180107410 -0.0276070260 0 0
-0.0186445000 -0.0247784260 0 0
-0.0193216580 -0.0221114150 0 0
-0.0199610520 -0.0198303990 0 0
-0.0204556330 -0.0181162400 0 0
-0.0206962690 -0.0170860710 0 0
-0.0205969000 -0.0167802250 0 0
-0.0201132780 -0.0171574080 0 0
-0.0192529430 -0.0181002570 0 0
-0.0180760650 -0.0194320070 0 0
-0.0166865770 -0.0209414640 0 0
-0.0152151710 -0.0224106910 0 0
-0.0137991410 -0.0236399920 0 0
-0.0125643180 -0.0244677150 0 0
-0.0116120070 -0.0247851880 0 0
-0.0110115610 -0.0245470550 0 0
-0.0107970330 -0.0237758600 0 0
-0.0109650040 -0.0225595610 0 0
-0.0114729560 -0.0210416570 0 0
-0.0122421520 -0.0194044790 0 0
-0.0131682570 -0.0178476590 0 0
-0.0141359470 -0.0165653450 0 0
-0.0150311960 -0.0157254930 0 0
-0.0157510410 -0.0154521940 0 0
-0.0162145170 -0.0158107790 0 0
-0.0163734780 -0.0167972250 0 0
-0.0162167340 -0.0183354790 0 0
-0.0157649540 -0.0202855010 0 0
-0.0150618740 -0.0224610890 0 0
-0.0141673720 -0.0246536280 0 0
-0.0131517870 -0.0266581990 0 0
-0.0120890170 -0.0282988310 0 0
-0.0110491340 -0.0294484760 0 0
-0.0100936570 -0.0300399130 0 -1
-0.0092753740 -0.0300678820 0 -1
-0.0086409410 -0.0295863710 0 0
-0.0082317830 -0.0287038530 0 0
-0.0080794590 -0.0275746740 0 0
-0.0081954140 -0.0263833000 0 0
-0.0085597980 -0.0253221370 0 0
-0.0091165460 -0.0245679500 0 0
-0.0097797850 -0.0242612670 0 0
-0.0104510830 -0.0244899530 0 0
-0.0110412020 -0.0252775710 0 0
-0.0114873540 -0.0265783730 0 0
-0.0117601250 -0.0282805370 0 0
-0.0118615350 -0.0302173850 0 -1
-0.0118202070 -0.0321842790 0 -1
-0.0116865020 -0.0339582160 0 -1
-0.0115242070 -0.0353188310 0 -1
-0.0113962700 -0.0360708680 0 -1
-0.0113507600 -0.0360668250 0 -1
-0.0114163880 -0.0352263030 0 -1
-0.0116080390 -0.0335479840 0 -1
-0.0119345570 -0.0311114330 0 -1
-0.0124027750 -0.0280687250 0 0
-0.0130169840 -0.0246283420 0 0
-0.0137750930 -0.0210348550 0 0
-0.0146638990 -0.0175478340 0 0
-0.0156565590 -0.0144225430 0 0
-0.0167131740 -0.0118930900 0 0
-0.0177833320 -0.0101564250 0 0
-0.0188094350 -0.0093551650 0 0
-0.0197299220 -0.0095596980 0 0
-0.0204826120 -0.0107536450 0 0
-0.0210096310 -0.0128284300 0 0
-0.0212645530 -0.0155906790 0 0
-0.0212207460 -0.0187818150 0 0
-0.0208786980 -0.0221060130 0 0
-0.0202690340 -0.0252620190 0 0
-0.0194488890 -0.0279750390 0 0
-0.0184928000 -0.0300249950 0 -1
-0.0174819550 -0.0312670460 0 -1
-0.0164953690 -0.0316409210 0 -1
-0.0156043110 -0.0311678720 0 -1
-0.0148689460 -0.0299376870 0 0
-0.0143351240 -0.0280915010 0 0
-0.0140303680 -0.0258058860 0 0
-0.0139608630 -0.0232796460 0 0
-0.0141124110 -0.0207216130 0 0
-0.0144553770 -0.0183376860 0 0
-0.0149491690 -0.0163170240 0 0
-0.0155421880 -0.0148184790 0 0
-0.0161691730 -0.0139586240 0 0
-0.0167523500 -0.0138020570 0 0
-0.0172100610 -0.0143541660 0 0
-0.0174701300 -0.0155571690 0 0
-0.0174825150 -0.0172911880 0 0
-0.0172272270 -0.0193820260 0 0
-0.0167158090 -0.0216159720 0 0
-0.0159879050 -0.0237600340 0 0
-0.0151066810 -0.0255851850 0 0
-0.0141550900 -0.0268911560 0 0
-0.0132318360 -0.0275309930 0 0
-0.0124442200 -0.0274309290 0 0
-0.0118945910 -0.0266004230 0 0
-0.0116600070 -0.0251311520 0 0
-0.0117715450 -0.0231871410 0 0
-0.0122032490 -0.0209875250 0 0
-0.0128757710 -0.0187821980 0 0
-0.0136720170 -0.0168225450 0 0
-0.0144590360 -0.0153324460 0 0
-0.0151105180 -0.0144846050 0 0
-0.0155250900 -0.0143845200 0 0
-0.0156374900 -0.0150626950 0 0
-0.0154224980 -0.0164754870 0 0
-0.0148938140 -0.0185140150 0 0
-0.0141002300 -0.0210187310 0 0
-0.0131193690 -0.0237960800 0 0
-0.0120486960 -0.0266339100 0 0
-0.0109951330 -0.0293137000 0 0
-0.0100646020 -0.0316207220 0 -1
-0.0093518270 -0.0333559520 0 -1
-0.0089307140 -0.0343526460 0 -1
-0.0088455660 -0.0344967000 0 -1
-0.0091040010 -0.0337464950 0 -1
-0.0096744140 -0.0321466720 0 -1
-0.0104918140 -0.0298312090 0 0
-0.0114722620 -0.0270134790 0 0
-0.0125298780 -0.0239632490 0 0
-0.0135886180 -0.0209731250 0 0
-0.0145862800 -0.0183204320 0 0
-0.0154747440 -0.0162327580 0 0
-0.0162215440 -0.0148635870 0 0
-0.0168138110 -0.0142796570 0 0
-0.0172610670 -0.0144585210 0 0
-0.0175918810 -0.0152947590 0 0
-0.0178428970 -0.0166140800 0 0
-0.0180452480 -0.0181943520 0 0
-0.0182153880 -0.0197921400 0 0
-0.0183533880 -0.0211724200 0 0
-0.0184475170 -0.0221374600 0 0
-0.0184819790 -0.0225494140 0 0
-0.0184443200 -0.0223422590 0 0
-0.0183300810 -0.0215227300 0 0
-0.0181438890 -0.0201638680 0 0
-0.0178982630 -0.0183951650 0 0
-0.0176131410 -0.0163908030 0 0
-0.0173176840 -0.0143554200 0 0
-0.0170511400 -0.0125064680 0 0
-0.0168570960 -0.0110528810 0 0
-0.0167694510 -0.0101707550 0 0
-0.0167960910 -0.0099786700 0 0
-0.0169100050 -0.0105182460 0 0
-0.0170533050 -0.0117471610 0 0
-0.0171520480 -0.0135477160 0 0
-0.0171348590 -0.0157461850 0 0
-0.0169480700 -0.0181351000 0 0
-0.0165638450 -0.0204944340 0 0
-0.0159826340 -0.0226112660 0 0
-0.0152327900 -0.0242978790 0 0
-0.0143676130 -0.0254080880 0 0
-0.0134584320 -0.0258508380 0 0
-0.0125844720 -0.0255984060 0 0
-0.0118228630 -0.0246866080 0 0
-0.0112416050 -0.0232071750 0 0
-0.0108948510 -0.0212950120 0 0
-0.0108177910 -0.0191135910 0 0
-0.0110206590 -0.0168408320 0 0
-0.0114842960 -0.0146560180 0 0
-0.0121595560 -0.0127271140 0 0
-0.0129714610 -0.0111986870 0 0
-0.0138281570 -0.0101821470 0 0
-0.0146333950 -0.0097494420 0 0
-0.0152996980 -0.0099292680 0 0
-0.0157598470 -0.0107038250 0 0
-0.0159751770 -0.0120058750 0 0
-0.0159390010 -0.0137185050 0 0
-0.0156746690 -0.0156804840 0 0
-0.0152304710 -0.0176980380 0 0
-0.0146737790 -0.0195618980 0 0
-0.0140841760 -0.0210682650 0 0
-0.0135441830 -0.0220424050 0 0
-0.0131283950 -0.0223618500 0 0
-0.0128938560 -0.0219740900 0 0
-0.0128739040 -0.0209047130 0 0
-0.0130757310 -0.0192551700 0 0
-0.0134814600 -0.0171909220 0 0
-0.0140534750 -0.0149212550 0 0
-0.0147431300 -0.0126739800 0 0
-0.0154986090 -0.0106711060 0 0
-0.0162684320 -0.0091113860 0 0
-0.0170009240 -0.0081606150 0 0
-0.0176422040 -0.0079443330 0 0
-0.0181361080 -0.0085366200 0 0
-0.0184285450 -0.0099440070 0 0
-0.0184755870 -0.0120904560 0 0
-0.0182525930 -0.0148122820 0 0
-0.0177618840 -0.0178691190 0 0
-0.0170365140 -0.0209711370 0 0
-0.0161377000 -0.0238168590 0 0
-0.0151457810 -0.0261324550 0 0
-0.0141483030 -0.0277035530 0 0
-0.0132290410 -0.0283944620 0 0
-0.0124587510 -0.0281550090 0 0
-0.0118879640 -0.0270181960 0 0
-0.0115437880 -0.0250917480 0 0
-0.0114313000 -0.0225460130 0 0
-0.0115364750 -0.0196000850 0 0
-0.0118275530 -0.0165061670 0 0
-0.0122553680 -0.0135307430 0 0
-0.0127557560 -0.0109320350 0 0
-0.0132562410 -0.0089352290 0 0
-0.0136859610 -0.0077083360 0 0
-0.0139853060 -0.0073421830 0 0
-0.0141125970 -0.0078382390 0 0
-0.0140479370 -0.0091067620 0 0
-0.0137955940 -0.0109760580 0 0
-0.0133848310 -0.0132123200 0 0
-0.0128667050 -0.0155483070 0 0
-0.0123050370 -0.0177178320 0 0
-0.0117640540 -0.0194908050 0 0
-0.0112978940 -0.0207012280 0 0
-0.0109455940 -0.0212619170 0 0
-0.0107321770 -0.0211648300 0 0
-0.0106745500 -0.0204704390 0 0
-0.0107885490 -0.0192915090 0 0
-0.0110916450 -0.0177765180 0 0
-0.0115987440 -0.0160959300 0 0
-0.0123139630 -0.0144317220 0 0
-0.0132227780 -0.0129682120 0 0
-0.0142865070 -0.0118816320 0 0
-0.0154394840 -0.0113263120 0 0
-0.0165898060 -0.0114167450 0 0
-0.0176255860 -0.0122083800 0 0
-0.0184279090 -0.0136835270 0 0
-0.0188885590 -0.0157479350 0 0
-0.0189275150 -0.0182394380 0 0
-0.0185059900 -0.0209470340 0 0
-0.0176335980 -0.0236372990 0 0
-0.0163689710 -0.0260832590 0 0
-0.0148131720 -0.0280902770 0 0
-0.0130978030 -0.0295155370 0 0
-0.0113713410 -0.0302799720 0 -1
-0.0097845440 -0.0303718170 0 -1
-0.0084735370 -0.0298411010 0 0
-0.0075422310 -0.0287864470 0 0
-0.0070495210 -0.0273383840 0 0
-0.0070057690 -0.0256440410 0 0
-0.0073783170 -0.0238554300 0 0
-0.0081016800 -0.0221201790 0 0
-0.0090883660 -0.0205728290 0 0
-0.0102389780 -0.0193263620 0 0
-0.0114513630 -0.0184646170 0 0
-0.0126281410 -0.0180363840 0 0
-0.0136825020 -0.0180514690 0 0
-0.0145440890 -0.0184787530 0 0
-0.0151673820 -0.0192469010 0 0
-0.0155416450 -0.0202490910 0 0
-0.0156967950 -0.0213523320 0 0
-0.0156991520 -0.0224107890 0 0
-0.0156368590 -0.0232818550 0 0
-0.0156013850 -0.0238427970 0 0
-0.0156725740 -0.0240047140 0 0
-0.0159101810 -0.0237208880 0 0
-0.0163503530 -0.0229892230 0 0
-0.0170040420 -0.0218505660 0 0
-0.0178557840 -0.0203846020 0 0
-0.0188635870 -0.0187047650 0 0
-0.0199614800 -0.0169535490 0 0
-0.0210652590 -0.0152965990 0 0
-0.0220813900 -0.0139105000 0 0
-0.0229190240 -0.0129609420 0 0
-0.0235031700 -0.0125745780 0 0
-0.0237859560 -0.0128128160 0 0
-0.0237543120 -0.0136555550 0 0
-0.0234325290 -0.0149993500 0 0
-0.0228773370 -0.0166705820 0 0
-0.0221655330 -0.0184510300 0 0
-0.0213786680 -0.0201104660 0 0
-0.0205909820 -0.0214391250 0 0
-0.0198631920 -0.0222737030 0 0
-0.0192403370 -0.0225135780 0 0
-0.0187515670 -0.0221266150 0 0
-0.0184108830 -0.0211458570 0 0
-0.0182182850 -0.0196602000 0 0
-0.0181610980 -0.0178022630 0 0
-0.0182153370 -0.0157348690 0 0
-0.0183474760 -0.0136359260 0 0
-0.0185176230 -0.0116820280 0 0
-0.0186835380 -0.0100331450 0 0
-0.0188030690 -0.0088211110 0 0
-0.0188339630 -0.0081422010 0 0
-0.0187337620 -0.0080521300 0 0
-0.0184633720 -0.0085628410 0 0
-0.0179935490 -0.0096419400 0 0
-0.0173096390 -0.0112148900 0 0
-0.0164125610 -0.0131690180 0 0
-0.0153191470 -0.0153588990 0 0
-0.0140646880 -0.0176140460 0 0
-0.0127063530 -0.0197507470 0 0
-0.0113233640 -0.0215891340 0 0
-0.0100102180 -0.0229736680 0 0
-0.0088635270 -0.0237924970 0 0
-0.0079677980 -0.0239904360 0 0
-0.0073849310 -0.0235725200 0 0
-0.0071480910 -0.0225993410 0 0
-0.0072597470 -0.0211775800 0 0
-0.0076947530 -0.0194480850 0 0
-0.0084069160 -0.0175727690 0 0
-0.0093344780 -0.0157215630 0 0
-0.0104026450 -0.0140597850 0 0
-0.0115259540 -0.0127351730 0 0
-0.0126135600 -0.0118642860 0 0
-0.0135770370 -0.0115194860 0 0
-0.0143386290 -0.0117189900 0 0
-0.0148402000 -0.0124227560 0 0
-0.0150537670 -0.0135358710 0 0
-0.0149903530 -0.0149190160 0 0
-0.0147015370 -0.0164042430 0 0
-0.0142715020 -0.0178140290 0 0
-0.0138022920 -0.0189810760 0 0
-0.0133969120 -0.0197661500 0 0
-0.0131437300 -0.0200718460 0 0
-0.0131045930 -0.0198516030 0 0
-0.0133088290 -0.0191149260 0 0
-0.0137533610 -0.0179291640 0 0
-0.0144073100 -0.0164160290 0 0
-0.0152195300 -0.0147410020 0 0
-0.0161270350 -0.0130957610 0 0
-0.0170617480 -0.0116755570 0 0
-0.0179540840 -0.0106549230 0 0
-0.0187339560 -0.0101659260 0 0
-0.0193322040 -0.0102828440 0 0
-0.0196861460 -0.0110151170 0 0
-0.0197493720 -0.0123078800 0 0
-0.0195011610 -0.0140487350 0 0
-0.0189500850 -0.0160798820 0 0
-0.0181304440 -0.0182140760 0 0
-0.0170952810 -0.0202515590 0 0
-0.0159102670 -0.0219957960 0 0
-0.0146491380 -0.0232683120 0 0
-0.0133889170 -0.0239238100 0 0
-0.0122039670 -0.0238646410 0 0
-0.0111597450 -0.0230524590 0 0
-0.0103077480 -0.0215161200 0 0
-0.0096826770 -0.0193551010 0 0
-0.0093029710 -0.0167363000 0 0
-0.0091749080 -0.0138817300 0 0
-0.0092967020 -0.0110469040 0 0
-0.0096570390 -0.0084941240 0 0
-0.0102266400 -0.0064673470 0 0
-0.0109488080 -0.0051720220 0 0
-0.0117374660 -0.0047586370 0 0
-0.0124871170 -0.0053085840 0 0
-0.0130929980 -0.0068236890 0 0
-0.0134744270 -0.0092219830 0 0
-0.0135917610 -0.0123415870 0 0
-0.0134506720 -0.0159532690 0 0
-0.0130947290 -0.0197810000 0 0
-0.0125920980 -0.0235284140 0 0
-0.0120222340 -0.0269075960 0 0
-0.0114662190 -0.0296657390 0 0
-0.0110011720 -0.0316060380 0 -1
-0.0106957560 -0.0326018370 0 -1
-0.0106037390 -0.0326049560 0 -1
-0.0107565270 -0.0316484970 0 -1
-0.0111585290 -0.0298427540 0 0
-0.0117880890 -0.0273633990 0 0
-0.0126032940 -0.0244332060 0 0
-0.0135495870 -0.0213001880 0 0
-0.0145658100 -0.0182154720 0 0
-0.0155864110 -0.0154134150 0 0
-0.0165406710 -0.0130948120 0 0
-0.0173530350 -0.0114128920 0 0
-0.0179479540 -0.0104615190 0 0
-0.0182588080 -0.0102661300 0 0
-0.0182380810 -0.0107795890 0 0
-0.0178659250 -0.0118851520 0 0
-0.0171552410 -0.0134071130 0 0
-0.0161521350 -0.0151282970 0 0
-0.0149317190 -0.0168129660 0 0
-0.0135905670 -0.0182332330 0 0
-0.0122370470 -0.0191956600 0 0
-0.0109796620 -0.0195633970 0 0
-0.0099138450 -0.0192705010 0 0
-0.0091096670 -0.0183279220 0 0
-0.0086041800 -0.0168217240 0 0
-0.0084007010 -0.0149036460 0 0
-0.0084737430 -0.0127751560 0 0
-0.0087763490 -0.0106675180 0 0
-0.0092483240 -0.0088194140 0 0
-0.0098250380 -0.0074519310 0 0
-0.0104451730 -0.0067413850 0 0
-0.0110555430 -0.0067935760 0 0
-0.0116132240 -0.0076257270 0 0
-0.0120866440 -0.0091612430 0 0
-0.0124573600 -0.0112384490 0 0
-0.0127228210 -0.0136318300 0 0
-0.0128977850 -0.0160835560 0 0
-0.0130118630 -0.0183406050 0 0
-0.0131041640 -0.0201890210 0 0
-0.0132185900 -0.0214769950 0 0
-0.0134014800 -0.0221237660 0 0
-0.0136991870 -0.0221171610 0 0
-0.0141522680 -0.0215050630 0 0
-0.0147863570 -0.0203852150 0 0
-0.0156031480 -0.0188952860 0 0
-0.0165757600 -0.0172031430 0 0
-0.0176505740 -0.0154958170 0 0
-0.0187539050 -0.0139649040 0 0
-0.0198002350 -0.0127878530 0 0
-0.0207001830 -0.0121073330 0 0
-0.0213680090 -0.0120121600 0 0
-0.0217293200 -0.0125239530 0 0
-0.0217293590 -0.0135938190 0 0
-0.0213410340 -0.0151109270 0 0
-0.0205714210 -0.0169200350 0 0
-0.0194659170 -0.0188419290 0 0
-0.0181092700 -0.0206919380 0 0
-0.0166213530 -0.0222951910 0 0
-0.0151440640 -0.0234994620 0 0
-0.0138183560 -0.0241863640 0 0
-0.0127580310 -0.0242802840 0 0
-0.0120311220 -0.0237537240 0 0
-0.0116543130 -0.0226289320 0 0
-0.0115979630 -0.0209777450 0 0
-0.0117970350 -0.0189212430 0 0
-0.0121653950 -0.0166275430 0 0
-0.0126112260 -0.0143031890 0 0
-0.0130492680 -0.0121748230 0 0
-0.0134067530 -0.0104619900 0 0
-0.0136247230 -0.0093457080 0 0
-0.0136587020 -0.0089398930 0 0
-0.0134806000 -0.0092737980 0 0
-0.0130814750 -0.0102906150 0 0
-0.0124742420 -0.0118610630 0 0
-0.0116948650 -0.0138059020 0 0
-0.0108004560 -0.0159205810 0 0
-0.0098643270 -0.0179972080 0 0
-0.0089693030 -0.0198415460 0 0
-0.0081998170 -0.0212853270 0 0
-0.0076328980 -0.0221956440 0 0
-0.0073288020 -0.0224823000 0 0
-0.0073229420 -0.0221026930 0 0
-0.0076214180 -0.0210641770 0 0
-0.0082011310 -0.0194245400 0 0
-0.0090127160 -0.0172905190 0 0
-0.0099840640 -0.0148131110 0 0
-0.0110250120 -0.0121787050 0 0
-0.0120352950 -0.0095959260 0 0
-0.0129161030 -0.0072780950 0 0
-0.0135830400 -0.0054219110 0 0
-0.0139772100 -0.0041856480 0 0
-0.0140726100 -0.0036718640 0 0
-0.0138797030 -0.0039175400 0 0
-0.0134439600 -0.0048913200 0 0
-0.0128375340 -0.0064966310 0 0
-0.0121454380 -0.0085798500 0 0
-0.0114514340 -0.0109427790 0 0
-0.0108281880 -0.0133587200 0 0
-0.0103327000 -0.0155917810 0 0
-0.0100059820 -0.0174191560 0 0
-0.0098758210 -0.0186549760 0 0
-0.0099609420 -0.0191720950 0 0
-0.0102740210 -0.0189175750 0 0
-0.0108212500 -0.0179195290 0 0
-0.0115983230 -0.0162848250 0 0
-0.0125849910 -0.0141883720 0 0
-0.0137415960 -0.0118561360 0 0
-0.0150101610 -0.0095448230 0 0
-0.0163202830 -0.0075201040 0 0
-0.0175984600 -0.0060336270 0 0
-0.0187786660 -0.0052994440 0 0
-0.0198112660 -0.0054716680 0 0
-0.0206672400 -0.0066247610 0 0
-0.0213361540 -0.0087374790 0 0
-0.0218201450 -0.0116836340 0 0
-0.0221295660 -0.0152347220 0 0
-0.0222836720 -0.0190774520 0 0
-0.0223139500 -0.0228451060 0 0
-0.0222658460 -0.0261583400 0 0
-0.0221975570 -0.0286690570 0 0
-0.0221762390 -0.0301009950 0 -1
-0.0222706510 -0.0302828500 0 -1
-0.0225397570 -0.0291708000 0 0
-0.0230201190 -0.0268566210 0 0
-0.0237163250 -0.0235584100 0 0
-0.0245971000 -0.0195944160 0 0
-0.0255978500 -0.0153441790 0 0
-0.0266293580 -0.0112032270 0 0
-0.0275913420 -0.0075384060 0 0
-0.0283875810 -0.0046503760 0 0
-0.0289384480 -0.0027475180 0 0
-0.0291889080 -0.0019321500 0 0
-0.0291123940 -0.0021975590 0 0
-0.0287116080 -0.0034343130 0 0
-0.0280172100 -0.0054453820 0 0
-0.0270841600 -0.0079693370 0 0
-0.0259850800 -0.0107091590 0 0
-0.0248015610 -0.0133632030 0 0
-0.0236149010 -0.0156551460 0 0
-0.0224972730 -0.0173600700 0 0
-0.0215055890 -0.0183243810 0 0
-0.0206805600 -0.0184782320 0 0
-0.0200501950 -0.0178394230 0 0
-0.0196333380 -0.0165073210 0 0
-0.0194389240 -0.0146468520 0 0
-0.0194609840 -0.0124658080 0 0
-0.0196740470 -0.0101904130 0 0
-0.0200330980 -0.0080430990 0 0
-0.0204783260 -0.0062241420 0 0
-0.0209432440 -0.0048970190 0 0
-0.0213644710 -0.0041776480 0 0
-0.0216894610 -0.0041287750 0 0
-0.0218783750 -0.0047593390 0 0
-0.0219014650 -0.0060259190 0 0
-0.0217380670 -0.0078340460 0 0
-0.0213817850 -0.0100410960 0 0
-0.0208500120 -0.0124640820 0 0
-0.0201905030 -0.0148938280 0 0
-0.0194781980 -0.0171151210 0 0
-0.0188012250 -0.0189308850 0 0
-0.0182409420 -0.0201858630 0 0
-0.0178532190 -0.0207843130 0 0
-0.0176575200 -0.0206987880 0 0
-0.0176369230 -0.0199707750 0 0
-0.0177469620 -0.0187051950 0 0
-0.0179281200 -0.0170594920 0 0
-0.0181177780 -0.0152272510 0 0
-0.0182601020 -0.0134180510 0 0
-0.0183134210 -0.0118361310 0 0
-0.0182538040 -0.0106589510 0 0
-0.0180737210 -0.0100167700 0 0
-0.0177765050 -0.0099771110 0 0
-0.0173688590 -0.0105387670 0 0
-0.0168553700 -0.0116373900 0 0
-0.0162391220 -0.0131610960 0 0
-0.0155280610 -0.0149710140 0 0
-0.0147424150 -0.0169197690 0 0
-0.0139185110 -0.0188634360 0 0
-0.0131063470 -0.0206688290 0 0
-0.0123614670 -0.0222211690 0 0
-0.0117355140 -0.0234333760 0 0
-0.0112702730 -0.0242533070 0 0
-0.0109957570 -0.0246652950 0 0
-0.0109293790 -0.0246861820 0 0
-0.0110743010 -0.0243590690 0 0
-0.0114179120 -0.0237481030 0 0
-0.0119317670 -0.0229350900 0 0
-0.0125725690 -0.0220159950 0 0
-0.0132830860 -0.0210944830 0 0
-0.0139937400 -0.0202709020 0 0
-0.0146270190 -0.0196282160 0 0
-0.0151061540 -0.0192187680 0 0
-0.0153676620 -0.0190556630 0 0
-0.0153743610 -0.0191108590 0 0
-0.0151229350 -0.0193201430 0 0
-0.0146420930 -0.0195931680 0 0
-0.0139828440 -0.0198249100 0 0
-0.0132064320 -0.0199052410 0 0
-0.0123753410 -0.0197274180 0 0
-0.0115489540 -0.0191993570 0 0
-0.0107822060 -0.0182585450 0 0
-0.0101255630 -0.0168863140 0 0
-0.0096244780 -0.0151161580 0 0
-0.0093155990 -0.0130332130 0 0
-0.0092198240 -0.0107657380 0 0
-0.0093367130 -0.0084720240 0 0
-0.0096441610 -0.0063252510 0 0
-0.0101027810 -0.0044967630 0 0
-0.0106622340 -0.0031384650 0 0
-0.0112677520 -0.0023666190 0 0
-0.0118661970 -0.0022496690 0 0
-0.0124108830 -0.0028017230 0 0
-0.0128642330 -0.0039814080 0 0
-0.0131979490 -0.0056946060 0 0
-0.0133912420 -0.0077998880 0 0
-0.0134284330 -0.0101166190 0 0
-0.0132985540 -0.0124370240 0 0
-0.0129990400 -0.0145435410 0 0
-0.0125417340 -0.0162309700 0 0
-0.0119571570 -0.0173303170 0 0
-0.0112947440 -0.0177297580 0 0
-0.0106184730 -0.0173884610 0 0
-0.0099977870 -0.0163410300 0 0
-0.0094955340 -0.0146929590 0 0
-0.0091563820 -0.0126094780 0 0
-0.0089987300 -0.0103012190 0 0
-0.0090122450 -0.0080090670 0 0
-0.0091625510 -0.0059869790 0 0
-0.0094018520 -0.0044795090 0 0
-0.0096806720 -0.0036940680 0 0
-0.0099560380 -0.0037735530 0 0
-0.0101947980 -0.0047765620 0 0
-0.0103730060 -0.0066689820 0 0
-0.0104736040 -0.0093261880 0 0
-0.0104858770 -0.0125440120 0 0
-0.0104078760 -0.0160582290 0 0
-0.0102492630 -0.0195719070 0 0
-0.0100317760 -0.0227869070 0 0
-0.0097865780 -0.0254339980 0 0
-0.0095489150 -0.0272969960 0 0
-0.0093515150 -0.0282285590 0 0
-0.0092193770 -0.0281579380 0 0
-0.0091681730 -0.0270932370 0 0
-0.0092061170 -0.0251207920 0 0
-0.0093374000 -0.0224009950 0 0
-0.0095648470 -0.0191573530 0 0
-0.0098896990 -0.0156573740 0 0
-0.0103078280 -0.0121869190 0 0
-0.0108040100 -0.0090211500 0 0
-0.0113467800 -0.0063971750 0 0
-0.0118868470 -0.0044944630 0 0
-0.0123629020 -0.0034251430 0 0
-0.0127162150 -0.0032306050 0 0
-0.0129086100 -0.0038799320 0 0
-0.0129335750 -0.0052697960 0 0
-0.0128141030 -0.0072291360 0 0
-0.0125905850 -0.0095312750 0 0
-0.0123083750 -0.0119133580 0 0
-0.0120117270 -0.0141016950 0 0
-0.0117435480 -0.0158409820 0 0
-0.0115467110 -0.0169240550 0 0
-0.0114641620 -0.0172180230 0 0
-0.0115367750 -0.0166829180 0 0
-0.0117976840 -0.0153787460 0 0
-0.0122635330 -0.0134570640 0 0
-0.0129270800 -0.0111370240 0 0
-0.0137556670 -0.0086720280 0 0
-0.0146959890 -0.0063160840 0 0
-0.0156820390 -0.0042964900 0 0
-0.0166426790 -0.0027947720 0 0
-0.0175079370 -0.0019342030 0 0
-0.0182155920 -0.0017712980 0 0
-0.0187181240 -0.0022910050 0 0
-0.0189872660 -0.0034086170 0 0
-0.0190143470 -0.0049806850 0 0
-0.0188084120 -0.0068230530 0 0
-0.0183945980 -0.0087319250 0 0
-0.0178123210 -0.0105047210 0 0
-0.0171116580 -0.0119586470 0 0
-0.0163481590 -0.0129459030 0 0
-0.0155770630 -0.0133657040 0 0
-0.0148474060 -0.0131734940 0 0
-0.0141973350 -0.0123865930 0 0
-0.0136531110 -0.0110848630 0 0
-0.0132327370 -0.0094056450 0 0
-0.0129509290 -0.0075329840 0 0
-0.0128196780 -0.0056814630 0 0
-0.0128421080 -0.0040753890 0 0
-0.0130032950 -0.0029245420 0 0
-0.0132645400 -0.0023987910 0 0
-0.0135663740 -0.0026053350 0 0
-0.0138408240 -0.0035726850 0 0
-0.0140276870 -0.0052443190 0 0
-0.0140879010 -0.0074834350 0 0
-0.0140095420 -0.0100883460 0 0
-0.0138056890 -0.0128157330 0 0
-0.0135074240 -0.0154077470 0 0
-0.0131567830 -0.0176192810 0 0
-0.0128014450 -0.0192429420 0 0
-0.0124893920 -0.0201300520 0 0
-0.0122619430 -0.0202061250 0 0
-0.0121467280 -0.0194793380 0 0
-0.0121544010 -0.0180409630 0 0
-0.0122808840 -0.0160571050 0 0
-0.0125123550 -0.0137514700 0 0
-0.0128290050 -0.0113798300 0 0
-0.0132062130 -0.0091992440 0 0
-0.0136137870 -0.0074375480 0 0
-0.0140147250 -0.0062694480 0 0
-0.0143655630 -0.0058034430 0 0
-0.0146199680 -0.0060792000 0 0
-0.0147355970 -0.0070713340 0 0
-0.0146823380 -0.0086959830 0 0
-0.0144485010 -0.0108192910 0 0
-0.0140423640 -0.0132682000 0 0
-0.0134893680 -0.0158433750 0 0
-0.0128273790 -0.0183335110 0 0
-0.0121021830 -0.0205306680 0 0
-0.0113638680 -0.0222467390 0 0
-0.0106637050 -0.0233300440 0 0
-0.0100510660 -0.0236791540 0 0
-0.0095703090 -0.0232511230 0 0
-0.0092570740 -0.0220642500 0 0
-0.0091332150 -0.0201977510 0 0
-0.0092011900 -0.0177892560 0 0
-0.0094406660 -0.0150282490 0 0
-0.0098099880 -0.0121438370 0 0
-0.0102528320 -0.0093871920 0 0
-0.0107075040 -0.0070093010 0 0
-0.0111153270 -0.0052346220 0 0
-0.0114256550 -0.0042332400 0 0
-0.0115966280 -0.0040966710 0 0
-0.0115931550 -0.0048226640 0 0
-0.0113870150 -0.0063121790 0 0
-0.0109638620 -0.0083791110 0 0
-0.0103352620 -0.0107714380 0 0
-0.0095468300 -0.0132012770 0 0
-0.0086754550 -0.0153798850 0 0
-0.0078169130 -0.0170516200 0 0
-0.0070700860 -0.0180204210 0 0
-0.0065227190 -0.0181656160 0 0
-0.0062407870 -0.0174484370 0 0
-0.0062623460 -0.0159126210 0 0
-0.0065961610 -0.0136812600 0 0
-0.0072238310 -0.0109493890 0 0
-0.0081032840 -0.0079702170 0 0
-0.0091722500 -0.0050340830 0 0
-0.0103512970 -0.0024415760 0 0
-0.0115472450 -0.0004738690 0 0
-0.0126590390 0.0006364500 0 0
-0.0135875620 0.0007318790 0 0
-0.0142481920 -0.0002473380 0 0
-0.0145823450 -0.0022475990 0 0
-0.0145643810 -0.0050992480 0 0
-0.0142032150 -0.0085307420 0 0
-0.0135399500 -0.0121985270 0 0
-0.0126421170 -0.0157273250 0 0
-0.0115944860 -0.0187537750 0 0
-0.0104877310 -0.0209666510 0 0
-0.0094073750 -0.0221387040 0 0
-0.0084246610 -0.0221476870 0 0
-0.0075902330 -0.0209861580 0 0
-0.0069323810 -0.0187597490 0 0
-0.0064611790 -0.0156730320 0 0
-0.0061763980 -0.0120038860 0 0
-0.0060747380 -0.0080705640 0 0
-0.0061530040 -0.0041974370 0 0
-0.0064059690 -0.0006847320 0 0
-0.0068198680 0.0022146590 0 0
-0.0073654260 0.0043110120 0 0
-0.0079955710 0.0054877830 0 0
-0.0086507580 0.0057065700 0 0
-0.0092703250 0.0050060450 0 0
-0.0098044540 0.0034940050 0 0
-0.0102210750 0.0013335010 0 0
-0.0105062550 -0.0012743730 0 0
-0.0106613980 -0.0041080240 0 0
-0.0107009590 -0.0069412010 0 0
-0.0106513630 -0.0095568220 0 0
-0.0105501460 -0.0117596840 0 0
-0.0104444240 -0.0133891810 0 0
-0.0103880290 -0.0143322530 0 0
-0.0104367900 -0.0145352490 0 0
-0.0106409140 -0.0140124350 0 0
-0.0110344340 -0.0128488200 0 0
-0.0116255420 -0.0111947950 0 0
-0.0123925950 -0.0092515690 0 0
-0.0132856180 -0.0072498860 0 0
-0.0142303420 -0.0054260130 0 0
-0.0151349150 -0.0039972650 0 0
-0.0159017280 -0.0031381450 0 0
-0.0164437350 -0.0029597950 0 0
-0.0167004470 -0.0034971450 0 0
-0.0166484950 -0.0047068180 0 0
-0.0163048340 -0.0064752690 0 0
-0.0157235620 -0.0086338900 0 0
-0.0149876270 -0.0109775380 0 0
-0.0141964150 -0.0132842360 0 0
-0.0134512380 -0.0153352970 0 0
-0.0128415480 -0.0169360110 0 0
-0.0124342280 -0.0179371500 0 0
-0.0122676920 -0.0182557760 0 0
-0.0123514630 -0.0178903870 0 0
-0.0126705190 -0.0169240900 0 0
-0.0131921050 -0.0155130290 0 0
-0.0138718430 -0.0138630460 0 0
-0.0146581890 -0.0122003380 0 0
-0.0154971230 -0.0107408160 0 0
-0.0163376300 -0.0096621950 0 0
-0.0171359150 -0.0090834830 0 0
-0.0178570710 -0.0090550470 0 0
-0.0184746650 -0.0095587880 0 0
-0.0189689890 -0.0105153690 0 0
-0.0193247130 -0.0117954520 0 0
-0.0195286870 -0.0132332760 0 0
-0.0195689050 -0.0146425760 0 0
-0.0194363940 -0.0158352450 0 0
-0.0191305190 -0.0166416430 0 0
-0.0186653440 -0.0169294600 0 0
-0.0180732880 -0.0166175650 0 0
-0.0174039020 -0.0156829240 0 0
-0.0167178490 -0.0141610700 0 0
-0.0160773250 -0.0121420700 0 0
-0.0155353130 -0.0097633550 0 0
-0.0151264200 -0.0071998600 0 0
-0.0148607320 -0.0046518230 0 0
-0.0147217600 -0.0023307740 0 0
-0.0146702540 -0.0004436270 0 0
-0.0146538880 0.0008256420 0 0
-0.0146193350 0.0013364820 0 0
-0.0145214940 0.0010124630 0 0
-0.0143261820 -0.0001422210 0 0
-0.0140078730 -0.0020362530 0 0
-0.0135484920 -0.0044988920 0 0
-0.0129413290 -0.0073015960 0 0
-0.0121978760 -0.0101879330 0 0
-0.0113515020 -0.0129033000 0 0
-0.0104546850 -0.0152185410 0 0
-0.0095725760 -0.0169469190 0 0
-0.0087770950 -0.0179565790 0 0
-0.0081416090 -0.0181794300 0 0
-0.0077332990 -0.0176156200 0 0
-0.0076022750 -0.0163326880 0 0
-0.0077711810 -0.0144592190 0 0
-0.0082307420 -0.0121731800 0 0
-0.0089430560 -0.0096857020 0 0
-0.0098493590 -0.0072219640 0 0
-0.0108774600 -0.0050009650 0 0
-0.0119469100 -0.0032156990 0 0
-0.0129731230 -0.0020156230 0 0
-0.0138721810 -0.0014939810 0 0
-0.0145678500 -0.0016818860 0 0
-0.0150011370 -0.0025485760 0 0
-0.0151401990 -0.0040051560 0 0
-0.0149874810 -0.0059102990 0 0
-0.0145826420 -0.0080795280 0 0
-0.0140008720 -0.0103003630 0 0
-0.0133443110 -0.0123525480 0 0
-0.0127246990 -0.0140297540 0 0
-0.0122426600 -0.0151592490 0 0
-0.0119738750 -0.0156184280 0 0
-0.0119658210 -0.0153491950 0 0
-0.0122389390 -0.0143706040 0 0
-0.0127867440 -0.0127866680 0 0
-0.0135770500 -0.0107833620 0 0
-0.0145584290 -0.0086104410 0 0
-0.0156711440 -0.0065499700 0 0
-0.0168573910 -0.0048798230 0 0
-0.0180653570 -0.0038406630 0 0
-0.0192461990 -0.0036092410 0 0
-0.0203487110 -0.0042768090 0 0
-0.0213174950 -0.0058336060 0 0
-0.0220974550 -0.0081639690 0 0
-0.0226432610 -0.0110561400 0 0
-0.0229293310 -0.0142265480 0 0
-0.0229563990 -0.0173535150 0 0
-0.0227539020 -0.0201134270 0 0
-0.0223788670 -0.0222144170 0 0
-0.0219110570 -0.0234256310 0 0
-0.0214439270 -0.0236006050 0 0
-0.0210729840 -0.0226918050 0 0
-0.0208846490 -0.0207538100 0 0
-0.0209470360 -0.0179353440 0 0
-0.0213011020 -0.0144623580 0 0
-0.0219509740 -0.0106143790 0 0
-0.0228564560 -0.0066960970 0 0
-0.0239339080 -0.0030072160 0 0
-0.0250688780 0.0001853610 0 0
-0.0261366110 0.0026699210 0 0
-0.0270224460 0.0043054450 0 0
-0.0276366750 0.0050290100 0 0
-0.0279226060 0.0048539420 0 0
-0.0278583760 0.0038599600 0 0
-0.0274536390 0.0021799180 0 0
-0.0267437110 -0.0000123601 0 0
-0.0257845560 -0.0025125360 0 0
-0.0246496390 -0.0050973600 0 0
-0.0234259400 -0.0075400140 0 0
-0.0222066880 -0.0096282870 0 0
-0.0210821650 -0.0111821720 0 0
-0.0201312660 -0.0120686400 0 0
-0.0194142580 -0.0122136150 0 0
-0.0189659960 -0.0116115040 0 0
-0.0187913190 -0.0103310770 0 0
-0.0188661950 -0.0085145810 0 0
-0.0191458060 -0.0063663980 0 0
-0.0195769850 -0.0041297350 0 0
-0.0201104370 -0.0020546900 0 0
-0.0207068730 -0.0003650150 0 0
-0.0213326630 0.0007687460 0 0
-0.0219477070 0.0012445670 0 0
-0.0224958980 0.0010312480 0 0
-0.0229081670 0.0001602470 0 0
-0.0231189380 -0.0012875770 0 0
-0.0230875610 -0.0031946020 0 0
-0.0228142680 -0.0054150570 0 0
-0.0223440790 -0.0077799260 0 0
-0.0217576350 -0.0101018300 0 0
-0.0211528560 -0.0121848860 0 0
-0.0206241180 -0.0138418660 0 0
-0.0202456320 -0.0149160280 0 0
-0.0200632870 -0.0153019380 0 0
-0.0200945900 -0.0149603110 0 0
-0.0203327650 -0.0139245660 0 0
-0.0207510170 -0.0122983140 0 0
-0.0213057620 -0.0102433400 0 0
-0.0219396660 -0.0079593740 0 0
-0.0225845850 -0.0056600450 0 0
-0.0231642500 -0.0035500350 0 0
-0.0235987930 -0.0018056420 0 0
-0.0238131020 -0.0005586350 0 0
-0.0237481640 0.0001158530 0 0
-0.0233726150 0.0002049940 0 0
-0.0226907050 -0.0002439060 0 0
-0.0217436990 -0.0011321030 0 0
-0.0206045530 -0.0023221980 0 0
-0.0193668330 -0.0036534350 0 0
-0.0181294630 -0.0049589840 0 0
-0.0169814080 -0.0060847590 0 0
-0.0159916160 -0.0069085100 0 0
-0.0152066440 -0.0073560690 0 0
-0.0146533500 -0.0074099790 0 0
-0.0143418500 -0.0071066580 0 0
-0.0142667030 -0.0065231140 0 0
-0.0144082400 -0.0057591100 0 0
-0.0147355940 -0.0049206210 0 0
-0.0152101960 -0.0041072060 0 0
-0.0157878310 -0.0034044700 0 0
-0.0164192700 -0.0028825460 0 0
-0.0170512730 -0.0025991060 0 0
-0.0176304340 -0.0026024740 0 0
-0.0181104620 -0.0029309410 0 0
-0.0184597950 -0.0036077990 0 0
-0.0186656880 -0.0046341490 0 0
-0.0187337080 -0.0059819000 0 0
-0.0186836120 -0.0075888500 0 0
-0.0185435880 -0.0093569250 0 0
-0.0183454640 -0.0111545910 0 0
-0.0181221680 -0.0128246580 0 0
-0.0179067460 -0.0141974520 0 0
-0.0177318310 -0.0151082300 0 0
-0.0176287860 -0.0154178270 0 0
-0.0176259430 -0.0150343440 0 0
-0.0177457880 -0.0139316070 0 0
-0.0180007520 -0.0121601160 0 0
-0.0183874520 -0.0098476040 0 0
-0.0188819150 -0.0071877770 0 0
-0.0194405050 -0.0044183320 0 0
-0.0200081840 -0.0017922410 0 0
-0.0205306240 0.0004526590 0 0
-0.0209651560 0.0021214180 0 0
-0.0212867580 0.0030834880 0 0
-0.0214869840 0.0032853780 0 0
-0.0215666880 0.0027533140 0 0
-0.0215272700 0.0015856050 0 0
-0.0213658860 -0.0000644474 0 0
-0.0210769380 -0.0020112030 0 0
-0.0206583640 -0.0040587030 0 0
-0.0201192720 -0.0060178990 0 0
-0.0194857080 -0.0077191750 0 0
-0.0188030130 -0.0090225930 0 0
-0.0181339210 -0.0098274670 0 0
-0.0175518880 -0.0100811200 0 0
-0.0171310190 -0.0097853800 0 0
-0.0169355700 -0.0089985120 0 0
-0.0170100980 -0.0078303890 0 0
-0.0173698910 -0.0064302190 0 0
-0.0179933850 -0.0049686290 0 0
-0.0188196210 -0.0036178990 0 0
-0.0197525010 -0.0025340520 0 0
-0.0206733940 -0.0018431290 0 0
-0.0214619440 -0.0016319610 0 0
-0.0220193320 -0.0019417650 0 0
-0.0222856800 -0.0027625210 0 0
-0.0222471490 -0.0040283070 0 0
-0.0219329290 -0.0056168350 0 0
-0.0214051070 -0.0073575330 0 0
-0.0207459940 -0.0090500310 0 0
-0.0200466850 -0.0104900600 0 0
-0.0193978310 -0.0114962800 0 0
-0.0188821820 -0.0119322840 0 0
-0.0185694100 -0.0117214280 0 0
-0.0185144660 -0.0108543260 0 0
-0.0187586060 -0.0093891300 0 0
-0.0193284280 -0.0074449750 0 0
-0.0202280120 -0.0051896690 0 0
-0.0214256880 -0.0028240100 0 0
-0.0228441560 -0.0005651190 0 0
-0.0243632010 0.0013713470 0 0
-0.0258373490 0.0027918710 0 0
-0.0271218800 0.0035475410 0 0
-0.0280969010 0.0035540630 0 0
-0.0286831240 0.0028054770 0 0
-0.0288484070 0.0013787450 0 0
-0.0286063900 -0.0005733670 0 0
-0.0280096310 -0.0028410010 0 0
-0.0271402000 -0.0051829380 0 0
-0.0260989290 -0.0073530640 0 0
-0.0249939440 -0.0091238170 0 0
-0.0239312570 -0.0103064350 0 0
-0.0230092210 -0.0107689660 0 0
-0.0223139020 -0.0104513530 0 0
-0.0219123070 -0.0093749120 0 0
-0.0218449620 -0.0076434470 0 0
-0.0221204810 -0.0054350980 0 0
-0.0227120570 -0.0029855560 0 0
-0.0235559560 -0.0005641180 0 0
-0.0245545650 0.0015543610 0 0
-0.0255859340 0.0031178510 0 0
-0.0265188730 0.0039230340 0 0
-0.0272309430 0.0038357360 0 0
-0.0276256840 0.0028027990 0 0
-0.0276451780 0.0008553620 0 0
-0.0272751830 -0.0018932000 0 0
-0.0265421490 -0.0052526050 0 0
-0.0255040950 -0.0089657200 0 0
-0.0242398230 -0.0127259080 0 0
-0.0228403520 -0.0162023100 0 0
-0.0214028760 -0.0190711670 0 0
-0.0200249030 -0.0210500680 0 0
-0.0187969990 -0.0219313490 0 0
-0.0177951100 -0.0216097220 0 0
-0.0170752280 -0.0200981330 0 0
-0.0166721290 -0.0175269600 0 0
-0.0166007660 -0.0141260290 0 0
-0.0168575010 -0.0101945060 0 0
-0.0174202090 -0.0060661230 0 0
-0.0182486560 -0.0020751950 0 0
-0.0192869190 0.0014741540 0 0
-0.0204669160 0.0043347910 0 0
-0.0217103810 0.0063381800 0 0
-0.0229301840 0.0074078670 0 0
-0.0240349760 0.0075615840 0 0
-0.0249385880 0.0069013650 0 0
-0.0255723610 0.0055949290 0 0
-0.0258976600 0.0038531260 0 0
-0.0259141040 0.0019073140 0 0
-0.0256588430 -0.0000115633 0 0
-0.0251972050 -0.0016920300 0 0
-0.0246108090 -0.0029595400 0 0
-0.0239889200 -0.0036923260 0 0
-0.0234229960 -0.0038343620 0 0
-0.0230002510 -0.0034023440 0 0
-0.0227941200 -0.0024833830 0 0
-0.0228544670 -0.0012226320 0 0
-0.0232016670 0.0001965800 0 0
-0.0238252530 0.0015762150 0 0
-0.0246849540 0.0027271210 0 0
-0.0257128650 0.0034896210 0 0
-0.0268177210 0.0037485880 0 0
-0.0278926890 0.0034417150 0 0
-0.0288273680 0.0025607580 0 0
-0.0295228980 0.0011474580 0 0
-0.0299067030 -0.0007122360 0 0
-0.0299429310 -0.0028935080 0 0
-0.0296364610 -0.0052385020 0 0
-0.0290305030 -0.0075643860 0 0
-0.0281995290 -0.0096753170 0 0
-0.0272395220 -0.0113802110 0 0
-0.0262561950 -0.0125160880 0 0
-0.0253512340 -0.0129717090 0 0
-0.0246086150 -0.0127042710 0 0
-0.0240846630 -0.0117452880 0 0
-0.0238038010 -0.0101958270 0 0
-0.0237598360 -0.0082131800 0 0
-0.0239219250 -0.0059921820 0 0
-0.0242428110 -0.0037449380 0 0
-0.0246660960 -0.0016817150 0 0
-0.0251318050 0.0000064427 0 0
-0.0255819170 0.0011637320 0 0
-0.0259665020 0.0016835050 0 0
-0.0262492010 0.0015184460 0 0
-0.0264104630 0.0006859240 0 0
-0.0264471310 -0.0007320250 0 0
-0.0263687090 -0.0025947990 0 0
-0.0261934660 -0.0047151630 0 0
-0.0259471680 -0.0068754930 0 0
-0.0256645610 -0.0088471720 0 0
-0.0253914160 -0.0104126020 0 0
-0.0251831780 -0.0113882160 0 0
-0.0250975510 -0.0116451740 0 0
-0.0251829380 -0.0111239270 0 0
-0.0254674400 -0.0098406460 0 0
-0.0259524260 -0.0078859330 0 0
-0.0266117820 -0.0054164340 0 0
-0.0273948490 -0.0026389770 0 0
-0.0282310310 0.0002117260 0 0
-0.0290356580 0.0028974260 0 0
-0.0297170410 0.0051969020 0 0
-0.0301852900 0.0069200350 -1 0
-0.0303636400 0.0079180820 -1 0
-0.0302006640 0.0080945980 -1 0
-0.0296795230 0.0074179120 0 0
-0.0288209690 0.0059314620 0 0
-0.0276792260 0.0037565220 0 0
-0.0263331880 0.0010833540 0 0
-0.0248771050 -0.0018496410 0 0
-0.0234128570 -0.0047851540 0 0
-0.0220427840 -0.0074779580 0 0
-0.0208619620 -0.0097209320 0 0
-0.0199511900 -0.0113622660 0 0
-0.0193724610 -0.0123137140 0 0
-0.0191662340 -0.0125518350 0 0
-0.0193479670 -0.0121143530 0 0
-0.0199025960 -0.0110933060 0 0
-0.0207790020 -0.0096262780 0 0
-0.0218889430 -0.0078857610 0 0
-0.0231140420 -0.0060650510 0 0
-0.0243203390 -0.0043597610 0 0
-0.0253763000 -0.0029467040 0 0
-0.0261710910 -0.0019639100 0 0
-0.0266316480 -0.0014959020 0 0
-0.0267340420 -0.0015668640 0 0
-0.0265025560 -0.0021416940 0 0
-0.0259961300 -0.0031328430 0 0
-0.0252898600 -0.0044102780 0 0
-0.0244596850 -0.0058126750 0 0
-0.0235737480 -0.0071602740 0 0
-0.0226900050 -0.0082714400 0 0
-0.0218570320 -0.0089833270 0 0
-0.0211146720 -0.0091733280 0 0
-0.0204936410 -0.0087759070 0 0
-0.0200151470 -0.0077911840 0 0
-0.0196908020 -0.0062853030 0 0
-0.0195223420 -0.0043844430 0 0
-0.0195015430 -0.0022632780 0 0
-0.0196114350 -0.0001278920 0 0
-0.0198285560 0.0018052890 0 0
-0.0201244130 0.0033318460 0 0
-0.0204647840 0.0042808070 0 0
-0.0208077820 0.0045330330 0 0
-0.0211030150 0.0040340260 0 0
-0.0212937320 0.0027996820 0 0
-0.0213225310 0.0009152930 0 0
-0.0211399610 -0.0014714590 0 0
-0.0207142880 -0.0041641470 0 0
-0.0200399750 -0.0069386680 0 0
-0.0191417390 -0.0095699650 0 0
-0.0180721400 -0.0118591590 0 0
-0.0169041170 -0.0136540570 0 0
-0.0157227320 -0.0148585200 0 0
-0.0146191800 -0.0154320340 0 0
-0.0136859770 -0.0153847190 0 0
-0.0130097180 -0.0147718630 0 0
-0.0126594580 -0.0136887960 0 0
-0.0126730730 -0.0122650100 0 0
-0.0130471280 -0.0106567670 0 0
-0.0137345300 -0.0090376830 0 0
-0.0146505180 -0.0075857510 0 0
-0.0156854060 -0.0064656500 0 0
-0.0167214560 -0.0058081240 0 0
-0.0176493920 -0.0056917660 0 0
-0.0183800210 -0.0061335030 0 0
-0.0188496610 -0.0070901290 0 0
-0.0190216490 -0.0084674180 0 0
-0.0188869180 -0.0101312600 0 0
-0.0184650890 -0.0119178200 0 0
-0.0178054310 -0.0136438380 0 0
-0.0169853480 -0.0151205220 0 0
-0.0161034510 -0.0161734240 0 0
-0.0152664600 -0.0166666970 0 0
-0.0145729210 -0.0165259700 0 0
-0.0140984120 -0.0157527370 0 0
-0.0138865360 -0.0144256970 0 0
-0.0139481170 -0.0126891400 0 0
-0.0142664140 -0.0107326550 0 0
-0.0148030200 -0.0087673810 0 0
-0.0155018890 -0.0070017530 0 0
-0.0162933070 -0.0056177620 0 0
-0.0170999220 -0.0047498990 0 0
-0.0178451040 -0.0044714300 0 0
-0.0184632050 -0.0047913010 0 0
-0.0189096950 -0.0056594320 0 0
-0.0191670010 -0.0069746720 0 0
-0.0192436000 -0.0085921950 0 0
-0.0191681510 -0.0103314750 0 0
-0.0189816540 -0.0119874410 0 0
-0.0187301400 -0.0133464350 0 0
-0.0184599090 -0.0142071290 0 0
-0.0182149930 -0.0144046600 0 0
-0.0180351260 -0.0138343080 0 0
-0.0179534970 -0.0124699070 0 0
-0.0179935870 -0.0103730900 0 0
-0.0181647780 -0.0076914670 0 0
-0.0184592620 -0.0046450690 0 0
-0.0188539290 -0.0015014520 0 0
-0.0193171070 0.0014574990 0 0
-0.0198154130 0.0039704700 0 0
-0.0203166460 0.0058261100 0 0
-0.0207899300 0.0068826990 0 0
-0.0212069900 0.0070775000 0 0
-0.0215451220 0.0064273990 0 0
-0.0217889180 0.0050232120 0 0
-0.0219284260 0.0030196320 0 0
-0.0219537120 0.0006214690 0 0
-0.0218485640 -0.0019341590 0 0
-0.0215888250 -0.0044000500 0 0
-0.0211493170 -0.0065450450 0 0
-0.0205170210 -0.0081810060 0 0
-0.0197035890 -0.0091844370 0 0
-0.0187519560 -0.0095068170 0 0
-0.0177360140 -0.0091724160 0 0
-0.0167544380 -0.0082675900 0 0
-0.0159203590 -0.0069268670 0 0
-0.0153480130 -0.0053183980 0 0
-0.0151372630 -0.0036291260 0 0
-0.0153582260 -0.0020502280 0 0
-0.0160392040 -0.0007634020 0 0
-0.0171611240 0.0000721631 0 0
-0.0186610630 0.0003324390 0 0
-0.0204440060 -0.0000599642 0 0
-0.0223982230 -0.0011274810 0 0
-0.0244107600 -0.0028340780 0 0
-0.0263825330 -0.0050867720 0 0
-0.0282408610 -0.0077422170 0 0
-0.0299444020 -0.0106188830 0 0
-0.0314793140 -0.0135146980 -1 0
-0.0328520020 -0.0162283490 -1 0
-0.0340846090 -0.0185807710 -1 0
-0.0352156790 -0.0204335400 -1 0
-0.0363040130 -0.0217027330 -1 0
-0.0374295670 -0.0223678520 -1 0
-0.0386859030 -0.0224749490 -1 0
-0.0401654790 -0.0221332910 -1 0
-0.0419449370 -0.0215052750 -1 0
-0.0440764500 -0.0207895420 -1 0
-0.0465849770 -0.0201992260 -1 0
-0.0494672420 -0.0199397770 -1 0
-0.0526901180 -0.0201900440 -1 0
-0.0561897520 -0.0210871550 -1 0
-0.0598742380 -0.0227143060 -1 0
-0.0636318200 -0.0250917680 -1 0
-0.0673437520 -0.0281722300 -1 0
-0.0708979210 -0.0318408810 -1 -1
-0.0741995280 -0.0359209460 -1 -1
-0.0771780310 -0.0401868200 -1 -1
-0.0797919010 -0.0443860040 -1 -1
-0.0820322960 -0.0482671090 -1 -1
-0.0839248510 -0.0516081720 -1 -1
-0.0855273040 -0.0542399330 -1 -1
-0.0869215690 -0.0560611720 -1 -1
-0.0882023550 -0.0570453100 -1 -1
-0.0894664220 -0.0572385640 -1 -1
-0.0908038640 -0.0567510980 -1 -1
-0.0922896240 -0.0557438130 -1 -1
-0.0939743940 -0.0544128760 -1 -1
-0.0958768150 -0.0529723190 -1 -1
-0.0979803880 -0.0516352690 -1 -1
-0.1002370540 -0.0505958830 -1 -1
-0.1025760730 -0.0500132290 -1 -1
-0.1049150030 -0.0499964880 -1 -1
-0.1071705320 -0.0505922740 -1 -1
-0.1092680880 -0.0517780370 -1 -1
-0.1111496730 -0.0534650910 -1 -1
-0.1127791070 -0.0555109140 -1 -1
-0.1141433550 -0.0577375080 -1 -1
-0.1152499680 -0.0599520840 -1 -1
-0.1161228540 -0.0619664850 -1 -1
-0.1167984630 -0.0636129630 -1 -1
-0.1173226510 -0.0647563860 -1 -1
-0.1177469520 -0.0653039940 -1 -1
-0.1181231950 -0.0652129860 -1 -1
-0.1184973110 -0.0644952140 -1 -1
-0.1189048890 -0.0632174540 -1 -1
-0.1193700140 -0.0614960780 -1 -1
-0.1199063320 -0.0594871130 -1 -1
-0.1205181730 -0.0573743880 -1 -1
-0.1211997350 -0.0553572960 -1 -1
-0.1219313130 -0.0536371170 -1 -1
-0.1226742640 -0.0524000280 -1 -1
-0.1233694300 -0.0517974090 -1 -1
-0.1239430640 -0.0519267740 -1 -1
-0.1243197390 -0.0528172030 -1 -1
-0.1244376120 -0.0544226860 -1 -1
-0.1242610180 -0.0566261580 -1 -1
-0.1237875150 -0.0592544870 -1 -1
-0.1230487310 -0.0621011510 -1 -1
-0.1221062750 -0.0649513600 -1 -1
-0.1210448390 -0.0676042760 -1 -1
-0.1199634550 -0.0698888370 -1 -1
-0.1189646080 -0.0716726570 -1 -1
-0.1181415070 -0.0728654560 -1 -1
-0.1175651010 -0.0734198600 -1 -1
-0.1172738090 -0.0733324500 -1 -1
-0.1172697670 -0.0726454060 -1 -1
-0.1175229270 -0.0714461780 -1 -1
-0.1179795000 -0.0698628410 -1 -1
-0.1185695630 -0.0680552710 -1 -1
-0.1192126980 -0.0662031180 -1 -1
-0.1198245990 -0.0644906110 -1 -1
-0.1203261070 -0.0630885990 -1 -1
-0.1206523720 -0.0621361070 -1 -1
-0.1207593240 -0.0617240770 -1 -1
-0.1206264680 -0.0618834310 -1 -1
-0.1202559050 -0.0625794130 -1 -1
-0.1196683340 -0.0637138140 -1 -1
-0.1188980010 -0.0651353130 -1 -1
-0.1179886070 -0.0666566180 -1 -1
-0.1169909340 -0.0680763410 -1 -1
-0.1159623200 -0.0692031940 -1 -1
-0.1149670280 -0.0698792230 -1 -1
-0.1140748290 -0.0699985390 -1 -1
-0.1133554660 -0.0695190970 -1 -1
-0.1128696230 -0.0684665320 -1 -1
-0.1126594640 -0.0669293380 -1 -1
-0.1127416800 -0.0650458710 -1 -1
-0.1131048280 -0.0629866530 -1 -1
-0.1137111490 -0.0609370700 -1 -1
-0.1145013160 -0.0590828730 -1 -1
-0.1154002970 -0.0575970170 -1 -1
-0.1163239230 -0.0566257850 -1 -1
-0.1171866190 -0.0562745120 -1 -1
-0.1179103100 -0.0565949610 -1 -1
-0.1184328690 -0.0575762390 -1 -1
-0.1187134370 -0.0591411970 -1 -1
-0.1187340760 -0.0611507920 -1 -1
-0.1184997050 -0.0634173800 -1 -1
-0.1180374410 -0.0657248940 -1 -1
-0.1173953370 -0.0678523670 -1 -1
-0.1166404970 -0.0695984390 -1 -1
-0.1158548770 -0.0708056210 -1 -1
-0.1151263090 -0.0713818140 -1 -1
-0.1145365000 -0.0713138560 -1 -1
-0.1141501040 -0.0706679660 -1 -1
-0.1140060600 -0.0695769790 -1 -1
-0.1141118720 -0.0682193970 -1 -1
-0.1144435020 -0.0667954690 -1 -1
-0.1149513900 -0.0655034240 -1 -1
-0.1155692440 -0.0645183090 -1 -1
-0.1162223180 -0.0639757890 -1 -1
-0.1168349130 -0.0639621460 -1 -1
-0.1173373960 -0.0645104560 -1 -1
-0.1176715120 -0.0656019340 -1 -1
-0.1177937360 -0.0671703820 -1 -1
-0.1176781210 -0.0691073090 -1 -1
-0.1173188230 -0.0712667930 -1 -1
-0.1167318440 -0.0734717640 -1 -1
-0.1159566320 -0.0755247380 -1 -1
-0.1150570230 -0.0772241700 -1 -1
-0.1141188050 -0.0783850560 -1 -1
-0.1132421370 -0.0788612710 -1 -1
-0.1125296170 -0.0785662570 -1 -1
-0.1120720520 -0.0774876260 -1 -1
-0.1119343000 -0.0756918480 -1 -1
-0.1121436360 -0.0733181110 -1 -1
-0.1126827660 -0.0705634940 -1 -1
-0.1134899220 -0.0676621920 -1 -1
-0.1144682460 -0.0648606050 -1 -1
-0.1155027300 -0.0623906780 -1 -1
-0.1164779550 -0.0604459560 -1 -1
-0.1172903620 -0.0591648540 -1 -1
-0.1178543390 -0.0586227780 -1 -1
-0.1181055120 -0.0588315390 -1 -1
-0.1180044310 -0.0597434870 -1 -1
-0.1175412720 -0.0612582470 -1 -1
-0.1167399950 -0.0632308530 -1 -1
-0.1156595940 -0.0654817820 -1 -1
-0.1143903280 -0.0678103990 -1 -1
-0.1130443190 -0.0700112460 -1 -1
-0.1117426220 -0.0718904110 -1 -1
-0.1106028260 -0.0732806040 -1 -1
-0.1097287580 -0.0740557530 -1 -1
-0.1092001840 -0.0741449290 -1 -1
-0.1090617850 -0.0735429660 -1 -1
-0.1093151570 -0.0723146280 -1 -1
-0.1099180220 -0.0705902270 -1 -1
-0.1107909910 -0.0685521220 -1 -1
-0.1118294090 -0.0664131260 -1 -1
-0.1129179030 -0.0643896760 -1 -1
-0.1139453040 -0.0626744460 -1 -1
-0.1148169980 -0.0614136790 -1 -1
-0.1154621170 -0.0606928760 -1 -1
-0.1158351530 -0.0605321960 -1 -1
-0.1159150090 -0.0608910450 -1 -1
-0.1157057470 -0.0616792000 -1 -1
-0.1152387190 -0.0627703380 -1 -1
-0.1145714160 -0.0640147150 -1 -1
-0.1137811590 -0.0652503650 -1 -1
-0.1129559740 -0.0663145050 -1 -1
-0.1121849350 -0.0670569270 -1 -1
-0.1115490660 -0.0673553350 -1 -1
-0.1111136350 -0.0671305900 -1 -1
-0.1109220870 -0.0663582860 -1 -1
-0.1109913090 -0.0650737080 -1 -1
-0.1113082730 -0.0633698760 -1 -1
-0.1118296380 -0.0613893900 -1 -1
-0.1124876290 -0.0593103150 -1 -1
-0.1132039460 -0.0573275660 -1 -1
-0.1139073140 -0.0556324870 -1 -1
-0.1145455370 -0.0543929370 -1 -1
-0.1150862740 -0.0537359590 -1 -1
-0.1155090980 -0.0537353560 -1 -1
-0.1157967240 -0.0544059480 -1 -1
-0.1159315420 -0.0557043860 -1 -1
-0.1158975250 -0.0575344440 -1 -1
-0.1156845020 -0.0597544040 -1 -1
-0.1152930340 -0.0621859160 -1 -1
-0.1147390630 -0.0646254790 -1 -1
-0.1140574110 -0.0668595160 -1 -1
-0.1133026530 -0.0686827040 -1 -1
-0.1125449170 -0.0699179170 -1 -1
-0.1118602370 -0.0704354320 -1 -1
-0.1113194160 -0.0701689440 -1 -1
-0.1109793430 -0.0691260240 -1 -1
-0.1108769020 -0.0673908510 -1 -1
-0.1110240800 -0.0651179900 -1 -1
-0.1114045010 -0.0625174380 -1 -1
-0.1119731950 -0.0598320310 -1 -1
-0.1126614320 -0.0573097750 -1 -1
-0.1133862090 -0.0551761640 -1 -1
-0.1140617250 -0.0536123080 -1 -1
-0.1146101870 -0.0527420650 -1 -1
-0.1149706620 -0.0526275340 -1 -1
-0.1151050750 -0.0532699650 -1 -1
-0.1150004950 -0.0546132920 -1 -1
-0.1146683920 -0.0565491720 -1 -1
-0.1141430770 -0.0589240070 -1 -1
-0.1134801320 -0.0615487380 -1 -1
-0.1127525900 -0.0642113970 -1 -1
-0.1120426760 -0.0666921180 -1 -1
-0.1114303820 -0.0687808770 -1 -1
-0.1109825950 -0.0702976360 -1 -1
-0.1107462680 -0.0711124310 -1 -1
-0.1107469820 -0.0711617080 -1 -1
-0.1109903990 -0.0704578340 -1 -1
-0.1114625480 -0.0690896100 -1 -1
-0.1121284010 -0.0672127140 -1 -1
-0.1129312910 -0.0650310690 -1 -1
-0.1137950360 -0.0627722340 -1 -1
-0.1146293690 -0.0606606880 -1 -1
-0.1153391140 -0.0588925260 -1 -1
-0.1158363400 -0.0576154210 -1 -1
-0.1160526250 -0.0569171500 -1 -1
-0.1159482770 -0.0568226590 -1 -1
-0.1155170150 -0.0572963630 -1 -1
-0.1147864890 -0.0582470400 -1 -1
-0.1138155700 -0.0595353980 -1 -1
-0.1126885290 -0.0609856480 -1 -1
-0.1115056120 -0.0624016330 -1 -1
-0.1103708650 -0.0635869830 -1 -1
-0.1093802840 -0.0643679260 -1 -1
-0.1086134730 -0.0646156080 -1 -1
-0.1081296040 -0.0642627620 -1 -1
-0.1079657890 -0.0633105140 -1 -1
-0.1081354180 -0.0618256580 -1 -1
-0.1086255510 -0.0599321130 -1 -1
-0.1093945550 -0.0577990750 -1 -1
-0.1103720610 -0.0556259650 -1 -1
-0.1114622580 -0.0536240160 -1 -1
-0.1125511430 -0.0519953900 -1 -1
-0.1135185920 -0.0509113120 -1 -1
-0.1142541240 -0.0504912440 -1 -1
-0.1146727610 -0.0507860700 -1 -1
-0.1147269220 -0.0517692080 -1 -1
-0.1144105440 -0.0533385780 -1 -1
-0.1137536180 -0.0553298060 -1 -1
-0.1128105620 -0.0575379460 -1 -1
-0.1116492940 -0.0597428030 -1 -1
-0.1103446840 -0.0617337080 -1 -1
-0.1089746200 -0.0633321150 -1 -1
-0.1076158160 -0.0644107010 -1 -1
-0.1063389450 -0.0649057090 -1 -1
-0.1052039300 -0.0648196670 -1 -1
-0.1042559520 -0.0642151980 -1 -1
-0.1035225940 -0.0632037100 -1 -1
-0.1030125300 -0.0619324550 -1 -1
-0.1027161190 -0.0605711360 -1 -1
-0.1026085640 -0.0592980220 -1 -1
-0.1026553620 -0.0582861710 -1 -1
-0.1028177280 -0.0576904150 -1 -1
-0.1030556430 -0.0576345780 -1 -1
-0.1033289220 -0.0581980410 -1 -1
-0.1035992090 -0.0594022720 -1 -1
-0.1038341340 -0.0612001940 -1 -1
-0.1040103630 -0.0634727940 -1 -1
-0.1041126290 -0.0660362990 -1 -1
-0.1041319250 -0.0686597540 -1 -1
-0.1040683720 -0.0710894620 -1 -1
-0.1039387830 -0.0730764450 -1 -1
-0.1037828610 -0.0744044400 -1 -1
-0.1036619000 -0.0749154640 -1 -1
-0.1036488820 -0.0745290940 -1 -1
-0.1038135730 -0.0732525210 -1 -1
-0.1042073310 -0.0711799490 -1 -1
-0.1048511560 -0.0684813960 -1 -1
-0.1057297690 -0.0653830140 -1 -1
-0.1067935910 -0.0621424090 -1 -1
-0.1079678920 -0.0590224180 -1 -1
-0.1091651180 -0.0562661760 -1 -1
-0.1102952680 -0.0540754180 -1 -1
-0.1112718450 -0.0525936020 -1 -1
-0.1120154510 -0.0518957750 -1 -1
-0.1124593860 -0.0519865000 -1 -1
-0.1125583570 -0.0528050480 -1 -1
-0.1122965760 -0.0542352200 -1 -1
-0.1116920780 -0.0561170760 -1 -1
-0.1107975890 -0.0582593380 -1 -1
-0.1096979450 -0.0604529510 -1 -1
-0.1085027290 -0.0624868170 -1 -1
-0.1073350650 -0.0641657370 -1 -1
-0.1063188250 -0.0653287940 -1 -1
-0.1055645080 -0.0658651960 -1 -1
-0.1051542440 -0.0657246390 -1 -1
-0.1051294710 -0.0649207010 -1 -1
-0.1054855510 -0.0635277290 -1 -1
-0.1061744210 -0.0616726690 -1 -1
-0.1071132070 -0.0595229530 -1 -1
-0.1081960490 -0.0572710830 -1 -1
-0.1093075120 -0.0551172670 -1 -1
-0.1103364950 -0.0532521180 -1 -1
-0.1111891250 -0.0518403140 -1 -1
-0.1117979770 -0.0510052820 -1 -1
-0.1121247280 -0.0508160880 -1 -1
-0.1121567120 -0.0512789030 -1 -1
-0.1119027140 -0.0523350490 -1 -1
-0.1113928310 -0.0538660090 -1 -1
-0.1106807530 -0.0557040120 -1 -1
-0.1098427830 -0.0576467780 -1 -1
-0.1089704120 -0.0594762660 -1 -1
-0.1081579800 -0.0609809290 -1 -1
-0.1074896580 -0.0619787950 -1 -1
-0.1070299000 -0.0623376300 -1 -1
-0.1068198690 -0.0619898440 -1 -1
-0.1068789680 -0.0609416780 -1 -1
-0.1072063180 -0.0592766480 -1 -1
-0.1077775310 -0.0571522760 -1 -1
-0.1085390560 -0.0547879150 -1 -1
-0.1094068000 -0.0524423880 -1 -1
-0.1102723850 -0.0503844470 -1 -1
-0.1110152700 -0.0488627180 -1 -1
-0.1115181260 -0.0480801560 -1 -1
-0.1116835110 -0.0481737840 -1 -1
-0.1114486840 -0.0491990130 -1 -1
-0.1107946740 -0.0511198360 -1 -1
-0.1097474100 -0.0538079350 -1 -1
-0.1083723630 -0.0570532500 -1 -1
-0.1067664950 -0.0605860850 -1 -1
-0.1050491270 -0.0641073840 -1 -1
-0.1033509020 -0.0673215990 -1 -1
-0.1018018620 -0.0699673640 -1 -1
-0.1005208420 -0.0718429730 -1 -1
-0.0996061500 -0.0728241260 -1 -1
-0.0991261280 -0.0728720910 -1 -1
-0.0991097520 -0.0720322170 -1 -1
-0.0995397610 -0.0704243640 -1 -1
-0.1003526000 -0.0682271500 -1 -1
-0.1014483900 -0.0656577210 -1 -1
-0.1027085080 -0.0629495660 -1 -1
-0.1040133440 -0.0603319700 -1 -1
-0.1052544330 -0.0580132700 -1 -1
-0.1063403590 -0.0561674610 -1 -1
-0.1071991660 -0.0549238080 -1 -1
-0.1077804090 -0.0543606510 -1 -1
-0.1080583330 -0.0545037860 -1 -1
-0.1080347790 -0.0553271110 -1 -1
-0.1077390290 -0.0567527890 -1 -1
-0.1072235370 -0.0586507310 -1 -1
-0.1065563240 -0.0608402670 -1 -1
-0.1058118910 -0.0630980140 -1 -1
-0.1050638800 -0.0651750570 -1 -1
-0.1043811560 -0.0668238730 -1 -1
-0.1038248000 -0.0678317160 -1 -1
-0.1034436360 -0.0680534660 -1 -1
-0.1032692760 -0.0674355590 -1 -1
-0.1033125180 -0.0660253140 -1 -1
-0.1035625130 -0.0639645410 -1 -1
-0.1039893770 -0.0614693240 -1 -1
-0.1045483000 -0.0588002550 -1 -1
-0.1051829770 -0.0562295810 -1 -1
-0.1058297820 -0.0540111650 -1 -1
-0.1064246060 -0.0523557550 -1 -1
-0.1069107400 -0.0514115460 -1 -1
-0.1072455210 -0.0512501520 -1 -1
-0.1074054820 -0.0518595340 -1 -1
-0.1073898300 -0.0531462530 -1 -1
-0.1072204180 -0.0549490290 -1 -1
-0.1069364180 -0.0570630870 -1 -1
-0.1065851540 -0.0592706150 -1 -1
-0.1062133260 -0.0613699800 -1 -1
-0.1058615680 -0.0631974630 -1 -1
-0.1055623320 -0.0646382780 -1 -1
-0.1053405200 -0.0656272440 -1 -1
-0.1052161900 -0.0661426150 -1 -1
-0.1052070060 -0.0661977480 -1 -1
-0.1053282720 -0.0658344790 -1 -1
-0.1055910210 -0.0651195860 -1 -1
-0.1059995170 -0.0641423780 -1 -1
-0.1065484010 -0.0630104550 -1 -1
-0.1072198850 -0.0618425020 -1 -1
-0.1079816240 -0.0607582900 -1 -1
-0.1087857910 -0.0598665700 -1 -1
-0.1095705980 -0.0592528870 -1 -1
-0.1102659530 -0.0589693550 -1 -1
-0.1108029060 -0.0590273010 -1 -1
-0.1111238570 -0.0593937940 -1 -1
-0.1111905940 -0.0599939320 -1 -1
-0.1109891890 -0.0607197110 -1 -1
-0.1105315210 -0.0614439590 -1 -1
-0.1098534580 -0.0620364270 -1 -1
-0.1090111030 -0.0623793850 -1 -1
-0.1080766830 -0.0623811380 -1 -1
-0.1071336490 -0.0619865110 -1 -1
-0.1062687240 -0.0611838550 -1 -1
-0.1055594730 -0.0600084910 -1 -1
-0.1050597910 -0.0585420640 -1 -1
-0.1047894400 -0.0569069020 -1 -1
-0.1047324550 -0.0552548230 -1 -1
-0.1048440920 -0.0537508170 -1 -1
-0.1050624800 -0.0525538530 -1 -1
-0.1053206590 -0.0517986110 -1 -1
-0.1055557290 -0.0515814780 -1 -1
-0.1057134050 -0.0519515830 -1 -1
-0.1057481050 -0.0529058390 -1 -1
-0.1056209860 -0.0543876100 -1 -1
-0.1052999580 -0.0562896880 -1 -1
-0.1047640850 -0.0584620070 -1 -1
-0.1040112590 -0.0607237910 -1 -1
-0.1030653340 -0.0628792870 -1 -1
-0.1019779700 -0.0647354690 -1 -1
-0.1008227620 -0.0661199360 -1 -1
-0.0996837160 -0.0668975460 -1 -1
-0.0986427340 -0.0669844640 -1 -1
-0.0977698340 -0.0663580820 -1 -1
-0.0971173820 -0.0650613110 -1 -1
-0.0967177610 -0.0632005930 -1 -1
-0.0965834180 -0.0609381510 -1 -1
-0.0967081570 -0.0584795960 -1 -1
-0.0970684450 -0.0560581870 -1 -1
-0.0976239930 -0.0539166790 -1 -1
-0.0983180700 -0.0522868200 -1 -1
-0.0990792720 -0.0513664210 -1 -1
-0.0998264860 -0.0512955960 -1 -1
-0.1004776790 -0.0521354990 -1 -1
-0.1009613680 -0.0538532790 -1 -1
-0.1012270860 -0.0563170630 -1 -1
-0.1012512390 -0.0593047760 -1 -1
-0.1010386510 -0.0625280650 -1 -1
-0.1006215900 -0.0656676450 -1 -1
-0.1000561260 -0.0684127360 -1 -1
-0.0994156530 -0.0704975670 -1 -1
-0.0987825430 -0.0717310740 -1 -1
-0.0982388450 -0.0720176020 -1 -1
-0.0978576860 -0.0713656780 -1 -1
-0.0976974560 -0.0698822760 -1 -1
-0.0977988100 -0.0677531280 -1 -1
-0.0981826460 -0.0652140440 -1 -1
-0.0988471650 -0.0625207800 -1 -1
-0.0997630520 -0.0599235510 -1 -1
-0.1008690880 -0.0576474160 -1 -1
-0.1020741100 -0.0558760250 -1 -1
-0.1032687830 -0.0547373560 -1 -1
-0.1043440330 -0.0542931680 -1 -1
-0.1052094330 -0.0545346310 -1 -1
-0.1058055830 -0.0553851730 -1 -1
-0.1061075450 -0.0567111420 -1 -1
-0.1061207870 -0.0583399830 -1 -1
-0.1058735590 -0.0600824430 -1 -1
-0.1054093450 -0.0617532530 -1 -1
-0.1047825610 -0.0631868200 -1 -1
-0.1040576370 -0.0642479000 -1 -1
-0.1033063430 -0.0648384770 -1 -1
-0.1025987440 -0.0649018810 -1 -1
-0.1019910790 -0.0644249380 -1 -1
-0.1015183980 -0.0634389590 -1 -1
-0.1011952270 -0.0620202990 -1 -1
-0.1010201050 -0.0602895350 -1 -1
-0.1009788740 -0.0584060100 -1 -1
-0.1010464750 -0.0565549590 -1 -1
-0.1011901610 -0.0549281070 -1 -1
-0.1013748520 -0.0537014640 -1 -1
-0.1015682150 -0.0530136840 -1 -1
-0.1017434460 -0.0529473320 -1 -1
-0.1018799400 -0.0535156730 -1 -1
-0.1019629310 -0.0546576400 -1 -1
-0.1019828290 -0.0562424720 -1 -1
-0.1019353570 -0.0580841110 -1 -1
-0.1018231020 -0.0599637250 -1 -1
-0.1016566440 -0.0616564240 -1 -1
-0.1014531840 -0.0629571970 -1 -1
-0.1012336770 -0.0637029030 -1 -1
-0.1010210560 -0.0637893490 -1 -1
-0.1008403000 -0.0631825250 -1 -1
-0.1007179050 -0.0619226960 -1 -1
-0.1006774790 -0.0601205710 -1 -1
-0.1007320500 -0.0579452370 -1 -1
-0.1008781440 -0.0556043990 -1 -1
-0.1010947870 -0.0533197960 -1 -1
-0.1013451080 -0.0513024630 -1 -1
-0.1015780260 -0.0497319010 -1 -1
-0.1017322270 -0.0487409710 -1 -1
-0.1017451280 -0.0484073170 -1 -1
-0.1015640810 -0.0487524490 -1 -1
-0.1011541210 -0.0497476940 -1 -1
-0.1005011700 -0.0513223890 -1 -1
-0.0996140570 -0.0533695770 -1 -1
-0.0985265090 -0.0557491520 -1 -1
-0.0972966820 -0.0582921030 -1 -1
-0.0960027460 -0.0608087520 -1 -1
-0.0947357690 -0.0631010900 -1 -1
-0.0935914610 -0.0649785830 -1 -1
-0.0926615130 -0.0662764130 -1 -1
-0.0920247940 -0.0668732950 -1 -1
-0.0917383860 -0.0667055800 -1 -1
-0.0918287630 -0.0657761350 -1 -1
-0.0922853080 -0.0641572720 -1 -1
-0.0930597930 -0.0619863470 -1 -1
-0.0940738810 -0.0594532090 -1 -1
-0.0952326620 -0.0567810110 -1 -1
-0.0964389280 -0.0542037500 -1 -1
-0.0976032840 -0.0519437370 -1 -1
-0.0986490540 -0.0501910050 -1 -1
-0.0995143630 -0.0490859500 -1 -1
-0.1001539880 -0.0487065050 -1 -1
-0.1005421920 -0.0490612760 -1 -1
-0.1006762460 -0.0500894110 -1 -1
-0.1005791530 -0.0516667040 -1 -1
-0.1002997230 -0.0536169700 -1 -1
-0.0999082790 -0.0557286010 -1 -1
-0.0994873150 -0.0577763110 -1 -1
-0.0991195930 -0.0595455340 -1 -1
-0.0988779340 -0.0608552230 -1 -1
-0.0988184700 -0.0615766450 -1 -1
-0.0989765200 -0.0616484930 -1 -1
-0.0993644070 -0.0610882050 -1 -1
-0.0999708780 -0.0599960510 -1 -1
-0.1007619150 -0.0585474080 -1 -1
-0.1016836530 -0.0569724690 -1 -1
-0.1026686770 -0.0555273470 -1 -1
-0.1036452590 -0.0544614920 -1 -1
-0.1045464090 -0.0539849200 -1 -1
-0.1053153540 -0.0542387870 -1 -1
-0.1059064620 -0.0552743920 -1 -1
-0.1062836010 -0.0570458940 -1 -1
-0.1064191670 -0.0594180480 -1 -1
-0.1062957490 -0.0621851000 -1 -1
-0.1059101130 -0.0650954990 -1 -1
-0.1052770280 -0.0678792220 -1 -1
-0.1044294230 -0.0702759710 -1 -1
-0.1034145850 -0.0720618600 -1 -1
-0.1022907430 -0.0730718740 -1 -1
-0.1011262370 -0.0732167880 -1 -1
-0.0999974830 -0.0724942350 -1 -1
-0.0989826200 -0.0709919870 -1 -1
-0.0981532050 -0.0688798770 -1 -1
-0.0975672840 -0.0663893410 -1 -1
-0.0972640860 -0.0637841690 -1 -1
-0.0972596150 -0.0613283500 -1 -1
-0.0975439110 -0.0592566130 -1 -1
-0.0980807670 -0.0577518010 -1 -1
-0.0988098850 -0.0569305270 -1 -1
-0.0996512550 -0.0568362310 -1 -1
-0.1005118370 -0.0574390050 -1 -1
-0.1012947770 -0.0586423170 -1 -1
-0.1019101990 -0.0602955730 -1 -1
-0.1022848760 -0.0622100570 -1 -1
-0.1023693360 -0.0641764910 -1 -1
-0.1021443030 -0.0659836540 -1 -1
-0.1016270290 -0.0674368350 -1 -1
-0.1008723590 -0.0683739940 -1 -1
-0.0999639570 -0.0686781220 -1 -1
-0.0989995540 -0.0682851550 -1 -1
-0.0980777300 -0.0671871590 -1 -1
-0.0972883030 -0.0654311570 -1 -1
-0.0967043130 -0.0631146140 -1 -1
-0.0963754940 -0.0603785770 -1 -1
-0.0963243200 -0.0573991330 -1 -1
-0.0965439940 -0.0543770640 -1 -1
-0.0969983500 -0.0515247510 -1 -1
-0.0976257450 -0.0490492230 -1 -1
-0.0983476800 -0.0471321150 -1 -1
-0.0990799760 -0.0459099800 -1 -1
-0.0997444000 -0.0454593690 -1 -1
-0.1002798200 -0.0457895330 -1 -1
-0.1006499700 -0.0468431640 -1 -1
-0.1008430380 -0.0485039530 -1 -1
-0.1008632370 -0.0506095390 -1 -1
-0.1007220040 -0.0529690170 -1 -1
-0.1004361680 -0.0553833820 -1 -1
-0.1000328520 -0.0576647550 -1 -1
-0.0995544260 -0.0596499760 -1 -1
-0.0990568760 -0.0612080420 -1 -1
-0.0985999650 -0.0622442640 -1 -1
-0.0982335480 -0.0627038340 -1 -1
-0.0979878260 -0.0625756520 -1 -1
-0.0978723460 -0.0618956800 -1 -1
-0.0978810130 -0.0607480420 -1 -1
-0.0979972850 -0.0592616910 -1 -1
-0.0981974880 -0.0576014890 -1 -1
-0.0984537790 -0.0559542250 -1 -1
-0.0987374400 -0.0545105450 -1 -1
-0.0990210990 -0.0534435970 -1 -1
-0.0992787880 -0.0528865980 -1 -1
-0.0994848850 -0.0529140200 -1 -1
-0.0996141310 -0.0535309280 -1 -1
-0.0996451080 -0.0546715530 -1 -1
-0.0995676900 -0.0562059570 -1 -1
-0.0993900700 -0.0579543410 -1 -1
-0.0991394590 -0.0597084840 -1 -1
-0.0988562600 -0.0612570190 -1 -1
-0.0985857330 -0.0624094640 -1 -1
-0.0983691560 -0.0630152580 -1 -1
-0.0982350160 -0.0629763820 -1 -1
-0.0981932800 -0.0622540300 -1 -1
-0.0982368220 -0.0608709070 -1 -1
-0.0983499390 -0.0589098830 -1 -1
-0.0985181630 -0.0565092840 -1 -1
-0.0987326950 -0.0538561620 -1 -1
-0.0989875370 -0.0511770940 -1 -1
-0.0992728140 -0.0487220360 -1 -1
-0.0995693700 -0.0467379460 -1 -1
-0.0998477360 -0.0454354780 -1 -1
-0.1000720740 -0.0449571490 -1 -1
-0.1002074990 -0.0453550630 -1 -1
-0.1002272910 -0.0465823470 -1 -1
-0.1001169860 -0.0484985170 -1 -1
-0.0998752180 -0.0508869380 -1 -1
-0.0995136810 -0.0534813000 -1 -1
-0.0990580920 -0.0559966980 -1 -1
-0.0985486320 -0.0581606750 -1 -1
-0.0980364260 -0.0597410760 -1 -1
-0.0975758420 -0.0605690390 -1 -1
-0.0972158610 -0.0605552520 -1 -1
-0.0969933260 -0.0596969800 -1 -1
-0.0969288980 -0.0580753170 -1 -1
-0.0970257190 -0.0558454910 -1 -1
-0.0972710180 -0.0532232100 -1 -1
-0.0976406090 -0.0504670640 -1 -1
-0.0981044450 -0.0478556380 -1 -1
-0.0986300390 -0.0456603140 -1 -1
-0.0991814840 -0.0441177420 -1 -1
-0.0997153050 -0.0434066910 -1 -1
-0.1001785620 -0.0436318210 -1 -1
-0.1005141230 -0.0448144250 -1 -1
-0.1006712890 -0.0468899700 -1 -1
-0.1006150630 -0.0497133940 -1 -1
-0.1003305260 -0.0530719820 -1 -1
-0.0998246320 -0.0567031700 -1 -1
-0.0991279830 -0.0603151310 -1 -1
-0.0982949110 -0.0636104320 -1 -1
-0.0973984610 -0.0663125210 -1 -1
-0.0965202200 -0.0681924160 -1 -1
-0.0957386180 -0.0690919130 -1 -1
-0.0951190800 -0.0689401220 -1 -1
-0.0947075540 -0.0677612530 -1 -1
-0.0945279970 -0.0656725150 -1 -1
-0.0945825960 -0.0628719000 -1 -1
-0.0948515300 -0.0596172520 -1 -1
-0.0952906980 -0.0561999520 -1 -1
-0.0958305720 -0.0529167530 -1 -1
-0.0963811320 -0.0500423050 -1 -1
-0.0968434290 -0.0478039550 -1 -1
-0.0971236540 -0.0463597620 -1 -1
-0.0971460420 -0.0457809300 -1 -1
-0.0968626310 -0.0460420170 -1 -1
-0.0962577710 -0.0470234920 -1 -1
-0.0953469010 -0.0485284820 -1 -1
-0.0941722600 -0.0503109690 -1 -1
-0.0927990450 -0.0521098660 -1 -1
-0.0913131340 -0.0536826360 -1 -1
-0.0898180350 -0.0548328010 -1 -1
-0.0884273600 -0.0554278140 -1 -1
-0.0872519730 -0.0554067300 -1 -1
-0.0863852650 -0.0547795940 -1 -1
-0.0858917460 -0.0536210620 -1 -1
-0.0858018150 -0.0520598670 -1 -1
-0.0861115270 -0.0502650650 -1 -1
-0.0867841510 -0.0484295690 -1 -1
-0.0877519510 -0.0467517790 -1 -1
-0.0889202320 -0.0454177130 -1 -1
-0.0901769300 -0.0445865370 -1 -1
-0.0914074120 -0.0443798810 -1 -1
-0.0925098440 -0.0448723730 -1 -1
-0.0934063050 -0.0460812500 -1 -1
-0.0940480140 -0.0479568240 -1 -1
-0.0944159900 -0.0503783990 -1 -1
-0.0945191090 -0.0531593890 -1 -1
-0.0943902340 -0.0560633960 -1 -1
-0.0940801460 -0.0588315430 -1 -1
-0.0936498470 -0.0612177340 -1 -1
-0.0931634290 -0.0630234370 -1 -1
-0.0926834800 -0.0641220400 -1 -1
-0.0922689010 -0.0644672270 -1 -1
-0.0919728220 -0.0640873180 -1 -1
-0.0918383290 -0.0630722110 -1 -1
-0.0918922960 -0.0615585370 -1 -1
-0.0921403020 -0.0597155430 -1 -1
-0.0925651510 -0.0577329180 -1 -1
-0.0931287480 -0.0558103140 -1 -1
-0.0937755390 -0.0541460780 -1 -1
-0.0944366330 -0.0529223550 -1 -1
-0.0950355800 -0.0522859770 -1 -1
-0.0954972660 -0.0523273010 -1 -1
-0.0957588270 -0.0530612030 -1 -1
-0.0957785230 -0.0544157360 -1 -1
-0.0955391190 -0.0562338630 -1 -1
-0.0950454490 -0.0582900330 -1 -1
-0.0943192010 -0.0603179690 -1 -1
-0.0933958600 -0.0620439100 -1 -1
-0.0923266490 -0.0632209460 -1 -1
-0.0911824920 -0.0636604360 -1 -1
-0.0900532720 -0.0632552260 -1 -1
-0.0890384960 -0.0619906110 -1 -1
-0.0882319200 -0.0599431770 -1 -1
-0.0877066520 -0.0572702350 -1 -1
-0.0875059170 -0.0541921910 -1 -1
