-0.0664809190 0.0247163480 -1 0
-0.0634254760 0.0223258560 -1 0
-0.0602872470 0.0200243210 -1 0
-0.0572052830 0.0180252210 -1 0
-0.0542976470 0.0164994060 -1 0
-0.0516501210 0.0155538270 -1 0
-0.0493104710 0.0152193490 -1 0
-0.0472894080 0.0154492340 -1 0
-0.0455667680 0.0161278510 -1 0
-0.0440994230 0.0170880810 -1 0
-0.0428284400 0.0181350250 -1 0
-0.0416858570 0.0190732720 -1 0
-0.0406019930 0.0197341300 -1 0
-0.0395128220 0.0199969990 -1 0
-0.0383661020 0.0197995400 -1 0
-0.0371246930 0.0191362650 -1 0
-0.0357663160 0.0180502620 -1 0
-0.0342808940 0.0166233800 -1 0
-0.0326677190 0.0149668150 -1 0
-0.0309342540 0.0132112720 -1 0
-0.0290973020 0.0114965800 0 0
-0.0271858680 0.0099622430 0 0
-0.0252442680 0.0087393000 0 0
-0.0233338130 0.0079415570 0 0
-0.0215305380 0.0076539840 0 0
-0.0199171070 0.0079181090 0 0
-0.0185706710 0.0087169630 0 0
-0.0175511700 0.0099648160 0 0
-0.0168932150 0.0115087630 0 0
-0.0166018680 0.0131466030 0 0
-0.0166518830 0.0146577240 0 0
-0.0169901900 0.0158372800 0 0
-0.0175405910 0.0165240590 0 0
-0.0182097440 0.0166174260 0 0
-0.0188954050 0.0160834960 0 0
-0.0194978880 0.0149524550 0 0
-0.0199324990 0.0133091290 0 0
-0.0201390930 0.0112795490 0 0
-0.0200862000 0.0090164560 0 0
-0.0197703500 0.0066859570 0 0
-0.0192142100 0.0044563700 0 0
-0.0184659420 0.0024890120 0 0
-0.0175976590 0.0009299840 0 0
-0.0166991320 -0.0000981411 0 0
-0.0158656910 -0.0005055490 0 0
-0.0151834000 -0.0002445980 0 0
-0.0147164170 0.0006831500 0 0
-0.0144994650 0.0022242820 0 0
-0.0145357130 0.0042747570 0 0
-0.0147990710 0.0066838720 0 0
-0.0152385760 0.0092621460 0 0
-0.0157829820 0.0117951780 0 0
-0.0163467540 0.0140634220 0 0
-0.0168393340 0.0158646620 0 0
-0.0171767910 0.0170344520 0 0
-0.0172931890 0.0174608540 0 0
-0.0171494990 0.0170929250 0 0
-0.0167384570 0.0159442670 0 0
-0.0160844690 0.0140925600 0 0
-0.0152390020 0.0116749510 0 0
-0.0142729690 0.0088784010 0 0
-0.0132677740 0.0059243850 0 0
-0.0123071040 0.0030493140 0 0
-0.0114711340 0.0004839940 0 0
-0.0108319990 -0.0015656340 0 0
-0.0104479170 -0.0029360160 0 0
-0.0103561090 -0.0035210700 0 0
-0.0105677610 -0.0032829530 0 0
-0.0110672030 -0.0022561230 0 0
-0.0118148350 -0.0005427610 0 0
-0.0127521890 0.0016998330 0 0
-0.0138076920 0.0042757910 0 0
-0.0149021700 0.0069670360 0 0
-0.0159533790 0.0095489040 0 0
-0.0168794390 0.0118063010 0 0
-0.0176030230 0.0135502690 0 0
-0.0180587790 0.0146346430 0 0
-0.0182033940 0.0149728370 0 0
-0.0180244460 0.0145526710 0 0
-0.0175441770 0.0134447460 0 0
-0.0168168590 0.0118001660 0 0
-0.0159207850 0.0098357290 0 0
-0.0149465650 0.0078074520 0 0
-0.0139840200 0.0059763420 0 0
-0.0131112970 0.0045727300 0 0
-0.0123897540 0.0037659210 0 0
-0.0118639930 0.0036445800 0 0
-0.0115626810 0.0042106770 0 0
-0.0114974500 0.0053862020 0 0
-0.0116612960 0.0070283890 0 0
-0.0120292360 0.0089484750 0 0
-0.0125618450 0.0109315730 0 0
-0.0132094610 0.0127578820 0 0
-0.0139149790 0.0142248910 0 0
-0.0146155940 0.0151681030 0 0
-0.0152454220 0.0154771420 0 0
-0.0157408140 0.0151058220 0 0
-0.0160487680 0.0140768460 0 0
-0.0161365920 0.0124813760 0 0
-0.0159996480 0.0104717070 0 0
-0.0156642860 0.0082458980 0 0
-0.0151842120 0.0060263070 0 0
-0.0146312240 0.0040351390 0 0
-0.0140837300 0.0024693620 0 0
-0.0136164070 0.0014774610 0 0
-0.0132925410 0.0011413470 0 0
-0.0131586050 0.0014670210 0 0
-0.0132403370 0.0023861060 0 0
-0.0135410220 0.0037676960 0 0
-0.0140421980 0.0054375460 0 0
-0.0147057650 0.0072001610 0 0
-0.0154774200 0.0088591670 0 0
-0.0162921380 0.0102330560 0 0
-0.0170810040 0.0111663000 0 0
-0.0177778120 0.0115381070 0 0
-0.0183246520 0.0112717730 0 0
-0.0186763330 0.0103461190 0 0
-0.0188033820 0.0088069850 0 0
-0.0186935730 0.0067735790 0 0
-0.0183522220 0.0044336760 0 0
-0.0178015450 0.0020245280 0 0
-0.0170793990 -0.0001971860 0 0
-0.0162371980 -0.0019882510 0 0
-0.0153360330 -0.0031479960 0 0
-0.0144408210 -0.0035411840 0 0
-0.0136140270 -0.0031136580 0 0
-0.0129106750 -0.0018986290 0 0
-0.0123750220 -0.0000118056 0 0
-0.0120381170 0.0023636860 0 0
-0.0119149540 0.0049995380 0 0
-0.0120007710 0.0076485840 0 0
-0.0122683030 0.0100718090 0 0
-0.0126691380 0.0120618030 0 0
-0.0131406320 0.0134598770 0 0
-0.0136163970 0.0141671920 0 0
-0.0140358510 0.0141517620 0 0
-0.0143497010 0.0134516680 0 0
-0.0145222410 0.0121722810 0 0
-0.0145334940 0.0104750600 0 0
-0.0143827030 0.0085586690 0 0
-0.0140908950 0.0066361440 0 0
-0.0136986850 0.0049127350 0 0
-0.0132592660 0.0035676660 0 0
-0.0128302870 0.0027404220 0 0
-0.0124675020 0.0025207340 0 0
-0.0122203630 0.0029420050 0 0
-0.0121284610 0.0039779430 0 0
-0.0122179900 0.0055415960 0 0
-0.0124983930 0.0074875810 0 0
-0.0129595010 0.0096209400 0 0
-0.0135698320 0.0117154280 0 0
-0.0142777380 0.0135397490 0 0
-0.0150165980 0.0148859240 0 0
-0.0157131820 0.0155939320 0 0
-0.0162979930 0.0155701160 0 0
-0.0167162370 0.0147993220 0 0
-0.0169361340 0.0133499310 0 0
-0.0169510300 0.0113691230 0 0
-0.0167749460 0.0090660460 0 0
-0.0164338030 0.0066838600 0 0
-0.0159555290 0.0044657260 0 0
-0.0153639430 0.0026224550 0 0
-0.0146803570 0.0013095430 0 0
-0.0139304780 0.0006179490 0 0
-0.0131494120 0.0005772940 0 0
-0.0123809320 0.0011659840 0 0
-0.0116726490 0.0023223040 0 0
-0.0110691300 0.0039527160 0 0
-0.0106040620 0.0059372210 0 0
-0.0102942030 0.0081344830 0 0
-0.0101376980 0.0103888710 0 0
-0.0101163300 0.0125388930 0 0
-0.0101994680 0.0144260000 0 0
-0.0103479940 0.0159047530 0 0
-0.0105181080 0.0168558700 0 0
-0.0106660300 0.0172009690 0 0
-0.0107539350 0.0169154370 0 0
-0.0107549250 0.0160362100 0 0
-0.0106539360 0.0146622220 0 0
-0.0104446570 0.0129459900 0 0
-0.0101260670 0.0110771370 0 0
-0.0097022950 0.0092614470 0 0
-0.0091865190 0.0076992080 0 0
-0.0086059200 0.0065650920 0 0
-0.0080036940 0.0059907970 0 0
-0.0074370240 0.0060513880 0 0
-0.0069720470 0.0067566610 0 0
-0.0066756270 0.0080494460 0 0
-0.0066034330 0.0098120970 0 0
-0.0067871410 0.0118801150 0 0
-0.0072257420 0.0140597390 0 0
-0.0078841230 0.0161456620 0 0
-0.0086994220 0.0179364720 0 0
-0.0095933330 0.0192483310 0 0
-0.0104847600 0.0199287380 0 0
-0.0112971510 0.0198709810 0 0
-0.0119614160 0.0190284600 0 0
-0.0124200980 0.0174265050 0 0
-0.0126351840 0.0151674140 0 0
-0.0125954520 0.0124246380 0 0
-0.0123178000 0.0094259220 0 0
-0.0118423480 0.0064296870 0 0
-0.0112253020 0.0037001690 0 0
-0.0105317120 0.0014842170 0 0
-0.0098275450 -0.0000106315 0 0
-0.0091715960 -0.0006377190 0 0
-0.0086094600 -0.0003310030 0 0
-0.0081706670 0.0008817250 0 0
-0.0078676820 0.0028779970 0 0
-0.0076964820 0.0054549770 0 0
-0.0076407110 0.0083556570 0 0
-0.0076788800 0.0112995570 0 0
-0.0077895560 0.0140111240 0 0
-0.0079516200 0.0162423510 0 0
-0.0081429760 0.0177899770 0 0
-0.0083408850 0.0185099540 0 0
-0.0085215320 0.0183309570 0 0
-0.0086569070 0.0172659830 0 0
-0.0087135900 0.0154189930 0 0
-0.0086589170 0.0129824720 0 0
-0.0084727640 0.0102221740 0 0
-0.0081576120 0.0074479410 0 0
-0.0077409180 0.0049743170 0 0
-0.0072692670 0.0030791400 0 0
-0.0067988210 0.0019695160 0 0
-0.0063876600 0.0017614810 0 0
-0.0060916080 0.0024744470 0 0
-0.0059609170 0.0040375850 0 0
-0.0060350280 0.0063040360 0 0
-0.0063355330 0.0090693160 0 0
-0.0068601610 0.0120920220 0 0
-0.0075809270 0.0151165100 0 0
-0.0084464260 0.0178968730 0 0
-0.0093861260 0.0202200810 0 0
-0.0103166540 0.0219255120 0 0
-0.0111513750 0.0229183020 0 0
-0.0118124600 0.0231750870 0 0
-0.0122433910 0.0227422090 0 0
-0.0124188240 0.0217270520 0 0
-0.0123474630 0.0202832880 0 0
-0.0120665000 0.0185921690 0 0
-0.0116313550 0.0168433170 0 0
-0.0111059530 0.0152174750 0 0
-0.0105568660 0.0138710770 0 0
-0.0100506520 0.0129214550 0 0
-0.0096500820 0.0124328580 0 0
-0.0094067640 0.0124065280 0 0
-0.0093531060 0.0127801350 0 0
-0.0094979540 0.0134392270 0 0
-0.0098275680 0.0142373790 0 0
-0.0103111470 0.0150182500 0 0
-0.0109082780 0.0156344700 0 0
-0.0115745680 0.0159615570 0 0
-0.0122629900 0.0159075360 0 0
-0.0129223370 0.0154201430 0 0
-0.0134967130 0.0144924970 0 0
-0.0139285850 0.0131657240 0 0
-0.0141651390 0.0115264240 0 0
-0.0141664770 0.0096976940 0 0
-0.0139135420 0.0078237110 0 0
-0.0134130480 0.0060506590 0 0
-0.0126985240 0.0045092630 0 0
-0.0118295480 0.0033033580 0 0
-0.0108895520 0.0025052950 0 0
-0.0099784580 0.0021554050 0 0
-0.0091981510 0.0022619250 0 0
-0.0086346840 0.0028002830 0 0
-0.0083435580 0.0037137170 0 0
-0.0083431370 0.0049177070 0 0
-0.0086178360 0.0063087360 0 0
-0.0091273320 0.0077761780 0 0
-0.0098153330 0.0092150680 0 0
-0.0106143710 0.0105365260 0 0
-0.0114475040 0.0116727170 0 0
-0.0122299910 0.0125756550 0 0
-0.0128740630 0.0132129090 0 0
-0.0132981530 0.0135651130 0 0
-0.0134393730 0.0136282530 0 0
-0.0132664580 0.0134196260 0 0
-0.0127900660 0.0129833010 0 0
-0.0120665560 0.0123909810 0 0
-0.0111910880 0.0117368520 0 0
-0.0102795800 0.0111279480 0 0
-0.0094454560 0.0106723530 0 0
-0.0087804770 0.0104669300 0 0
-0.0083457680 0.0105853590 0 0
-0.0081722880 0.0110668560 0 0
-0.0082657260 0.0119061900 0 0
-0.0086115350 0.0130472260 0 0
-0.0091789020 0.0143833970 0 0
-0.0099240450 0.0157668610 0 0
-0.0107927600 0.0170252250 0 0
-0.0117223140 0.0179835490 0 0
-0.0126439550 0.0184885460 0 0
-0.0134867380 0.0184303770 0 0
-0.0141818640 0.0177574780 0 0
-0.0146670320 0.0164827240 0 0
-0.0148916690 0.0146821150 0 0
-0.0148237780 0.0124877610 0 0
-0.0144579860 0.0100760740 0 0
-0.0138229420 0.0076517780 0 0
-0.0129842820 0.0054284410 0 0
-0.0120389440 0.0036065380 0 0
-0.0111003130 0.0023508340 0 0
-0.0102793070 0.0017704800 0 0
-0.0096675350 0.0019056970 0 0
-0.0093254620 0.0027232320 0 0
-0.0092768790 0.0041209540 0 0
-0.0095107480 0.0059413000 0 0
-0.0099888510 0.0079918640 0 0
-0.0106554000 0.0100690750 0 0
-0.0114453110 0.0119804260 0 0
-0.0122891540 0.0135619580 0 0
-0.0131144500 0.0146890110 0 0
-0.0138458890 0.0152801790 0 0
-0.0144082560 0.0152977810 0 0
-0.0147334790 0.0147494280 0 0
-0.0147694140 0.0136918110 0 0
-0.0144872660 0.0122330100 0 0
-0.0138870190 0.0105283000 0 0
-0.0130012920 0.0087673620 0 0
-0.0118961560 0.0071547070 0 0
-0.0106665650 0.0058871790 0 0
-0.0094256590 0.0051321570 0 0
-0.0082892940 0.0050091110 0 0
-0.0073590590 0.0055767860 0 0
-0.0067078500 0.0068276460 0 0
-0.0063717690 0.0086896620 0 0
-0.0063506980 0.0110340240 0 0
-0.0066159040 0.0136871930 0 0
-0.0071198100 0.0164456850 0 0
-0.0078045170 0.0190921670 0 0
-0.0086079400 0.0214128530 0 0
-0.0094669030 0.0232169850 0 0
-0.0103181310 0.0243568470 0 0
-0.0111001820 0.0247442280 0 0
-0.0117586300 0.0243594900 0 0
-0.0122533280 0.0232511170 0 0
-0.0125637320 0.0215262270 0 0
-0.0126895790 0.0193361020 0 0
-0.0126483660 0.0168619360 0 0
-0.0124724050 0.0143028650 0 0
-0.0122054610 0.0118643720 0 0
-0.0118977410 0.0097446280 0 0
-0.0116003120 0.0081181720 0 0
-0.0113603280 0.0071178470 0 0
-0.0112164940 0.0068176390 0 0
-0.0111951140 0.0072215140 0 0
-0.0113087870 0.0082629040 0 0
-0.0115575150 0.0098148230 0 0
-0.0119299150 0.0117063540 0 0
-0.0124039540 0.0137415460 0 0
-0.0129472100 0.0157190160 0 0
-0.0135159670 0.0174511550 0 0
-0.0140547150 0.0187813970 0 0
-0.0144996140 0.0195975970 0 0
-0.0147873550 0.0198394560 0 0
-0.0148676960 0.0194998360 0 0
-0.0147154300 0.0186229330 0 0
-0.0143365940 0.0173021530 0 0
-0.0137660400 0.0156767620 0 0
-0.0130580940 0.0139237500 0 0
-0.0122757400 0.0122422190 0 0
-0.0114838300 0.0108307240 0 0
-0.0107475830 0.0098612610 0 0
-0.0101324960 0.0094555420 0 0
-0.0097004890 0.0096687000 0 0
-0.0095010030 0.0104830230 0 0
-0.0095603690 0.0118114710 0 0
-0.0098734140 0.0135093000 0 0
-0.0104000370 0.0153915070 0 0
-0.0110687400 0.0172535380 0 0
-0.0117864810 0.0188933500 0 0
-0.0124507680 0.0201331780 0 0
-0.0129603590 0.0208382660 0 0
-0.0132245890 0.0209293870 0 0
-0.0131732720 0.0203874390 0 0
-0.0127668420 0.0192506780 0 0
-0.0120037090 0.0176074520 0 0
-0.0109220990 0.0155883480 0 0
-0.0095956440 0.0133594390 0 0
-0.0081242110 0.0111147340 0 0
-0.0066228740 0.0090647830 0 0
-0.0052105360 0.0074197420 0 0
-0.0039977070 0.0063671760 0 0
-0.0030746690 0.0060471440 0 0
-0.0025037180 0.0065295690 0 0
-0.0023174010 0.0078000290 0 0
-0.0025209890 0.0097581580 0 0
-0.0030957300 0.0122280550 0 0
-0.0040003680 0.0149769010 0 0
-0.0051705180 0.0177395940 0 0
-0.0065175270 0.0202488510 0 0
-0.0079303000 0.0222679750 0 0
-0.0092835950 0.0236205490 0 0
-0.0104533840 0.0242121450 0 0
-0.0113361380 0.0240415930 0 0
-0.0118663900 0.0231998810 0 0
-0.0120259560 0.0218548230 0 0
-0.0118414930 0.0202231440 0 0
-0.0113740510 0.0185367270 0 0
-0.0107073720 0.0170112990 0 0
-0.0099371740 0.0158229900 0 0
-0.0091589170 0.0150946620 0 0
-0.0084540380 0.0148916790 0 0
-0.0078794670 0.0152250320 0 0
-0.0074645770 0.0160587840 0 0
-0.0072149670 0.0173187940 0 0
-0.0071195360 0.0189003000 0 0
-0.0071580030 0.0206739190 0 0
-0.0073068190 0.0224924220 0 0
-0.0075411490 0.0242012090 0 0
-0.0078321590 0.0256526020 0 0
-0.0081417820 0.0267209820 0 0
-0.0084185990 0.0273154650 0 0
-0.0085986180 0.0273881980 0 0
-0.0086134360 0.0269375830 0 0
-0.0084040770 0.0260063030 0 0
-0.0079352380 0.0246747460 0 0
-0.0072055210 0.0230513500 0 0
-0.0062515350 0.0212618170 0 0
-0.0051454140 0.0194387230 0 0
-0.0039869500 0.0177122610 0 0
-0.0028914860 0.0162019920 0 0
-0.0019738750 0.0150095860 0 0
-0.0013319550 0.0142130150 0 0
-0.0010357920 0.0138614090 0 0
-0.0011241320 0.0139685890 0 0
-0.0016036750 0.0145052170 0 0
-0.0024482260 0.0153928860 0 0
-0.0035987380 0.0165051930 0 0
-0.0049660610 0.0176792740 0 0
-0.0064382170 0.0187368320 0 0
-0.0078927430 0.0195094990 0 0
-0.0092115430 0.0198628420 0 0
-0.0102948490 0.0197154570 0 0
-0.0110726910 0.0190511940 0 0
-0.0115124030 0.0179229110 0 0
-0.0116201590 0.0164473870 0 0
-0.0114367820 0.0147929070 0 0
-0.0110302860 0.0131615620 0 0
-0.0104866800 0.0117672160 0 0
-0.0098990870 0.0108098820 0 0
-0.0093553790 0.0104491880 0 0
-0.0089257010 0.0107812420 0 0
-0.0086524720 0.0118229680 0 0
-0.0085459710 0.0135077280 0 0
-0.0085874060 0.0156940880 0 0
-0.0087377560 0.0181847390 0 0
-0.0089474600 0.0207495440 0 0
-0.0091628260 0.0231486540 0 0
-0.0093283850 0.0251547590 0 0
-0.0093869870 0.0265745550 0 0
-0.0092806590 0.0272691140 0 0
-0.0089545250 0.0271717600 0 0
-0.0083636560 0.0263002460 0 0
-0.0074810150 0.0247590670 0 0
-0.0063056130 0.0227291630 0 0
-0.0048714630 0.0204456260 0 0
-0.0032546680 0.0181671830 0 0
-0.0015711320 0.0161427890 0 0
0.0000396038 0.0145809460 0 0
0.0014392780 0.0136272540 0 0
0.0025149990 0.0133543320 0 0
0.0031960920 0.0137646500 0 0
0.0034604440 0.0148020810 0 0
0.0033290090 0.0163654420 0 0
0.0028518480 0.0183194240 0 0
0.0020937580 0.0205033470 0 0
0.0011258310 0.0227411190 0 0
0.0000220356 0.0248543480 0 0
-0.0011444190 0.0266771640 0 0
-0.0023070100 0.0280691430 0 0
-0.0034111890 0.0289236650 0 0
-0.0044156660 0.0291722110 0 0
-0.0052893500 0.0287868010 0 0
-0.0060067240 0.0277818960 0 0
-0.0065455350 0.0262156060 0 0
-0.0068885120 0.0241893310 0 0
-0.0070276580 0.0218443160 0 0
-0.0069690990 0.0193536500 0 0
-0.0067369100 0.0169102080 0 0
-0.0063734090 0.0147126140 0 0
-0.0059344500 0.0129502010 0 0
-0.0054824020 0.0117866110 0 0
-0.0050805580 0.0113426860 0 0
-0.0047892700 0.0116807340 0 0
-0.0046616310 0.0127930910 0 0
-0.0047374360 0.0145981400 0 0
-0.0050364280 0.0169458300 0 0
-0.0055535160 0.0196325760 0 0
-0.0062582340 0.0224236890 0 0
-0.0070976770 0.0250802140 0 0
-0.0080002210 0.0273863550 0 0
-0.0088799950 0.0291735960 0 0
-0.0096446690 0.0303381040 0 1
-0.0102067580 0.0308491420 0 1
-0.0104952700 0.0307480840 0 1
-0.0104651610 0.0301394860 0 1
-0.0101038310 0.0291771480 0 0
-0.0094346630 0.0280472140 0 0
-0.0085175480 0.0269479010 0 0
-0.0074447030 0.0260651360 0 0
-0.0063292400 0.0255466910 0 0
-0.0052880100 0.0254809140 0 0
-0.0044252200 0.0258867530 0 0
-0.0038216870 0.0267183770 0 0
-0.0035289120 0.0278819230 0 0
-0.0035655010 0.0292575380 0 0
-0.0039159510 0.0307191670 0 1
-0.0045334460 0.0321468090 0 1
-0.0053469360 0.0334298610 0 1
-0.0062703760 0.0344648150 0 1
-0.0072114630 0.0351540560 0 1
-0.0080787460 0.0354110850 0 1
-0.0087878180 0.0351718170 0 1
-0.0092680770 0.0344071690 0 1
-0.0094701150 0.0331326370 0 1
-0.0093711770 0.0314131900 0 1
-0.0089764940 0.0293626740 0 0
-0.0083178670 0.0271359540 0 0
-0.0074519230 0.0249122190 0 0
-0.0064567320 0.0228709900 0 0
-0.0054232870 0.0211666670 0 0
-0.0044428280 0.0199087810 0 0
-0.0035961390 0.0191523720 0 0
-0.0029483100 0.0188985510 0 0
-0.0025462940 0.0191017130 0 0
-0.0024164910 0.0196793270 0 0
-0.0025631870 0.0205228860 0 0
-0.0029689040 0.0215102630 0 0
-0.0035952860 0.0225180740 0 0
-0.0043831220 0.0234314210 0 0
-0.0052521520 0.0241499300 0 0
-0.0061030250 0.0245916260 0 0
-0.0068244280 0.0246971010 0 0
-0.0073069670 0.0244352730 0 0
-0.0074609880 0.0238100860 0 0
-0.0072325780 0.0228660430 0 0
-0.0066130540 0.0216892130 0 0
-0.0056398370 0.0204006850 0 0
-0.0043890660 0.0191423500 0 0
-0.0029627530 0.0180582290 0 0
-0.0014747780 0.0172755430 0 0
-0.0000393497 0.0168888880 0 0
0.0012373460 0.0169501980 0 0
0.0022641860 0.0174658520 0 0
0.0029723510 0.0183993740 0 0
0.0033224390 0.0196761550 0 0
0.0033098690 0.0211881460 0 0
0.0029664250 0.0228000540 0 0
0.0023563730 0.0243602700 0 0
0.0015678590 0.0257171410 0 0
0.0007022330 0.0267369210 0 0
-0.0001365620 0.0273184520 0 0
-0.0008522780 0.0274022300 0 0
-0.0013662550 0.0269744470 0 0
-0.0016260640 0.0260672520 0 0
-0.0016120200 0.0247557350 0 0
-0.0013401440 0.0231520900 0 0
-0.0008588110 0.0213977190 0 0
-0.0002379390 0.0196533980 0 0
0.0004457170 0.0180867960 0 0
0.0011210260 0.0168569360 0 0
0.0017285480 0.0160961360 0 0
0.0022206430 0.0158914060 0 0
0.0025596260 0.0162693690 0 0
0.0027176150 0.0171896960 0 0
0.0026784460 0.0185496980 0 0
0.0024399780 0.0201984220 0 0
0.0020156490 0.0219563860 0 0
0.0014349600 0.0236377700 0 0
0.0007422210 0.0250727450 0 0
-0.0000074250 0.0261271640 0 0
-0.0007538340 0.0267163820 0 0
-0.0014370300 0.0268108940 0 0
-0.0020012820 0.0264338050 0 0
-0.0024000470 0.0256531840 0 0
-0.0026020230 0.0245731790 0 0
-0.0025958410 0.0233246640 0 0
-0.0023913560 0.0220534120 0 0
-0.0020179040 0.0209055610 0 0
-0.0015212040 0.0200137780 0 0
-0.0009601350 0.0194870720 0 0
-0.0004037650 0.0194036990 0 0
0.0000716178 0.0198054880 0 0
0.0003869410 0.0206935530 0 0
0.0004685250 0.0220257470 0 0
0.0002601760 0.0237162690 0 0
-0.0002641720 0.0256394120 0 0
-0.0010915170 0.0276395140 0 0
-0.0021671220 0.0295458160 0 0
-0.0033986180 0.0311888390 0 1
-0.0046662500 0.0324166490 0 1
-0.0058386130 0.0331107610 0 1
-0.0067915830 0.0331997500 0 1
-0.0074256080 0.0326669540 0 1
-0.0076774050 0.0315504160 0 1
-0.0075251300 0.0299360980 0 0
-0.0069866280 0.0279464790 0 0
-0.0061110730 0.0257263410 0 0
-0.0049683420 0.0234276160 0 0
-0.0036425040 0.0211954930 0 0
-0.0022303400 0.0191576950 0 0
-0.0008391830 0.0174175550 0 0
0.0004208960 0.0160501460 0 0
0.0014498320 0.0151002920 0 0
0.0021707980 0.0145817740 0 0
0.0025395890 0.0144774270 0 0
0.0025484290 0.0147402490 0 0
0.0022250050 0.0152957690 0 0
0.0016281020 0.0160463010 0 0
0.0008409660 0.0168780340 0 0
-0.0000368754 0.0176713710 0 0
-0.0008998680 0.0183139640 0 0
-0.0016490380 0.0187149650 0 0
-0.0022049310 0.0188182910 0 0
-0.0025174010 0.0186127580 0 0
-0.0025691690 0.0181372480 0 0
-0.0023727050 0.0174793680 0 0
-0.0019638300 0.0167666340 0 0
-0.0013960790 0.0161505440 0 0
-0.0007368550 0.0157855660 0 0
-0.0000636091 0.0158066780 0 0
0.0005416070 0.0163100330 0 0
0.0009992150 0.0173402960 0 0
0.0012406870 0.0188852440 0 0
0.0012189310 0.0208762120 0 0
0.0009181850 0.0231936990 0 0
0.0003580360 0.0256780030 0 0
-0.0004115630 0.0281439470 0 0
-0.0013210880 0.0303983610 0 1
-0.0022919340 0.0322591250 0 1
-0.0032436200 0.0335740270 0 1
-0.0040994230 0.0342370260 0 1
-0.0047931710 0.0341998540 0 1
-0.0052770740 0.0334773180 0 1
-0.0055273100 0.0321455580 0 1
-0.0055446370 0.0303340960 0 1
-0.0053506290 0.0282131090 0 0
-0.0049824610 0.0259768890 0 0
-0.0044882820 0.0238246390 0 0
-0.0039236550 0.0219408840 0 0
-0.0033491240 0.0204783130 0 0
-0.0028284440 0.0195450160 0 0
-0.0024257830 0.0191960620 0 0
-0.0021999150 0.0194288200 0 0
-0.0021952260 0.0201831450 0 0
-0.0024325100 0.0213482010 0 0
-0.0029038250 0.0227758150 0 0
-0.0035728620 0.0242984040 0 0
-0.0043793640 0.0257485900 0 0
-0.0052471070 0.0269764660 0 0
-0.0060953130 0.0278607330 0 0
-0.0068498630 0.0283125810 0 0
-0.0074495350 0.0282742240 0 0
-0.0078475560 0.0277162600 0 0
-0.0080124230 0.0266385730 0 0
-0.0079292060 0.0250769220 0 0
-0.0076001630 0.0231129400 0 0
-0.0070443660 0.0208822300 0 0
-0.0062963080 0.0185748810 0 0
-0.0054033730 0.0164238240 0 0
-0.0044231430 0.0146790170 0 0
-0.0034209040 0.0135703020 0 0
-0.0024653970 0.0132668950 0 0
-0.0016215290 0.0138434540 0 0
-0.0009416960 0.0152614840 0 0
-0.0004580850 0.0173712780 0 0
-0.0001777180 0.0199337870 0 0
-0.0000826192 0.0226565520 0 0
-0.0001357940 0.0252355990 0 0
-0.0002896940 0.0273953460 0 0
-0.0004930300 0.0289205850 0 0
-0.0006954550 0.0296775760 0 0
-0.0008526020 0.0296228220 0 0
-0.0009322510 0.0287989850 0 0
-0.0009181750 0.0273203480 0 0
-0.0008080210 0.0253534110 0 0
-0.0006068580 0.0230978960 0 0
-0.0003223570 0.0207700760 0 0
0.0000348708 0.0185875110 0 0
0.0004482440 0.0167533840 0 0
0.0008941180 0.0154393410 0 0
0.0013439220 0.0147679840 0 0
0.0017669870 0.0147987480 0 0
0.0021318010 0.0155210970 0 0
0.0024065590 0.0168568910 0 0
0.0025617990 0.0186710550 0 0
0.0025761140 0.0207881700 0 0
0.0024432900 0.0230120960 0 0
0.0021777790 0.0251454490 0 0
0.0018147950 0.0270066120 0 0
0.0014038170 0.0284436750 0 0
0.0009994000 0.0293452860 0 0
0.0006536340 0.0296477600 0 0
0.0004099380 0.0293379100 0 0
0.0002964300 0.0284520930 0 0
0.0003202070 0.0270721450 0 0
0.0004654960 0.0253188130 0 0
0.0006973170 0.0233432040 0 0
0.0009700920 0.0213162350 0 0
0.0012380120 0.0194158850 0 0
0.0014629430 0.0178127130 0 0
0.0016176700 0.0166547400 0 0
0.0016852820 0.0160534150 0 0
0.0016567710 0.0160727470 0 0
0.0015285410 0.0167225680 0 0
0.0013010650 0.0179552280 0 0
0.0009792160 0.0196654320 0 0
0.0005731730 0.0216950000 0 0
0.0000985402 0.0238451660 0 0
-0.0004239010 0.0258975010 0 0
-0.0009675040 0.0276412640 0 0
-0.0014990420 0.0289013120 0 0
-0.0019811390 0.0295596380 0 0
-0.0023787420 0.0295670240 0 0
-0.0026657510 0.0289453520 0 0
-0.0028275160 0.0277818510 0 0
-0.0028595940 0.0262159300 0 0
-0.0027665160 0.0244203170 0 0
-0.0025626890 0.0225798720 0 0
-0.0022735950 0.0208718710 0 0
-0.0019339550 0.0194503140 0 0
-0.0015820980 0.0184345110 0 0
-0.0012535240 0.0179000190 0 0
-0.0009776810 0.0178697600 0 0
-0.0007785820 0.0183065260 0 0
-0.0006759280 0.0191121240 0 0
-0.0006838250 0.0201377160 0 0
-0.0008065380 0.0212049820 0 0
-0.0010328680 0.0221332360 0 0
-0.0013335390 0.0227660010 0 0
-0.0016659590 0.0229915470 0 0
-0.0019848110 0.0227543350 0 0
-0.0022517100 0.0220567620 0 0
-0.0024394380 0.0209522110 0 0
-0.0025318140 0.0195320880 0 0
-0.0025226850 0.0179112680 0 0
-0.0024168190 0.0162162930 0 0
-0.0022325240 0.0145777640 0 0
-0.0020027400 0.0131248400 0 0
-0.0017723280 0.0119791640 0 0
-0.0015924520 0.0112478080 0 0
-0.0015133920 0.0110165250 0 0
-0.0015768930 0.0113433150 0 0
-0.0018100350 0.0122505650 0 0
-0.0022217920 0.0137155170 0 0
-0.0028015360 0.0156631870 0 0
-0.0035187980 0.0179673390 0 0
-0.0043251820 0.0204616360 0 0
-0.0051591390 0.0229583780 0 0
-0.0059521160 0.0252697300 0 0
-0.0066335660 0.0272266250 0 0
-0.0071343860 0.0286926660 0 0
-0.0073916840 0.0295728370 0 0
-0.0073578260 0.0298181280 0 0
-0.0070110550 0.0294273440 0 0
-0.0063612260 0.0284469400 0 0
-0.0054483480 0.0269693310 0 0
-0.0043369280 0.0251296920 0 0
-0.0031089420 0.0231002860 0 0
-0.0018559950 0.0210796720 0 0
-0.0006711400 0.0192745650 0 0
0.0003585750 0.0178762090 0 0
0.0011588240 0.0170366160 0 0
0.0016752780 0.0168491340 0 0
0.0018806980 0.0173350930 0 0
0.0017781260 0.0184380470 0 0
0.0013977080 0.0200282500 0 0
0.0007889570 0.0219182930 0 0
0.0000122932 0.0238869010 0 0
-0.0008672220 0.0257061340 0 0
-0.0017826680 0.0271683840 0 0
-0.0026652050 0.0281105770 0 0
-0.0034436360 0.0284327430 0 0
-0.0040468550 0.0281075860 0 0
-0.0044108100 0.0271789520 0 0
-0.0044887540 0.0257501770 0 0
-0.0042620940 0.0239666130 0 0
-0.0037489080 0.0219978110 0 0
-0.0030062250 0.0200231250 0 0
-0.0021227370 0.0182205800 0 0
-0.0012040210 0.0167554760 0 0
-0.0003570530 0.0157654130 0 0
0.0003222470 0.0153424400 0 0
0.0007595410 0.0155166660 0 0
0.0009106890 0.0162468690 0 0
0.0007659630 0.0174222960 0 0
0.0003489840 0.0188769650 0 0
-0.0002886590 0.0204145230 0 0
-0.0010765170 0.0218388280 0 0
-0.0019361390 0.0229824350 0 0
-0.0027894410 0.0237250510 0 0
-0.0035625370 0.0239992590 0 0
-0.0041879100 0.0237874730 0 0
-0.0046086490 0.0231166410 0 0
-0.0047849870 0.0220546240 0 0
-0.0047004980 0.0207075740 0 0
-0.0043650820 0.0192152230 0 0
-0.0038130320 0.0177419290 0 0
-0.0030963340 0.0164633680 0 0
-0.0022755020 0.0155495790 0 0
-0.0014118860 0.0151451080 0 0
-0.0005640100 0.0153491410 0 0
0.0002129990 0.0162010910 0 0
0.0008675890 0.0176756530 0 0
0.0013530560 0.0196868290 0 0
0.0016295240 0.0220980280 0 0
0.0016658850 0.0247362190 0 0
0.0014426330 0.0274088060 0 0
0.0009574190 0.0299213770 0 0
0.0002328330 0.0320947490 0 1
-0.0006773390 0.0337807180 0 1
-0.0016881990 0.0348752900 0 1
-0.0026924690 0.0353268010 0 1
-0.0035756770 0.0351369670 0 1
-0.0042333550 0.0343552110 0 1
-0.0045871700 0.0330690290 0 1
-0.0045981280 0.0313944210 0 1
-0.0042743240 0.0294693760 0 0
-0.0036710750 0.0274498800 0 0
-0.0028834830 0.0255043900 0 0
-0.0020328410 0.0238028000 0 0
-0.0012483120 0.0224997580 0 0
-0.0006467960 0.0217159870 0 0
-0.0003153110 0.0215221700 0 0
-0.0002981520 0.0219280980 0 0
-0.0005896680 0.0228779720 0 0
-0.0011354090 0.0242529710 0 0
-0.0018438470 0.0258826520 0 0
-0.0026062110 0.0275648740 0 0
-0.0033180320 0.0290901440 0 0
-0.0038951700 0.0302642420 0 1
-0.0042801160 0.0309260620 0 1
-0.0044410070 0.0309625490 0 1
-0.0043691430 0.0303230740 0 1
-0.0040769400 0.0290315850 0 0
-0.0035937850 0.0271917550 0 0
-0.0029587090 0.0249807250 0 0
-0.0022134010 0.0226302260 0 0
-0.0014006720 0.0203973280 0 0
-0.0005685560 0.0185296420 0 0
0.0002265910 0.0172315140 0 0
0.0009236060 0.0166380390 0 0
0.0014638450 0.0168011580 0 0
0.0017965760 0.0176885040 0 0
0.0018824540 0.0191936500 0 0
0.0016988330 0.0211549070 0 0
0.0012473340 0.0233778100 0 0
0.0005600720 0.0256562990 0 0
-0.0002997540 0.0277899340 0 0
-0.0012449980 0.0295972000 0 0
-0.0021771880 0.0309264780 0 1
-0.0029996090 0.0316661810 0 1
-0.0036273260 0.0317542410 0 1
-0.0039937320 0.0311856670 0 1
-0.0040553430 0.0300164830 0 1
-0.0037967760 0.0283621320 0 0
-0.0032355720 0.0263881420 0 0
-0.0024242670 0.0242919550 0 0
-0.0014469710 0.0222781010 0 0
-0.0004095790 0.0205319270 0 0
0.0005748660 0.0191975890 0 0
0.0014023640 0.0183640350 0 0
0.0019918520 0.0180597840 0 0
0.0022937420 0.0182545950 0 0
0.0022923050 0.0188655040 0 0
0.0020033760 0.0197662730 0 0
0.0014697530 0.0208009850 0 0
0.0007557320 0.0218022120 0 0
-0.0000589114 0.0226115980 0 0
-0.0008857090 0.0230994030 0 0
-0.0016356360 0.0231805940 0 0
-0.0022292580 0.0228256490 0 0
-0.0026084340 0.0220637270 0 0
-0.0027457110 0.0209767520 0 0
-0.0026458280 0.0196853460 0 0
-0.0023383160 0.0183302960 0 0
-0.0018660410 0.0170550350 0 0
-0.0012757510 0.0159930880 0 0
-0.0006147020 0.0152600270 0 0
0.0000670742 0.0149468390 0 0
0.0007140940 0.0151136070 0 0
0.0012667730 0.0157852890 0 0
0.0016661060 0.0169506130 0 0
0.0018588060 0.0185625420 0 0
0.0018027180 0.0205390780 0 0
0.0014740920 0.0227654340 0 0
0.0008755530 0.0250992040 0 0
0.0000409618 0.0273791730 0 0
-0.0009650250 0.0294374600 0 0
-0.0020527030 0.0311138540 0 1
-0.0031185080 0.0322707030 0 1
-0.0040599220 0.0328070130 0 1
-0.0047892760 0.0326708610 0 1
-0.0052427130 0.0318685620 0 1
-0.0053844930 0.0304677340 0 1
-0.0052084060 0.0285916020 0 0
-0.0047364670 0.0264045650 0 0
-0.0040137970 0.0240923840 0 0
-0.0031010320 0.0218422600 0 0
-0.0020686130 0.0198268840 0 0
-0.0009950860 0.0181926830 0 0
0.0000340956 0.0170497680 0 0
0.0009321180 0.0164617510 0 0
0.0016208940 0.0164370610 0 0
0.0020414630 0.0169263970 0 0
0.0021611000 0.0178302350 0 0
0.0019758300 0.0190153510 0 0
0.0015076800 0.0203341090 0 0
0.0007980370 0.0216400900 0 0
-0.0000989703 0.0227982270 0 0
-0.0011212070 0.0236918140 0 0
-0.0022029860 0.0242290710 0 0
-0.0032795340 0.0243499750 0 0
-0.0042893880 0.0240332220 0 0
-0.0051746410 0.0233032420 0 0
-0.0058823130 0.0222359640 0 0
-0.0063690430 0.0209597940 0 0
-0.0066074490 0.0196476760 0 0
-0.0065913700 0.0184984650 0 0
-0.0063388430 0.0177096720 0 0
-0.0058922510 0.0174475980 0 0
-0.0053149860 0.0178224240 0 0
-0.0046849190 0.0188732520 0 0
-0.0040857330 0.0205639160 0 0
-0.0035972900 0.0227882610 0 0
-0.0032864080 0.0253834130 0 0
-0.0031995050 0.0281490240 0 0
-0.0033583100 0.0308695550 0 1
-0.0037587740 0.0333359100 0 1
-0.0043717160 0.0353633840 0 1
-0.0051442170 0.0368049570 0 1
-0.0060027500 0.0375610230 0 1
-0.0068596820 0.0375866280 0 1
-0.0076231780 0.0368958610 0 1
-0.0082085590 0.0355622520 0 1
-0.0085487230 0.0337139340 0 1
-0.0086021310 0.0315226370 0 1
-0.0083570270 0.0291865890 0 0
-0.0078310690 0.0269088880 0 0
-0.0070676330 0.0248743450 0 0
-0.0061316440 0.0232288640 0 0
-0.0051060790 0.0220652810 0 0
-0.0040863560 0.0214173250 0 0
-0.0031692010 0.0212606810 0 0
-0.0024375710 0.0215194750 0 0
-0.0019472460 0.0220771430 0 0
-0.0017192150 0.0227909610 0 0
-0.0017384580 0.0235088850 0 0
-0.0019584020 0.0240865570 0 0
-0.0023102860 0.0244024130 0 0
-0.0027152860 0.0243697620 0 0
-0.0030962450 0.0239453920 0 0
-0.0033867020 0.0231344690 0 0
-0.0035363600 0.0219907710 0 0
-0.0035128830 0.0206111900 0 0
-0.0033006970 0.0191250950 0 0
-0.0028986930 0.0176804860 0 0
-0.0023195120 0.0164286880 0 0
-0.0015913860 0.0155085830 0 0
-0.0007600150 0.0150313300 0 0
0.0001134510 0.0150673560 0 0
0.0009594730 0.0156384070 0 0
0.0017096200 0.0167164050 0 0
0.0023048750 0.0182280450 0 0
0.0027002310 0.0200630050 0 0
0.0028654620 0.0220849080 0 0
0.0027851960 0.0241445180 0 0
0.0024616910 0.0260929660 0 0
0.0019191020 0.0277924700 0 0
0.0012045370 0.0291244910 0 0
0.0003838320 0.0299975470 0 0
-0.0004658830 0.0303558770 0 1
-0.0012647100 0.0301875350 0 1
-0.0019393290 0.0295291640 0 0
-0.0024320350 0.0284654640 0 0
-0.0027070610 0.0271228970 0 0
-0.0027538610 0.0256578090 0 0
-0.0025894790 0.0242394290 0 0
-0.0022604380 0.0230298770 0 0
-0.0018410670 0.0221649820 0 0
-0.0014249740 0.0217390010 0 0
-0.0011103850 0.0217944120 0 0
-0.0009836550 0.0223175260 0 0
-0.0011051720 0.0232409720 0 0
-0.0014998330 0.0244532140 0 0
-0.0021529530 0.0258136170 0 0
-0.0030126820 0.0271706790 0 0
-0.0039992290 0.0283797420 0 0
-0.0050187600 0.0293159160 0 0
-0.0059777750 0.0298806430 0 0
-0.0067943540 0.0300044250 0 1
-0.0074051890 0.0296497610 0 0
-0.0077695280 0.0288162830 0 0
-0.0078714160 0.0275467920 0 0
-0.0077203730 0.0259302570 0 0
-0.0073488030 0.0240977200 0 0
-0.0068040840 0.0222101810 0 0
-0.0061374890 0.0204409210 0 0
-0.0053969430 0.0189555400 0 0
-0.0046273310 0.0178925650 0 0
-0.0038735270 0.0173473500 0 0
-0.0031802700 0.0173621080 0 0
-0.0025900970 0.0179246070 0 0
-0.0021426100 0.0189759730 0 0
-0.0018729590 0.0204241380 0 0
-0.0018061620 0.0221569770 0 0
-0.0019498690 0.0240510790 0 0
-0.0022909340 0.0259763480 0 0
-0.0027972900 0.0277992520 0 0
-0.0034229410 0.0293874820 0 0
-0.0041129160 0.0306176900 0 1
-0.0048056940 0.0313865920 0 1
-0.0054337580 0.0316238980 0 1
-0.0059267980 0.0313041640 0 1
-0.0062209180 0.0304546470 0 1
-0.0062712310 0.0291568610 0 0
-0.0060622960 0.0275407680 0 0
-0.0056128780 0.0257721710 0 0
-0.0049737680 0.0240349410 0 0
-0.0042192030 0.0225101000 0 0
-0.0034352220 0.0213544360 0 0
-0.0027090620 0.0206820860 0 0
-0.0021208160 0.0205517440 0 0
-0.0017357610 0.0209602790 0 0
-0.0015965510 0.0218426190 0 0
-0.0017173950 0.0230780120 0 0
-0.0020835340 0.0245028080 0 0
-0.0026566230 0.0259293840 0 0
-0.0033825070 0.0271691460 0 0
-0.0041974630 0.0280553080 0 0
-0.0050328780 0.0284609980 0 0
-0.0058202130 0.0283105790 0 0
-0.0064967100 0.0275847450 0 0
-0.0070114420 0.0263206460 0 0
-0.0073308990 0.0246074390 0 0
-0.0074424290 0.0225771640 0 0
-0.0073551100 0.0203919830 0 0
-0.0070991650 0.0182305840 0 0
-0.0067238610 0.0162765420 0 0
-0.0062922090 0.0147086490 0 0
-0.0058725950 0.0136900480 0 0
-0.0055301760 0.0133531530 0 0
-0.0053202860 0.0137812200 0 0
-0.0052832330 0.0149915070 0 0
-0.0054392130 0.0169257230 0 0
-0.0057844890 0.0194509330 0 0
-0.0062919930 0.0223712450 0 0
-0.0069170980 0.0254488870 0 0
-0.0076046740 0.0284312980 0 0
-0.0082930960 0.0310790000 0 1
-0.0089157820 0.0331899940 0 1
-0.0094042590 0.0346191010 0 1
-0.0096952490 0.0352913360 0 1
-0.0097411170 0.0352079050 0 1
-0.0095204890 0.0344435280 0 1
-0.0090444690 0.0331351920 0 1
-0.0083551280 0.0314645930 0 1
-0.0075167170 0.0296377810 0 0
-0.0066032100 0.0278647470 0 0
-0.0056862690 0.0263401760 0 0
-0.0048267900 0.0252260380 0 0
-0.0040716320 0.0246370460 0 0
-0.0034546940 0.0246303290 0 0
-0.0029999690 0.0252001510 0 0
-0.0027243390 0.0262775230 0 0
-0.0026378770 0.0277347650 0 0
-0.0027404320 0.0293957590 0 0
-0.0030166520 0.0310518620 0 1
-0.0034336400 0.0324817780 0 1
-0.0039430650 0.0334732380 0 1
-0.0044862280 0.0338446040 0 1
-0.0049998990 0.0334645020 0 1
-0.0054223540 0.0322679410 0 1
-0.0057002690 0.0302680210 0 1
-0.0057963510 0.0275620330 0 0
-0.0056952820 0.0243292820 0 0
-0.0054053420 0.0208179050 0 0
-0.0049558810 0.0173202370 0 0
-0.0043920200 0.0141389320 0 0
-0.0037669960 0.0115487050 0 0
-0.0031338390 0.0097613140 0 0
-0.0025398880 0.0089018350 0 0
-0.0020252460 0.0090009060 0 0
-0.0016222690 0.0100021710 0 0
-0.0013529150 0.0117795580 0 0
-0.0012245340 0.0141576130 0 0
-0.0012276960 0.0169302410 0 0
-0.0013380820 0.0198767410 0 0
-0.0015207430 0.0227762230 0 0
-0.0017344960 0.0254219280 0 0
-0.0019360870 0.0276364160 0 0
-0.0020843940 0.0292869930 0 0
-0.0021443700 0.0302983870 0 1
-0.0020899600 0.0306584380 0 1
-0.0019051470 0.0304151210 0 1
-0.0015836260 0.0296670850 0 0
-0.0011293560 0.0285508140 0 0
-0.0005589960 0.0272259360 0 0
0.0000960874 0.0258595960 0 0
0.0007914760 0.0246107040 0 0
0.0014753560 0.0236149560 0 0
0.0020954440 0.0229726250 0 0
0.0026040100 0.0227414680 0 0
0.0029604390 0.0229347490 0 0
0.0031338750 0.0235222140 0 0
0.0031080710 0.0244331810 0 0
0.0028869690 0.0255630340 0 0
0.0024971120 0.0267840470 0 0
0.0019837540 0.0279596090 0 0
0.0014010370 0.0289594400 0 0
0.0008002770 0.0296730410 0 0
0.0002214910 0.0300194660 0 1
-0.0003087720 0.0299529720 0 0
-0.0007738220 0.0294653000 0 0
-0.0011614090 0.0285856500 0 0
-0.0014612020 0.0273779080 0 0
-0.0016661550 0.0259336700 0 0
-0.0017737160 0.0243622280 0 0
-0.0017841520 0.0227819870 0 0
-0.0016989390 0.0213160800 0 0
-0.0015223310 0.0200895600 0 0
-0.0012640110 0.0192235840 0 0
-0.0009395830 0.0188240530 0 0
-0.0005698160 0.0189652050 0 0
-0.0001811850 0.0196724030 0 0
0.0001931210 0.0209105330 0 0
0.0005147330 0.0225819460 0 0
0.0007452460 0.0245338080 0 0
0.0008538290 0.0265733270 0 0
0.0008251520 0.0284888990 0 0
0.0006650400 0.0300738580 0 1
0.0004024040 0.0311491530 0 1
0.0000874481 0.0315829230 0 1
-0.0002142220 0.0313065390 0 1
-0.0004325870 0.0303259450 0 1
-0.0005079610 0.0287256510 0 0
-0.0004046580 0.0266628540 0 0
-0.0001185740 0.0243509150 0 0
0.0003220380 0.0220342490 0 0
0.0008600980 0.0199592030 0 0
0.0014166570 0.0183458890 0 0
0.0019023740 0.0173644260 0 0
0.0022324530 0.0171179110 0 0
0.0023413150 0.0176334310 0 0
0.0021934300 0.0188613090 0 0
0.0017879070 0.0206820370 0 0
0.0011560920 0.0229201530 0 0
0.0003537260 0.0253632480 0 0
-0.0005488710 0.0277831070 0 0
-0.0014756020 0.0299561100 0 0
-0.0023518710 0.0316811590 0 1
-0.0031115010 0.0327949680 0 1
-0.0037036980 0.0331853720 0 1
-0.0040986970 0.0328028670 0 1
-0.0042903620 0.0316687810 0 1
-0.0042958100 0.0298764810 0 0
-0.0041528860 0.0275823510 0 0
-0.0039144700 0.0249872660 0 0
-0.0036385990 0.0223139520 0 0
-0.0033772810 0.0197865100 0 0
-0.0031691590 0.0176144430 0 0
-0.0030378190 0.0159792950 0 0
-0.0029940000 0.0150213520 0 0
-0.0030398370 0.0148254170 0 0
-0.0031735060 0.0154069610 0 0
-0.0033920130 0.0167033900 0 0
-0.0036905390 0.0185764900 0 0
-0.0040590400 0.0208283080 0 0
-0.0044785250 0.0232271760 0 0
-0.0049193290 0.0255378020 0 0
-0.0053421420 0.0275498640 0 0
-0.0057012750 0.0291009690 0 0
-0.0059495580 0.0300910270 0 1
-0.0060448870 0.0304869680 0 1
-0.0059581320 0.0303193580 0 1
-0.0056806200 0.0296736900 0 0
-0.0052282780 0.0286780900 0 0
-0.0046406990 0.0274878260 0 0
-0.0039747400 0.0262672280 0 0
-0.0032931620 0.0251708930 0 0
-0.0026518420 0.0243271270 0 0
-0.0020912910 0.0238263370 0 0
-0.0016351260 0.0237154900 0 0
-0.0012934910 0.0239974050 0 0
-0.0010680450 0.0246328970 0 0
-0.0009558210 0.0255448270 0 0
-0.0009501280 0.0266243230 0 0
-0.0010383770 0.0277397000 0 0
-0.0011993180 0.0287482770 0 0
-0.0014025170 0.0295101870 0 0
-0.0016108630 0.0299022930 0 0
-0.0017856210 0.0298300330 0 0
-0.0018929000 0.0292358620 0 0
-0.0019094070 0.0281048260 0 0
-0.0018261060 0.0264679270 0 0
-0.0016495150 0.0244019170 0 0
-0.0013998160 0.0220242620 0 0
-0.0011058660 0.0194848980 0 0
-0.0008000640 0.0169573590 0 0
-0.0005157630 0.0146293340 0 0
-0.0002866310 0.0126902790 0 0
-0.0001457170 0.0113137830 0 0
-0.0001226780 0.0106351340 0 0
-0.0002387560 0.0107280730 0 0
-0.0005016530 0.0115866530 0 0
-0.0009044140 0.0131179000 0 0
-0.0014285110 0.0151490490 0 0
-0.0020466160 0.0174493720 0 0
-0.0027223630 0.0197626360 0 0
-0.0034090470 0.0218437170 0 0
-0.0040503350 0.0234921310 0 0
-0.0045845110 0.0245760810 0 0
-0.0049519270 0.0250428980 0 0
-0.0051042910 0.0249152160 0 0
-0.0050137650 0.0242764500 0 0
-0.0046791960 0.0232515930 0 0
-0.0041278230 0.0219884840 0 0
-0.0034131630 0.0206420270 0 0
-0.0026103960 0.0193615330 0 0
-0.0018090040 0.0182804680 0 0
-0.0011017280 0.0175080460 0 0
-0.0005706480 0.0171224890 0 0
-0.0002739210 0.0171661570 0 0
-0.0002380590 0.0176425180 0 0
-0.0004583550 0.0185150300 0 0
-0.0009047790 0.0197089640 0 0
-0.0015280160 0.0211174330 0 0
-0.0022634900 0.0226109910 0 0
-0.0030349630 0.0240486680 0 0
-0.0037595780 0.0252889580 0 0
-0.0043548830 0.0262000840 0 0
-0.0047474570 0.0266686350 0 0
-0.0048821480 0.0266067730 0 0
-0.0047298600 0.0259603420 0 0
-0.0042920020 0.0247197910 0 0
-0.0036012940 0.0229320470 0 0
-0.0027190380 0.0207082460 0 0
-0.0017286330 0.0182219720 0 0
-0.0007256990 0.0156954740 0 0
0.0001940040 0.0133753540 0 0
0.0009465320 0.0115023420 0 0
0.0014688550 0.0102807930 0 0
0.0017244150 0.0098530720 0 0
0.0017060340 0.0102823760 0 0
0.0014354790 0.0115456280 0 0
0.0009584520 0.0135368510 0 0
0.0003361730 0.0160801480 0 0
-0.0003629640 0.0189502170 0 0
-0.0010681050 0.0218975690 0 0
-0.0017066690 0.0246751170 0 0
-0.0022053670 0.0270628900 0 0
-0.0024954370 0.0288884700 0 0
-0.0025211360 0.0300420380 0 1
-0.0022482580 0.0304855380 0 1
-0.0016711920 0.0302547330 0 1
-0.0008178850 0.0294522740 0 0
0.0002495730 0.0282313540 0 0
0.0014413690 0.0267728770 0 0
0.0026527310 0.0252616960 0 0
0.0037787290 0.0238671040 0 0
0.0047269490 0.0227288130 0 0
0.0054266180 0.0219461670 0 0
0.0058339970 0.0215692780 0 0
0.0059337360 0.0215944010 0 0
0.0057365820 0.0219668840 0 0
0.0052753180 0.0225922180 0 0
0.0046015180 0.0233521970 0 0
0.0037836380 0.0241218170 0 0
0.0029042650 0.0247828580 0 0
0.0020543970 0.0252314590 0 0
0.0013248960 0.0253797790 0 0
0.0007973540 0.0251551490 0 0
0.0005366120 0.0245016670 0 0
0.0005854260 0.0233878420 0 0
0.0009609200 0.0218198590 0 0
0.0016522060 0.0198551050 0 0
0.0026188270 0.0176086580 0 0
0.0037920860 0.0152483920 0 0
0.0050815460 0.0129794270 0 0
0.0063847430 0.0110214650 0 0
0.0075963420 0.0095828600 0 0
0.0086157760 0.0088349550 0 0
0.0093545450 0.0088901620 0 0
0.0097444400 0.0097867230 0 0
0.0097465160 0.0114815030 0 0
0.0093583710 0.0138515790 0 0
0.0086167290 0.0167054760 0 0
0.0075936420 0.0198033920 0 0
0.0063870930 0.0228828680 0 0
0.0051088650 0.0256855470 0 0
0.0038720070 0.0279823460 0 0
0.0027789980 0.0295958680 0 0
0.0019125370 0.0304186370 0 1
0.0013311950 0.0304249110 0 1
0.0010696440 0.0296739470 0 0
0.0011400080 0.0283030440 0 0
0.0015307810 0.0265100500 0 0
0.0022034390 0.0245275000 0 0
0.0030904900 0.0225927220 0 0
0.0040985270 0.0209190940 0 0
0.0051163110 0.0196735300 0 0
0.0060252190 0.0189634800 0 0
0.0067104250 0.0188334230 0 0
0.0070734450 0.0192675840 0 0
0.0070460320 0.0201948640 0 0
0.0066026420 0.0214947450 0 0
0.0057671700 0.0230060350 0 0
0.0046107300 0.0245409370 0 0
0.0032401010 0.0259055530 0 0
0.0017803010 0.0269250090 0 0
0.0003573000 0.0274674500 0 0
-0.0009145340 0.0274599470 0 0
-0.0019401000 0.0268930090 0 0
-0.0026492350 0.0258156140 0 0
-0.0030025440 0.0243253270 0 0
-0.0029961740 0.0225564380 0 0
-0.0026620080 0.0206659790 0 0
-0.0020616830 0.0188178280 0 0
-0.0012763200 0.0171678270 0 0
-0.0003950560 0.0158528320 0 0
0.0004950090 0.0149835530 0 0
0.0013156240 0.0146389370 0 0
0.0019995530 0.0148603520 0 0
0.0024891780 0.0156460080 0 0
0.0027366500 0.0169476460 0 0
0.0027097990 0.0186711620 0 0
0.0024013140 0.0206820300 0 0
0.0018346840 0.0228160180 0 0
0.0010632970 0.0248944610 0 0
0.0001642890 0.0267414230 0 0
-0.0007691010 0.0281998390 0 0
-0.0016351860 0.0291454110 0 0
-0.0023329050 0.0294984950 0 0
-0.0027728460 0.0292344560 0 0
-0.0028877290 0.0283920510 0 0
-0.0026398530 0.0270771660 0 0
-0.0020255270 0.0254572080 0 0
-0.0010768840 0.0237430220 0 0
0.0001399800 0.0221605220 0 0
0.0015320640 0.0209190450 0 0
0.0029915820 0.0201842890 0 0
0.0044097820 0.0200608370 0 0
0.0056880750 0.0205849190 0 0
0.0067450470 0.0217244540 0 0
0.0075210960 0.0233824890 0 0
0.0079824110 0.0254029090 0 0
0.0081242130 0.0275811980 0 0
0.0079722590 0.0296837890 0 0
0.0075818240 0.0314757640 0 1
0.0070332110 0.0327518910 0 1
0.0064224620 0.0333643830 0 1
0.0058478060 0.0332421780 0 1
0.0053955340 0.0323983920 0 1
0.0051292200 0.0309248870 0 1
0.0050833570 0.0289762330 0 0
0.0052610690 0.0267478190 0 0
0.0056362390 0.0244526710 0 0
0.0061595240 0.0222996180 0 0
0.0067655240 0.0204739800 0 0
0.0073786640 0.0191219930 0 0
0.0079184750 0.0183400510 0 0
0.0083065910 0.0181687540 0 0
0.0084759220 0.0185915700 0 0
0.0083796390 0.0195386740 0 0
0.0079970160 0.0208961640 0 0
0.0073348760 0.0225200610 0 0
0.0064251110 0.0242535500 0 0
0.0053196770 0.0259439500 0 0
0.0040846430 0.0274550710 0 0
0.0027945330 0.0286731280 0 0
0.0015269490 0.0295086470 0 0
0.0003566730 0.0298985680 0 0
-0.0006502880 0.0298107970 0 0
-0.0014406920 0.0292507310 0 0
-0.0019754240 0.0282676780 0 0
-0.0022302670 0.0269578500 0 0
-0.0021986730 0.0254603430 0 0
-0.0018966730 0.0239443000 0 0
-0.0013667460 0.0225885180 0 0
-0.0006766150 0.0215575860 0 0
0.0000888986 0.0209798630 0 0
0.0008410230 0.0209313440 0 0
0.0015003560 0.0214268760 0 0
0.0020067750 0.0224182750 0 0
0.0023258420 0.0237985990 0 0
0.0024523850 0.0254128320 0 0
0.0024103700 0.0270756500 0 0
0.0022476950 0.0285954860 0 0
0.0020262880 0.0298011120 0 0
0.0018107560 0.0305646780 0 1
0.0016599830 0.0308158970 0 1
0.0016232910 0.0305455650 0 1
0.0017385090 0.0298001830 0 0
0.0020278190 0.0286710940 0 0
0.0024906410 0.0272813550 0 0
0.0030986950 0.0257721860 0 0
0.0037993190 0.0242893250 0 0
0.0045262460 0.0229688960 0 0
0.0052106910 0.0219236440 0 0
0.0057871540 0.0212322550 0 0
0.0061946840 0.0209342550 0 0
0.0063787680 0.0210306940 0 0
0.0062972370 0.0214888280 0 0
0.0059280670 0.0222482430 0 0
0.0052746420 0.0232268130 0 0
0.0043671390 0.0243270130 0 0
0.0032618470 0.0254437510 0 0
0.0020383180 0.0264735020 0 0
0.0007916540 0.0273233900 0 0
-0.0003799030 0.0279189110 0 0
-0.0013875670 0.0282095010 0 0
-0.0021610040 0.0281717920 0 0
-0.0026539660 0.0278106910 0 0
-0.0028483800 0.0271582090 0 0
-0.0027561450 0.0262707050 0 0
-0.0024159380 0.0252261090 0 0
-0.0018843250 0.0241211660 0 0
-0.0012245050 0.0230665360 0 0
-0.0004976240 0.0221782990 0 0
0.0002409410 0.0215665840 0 0
0.0009417340 0.0213231120 0 0
0.0015608440 0.0215096710 0 0
0.0020611610 0.0221489510 0 0
0.0024152540 0.0232189340 0 0
0.0026082410 0.0246527820 0 0
0.0026393200 0.0263451550 0 0
0.0025217540 0.0281626280 0 0
0.0022816730 0.0299549210 0 0
0.0019557260 0.0315662200 0 1
0.0015874570 0.0328472860 0 1
0.0012234010 0.0336682150 0 1
0.0009104320 0.0339309730 0 1
0.0006941710 0.0335808750 0 1
0.0006162120 0.0326161900 0 1
0.0007089890 0.0310940470 0 1
0.0009905320 0.0291297860 0 0
0.0014621330 0.0268876550 0 0
0.0021088350 0.0245633830 0 0
0.0029005260 0.0223611770 0 0
0.0037925700 0.0204688170 0 0
0.0047270070 0.0190354300 0 0
0.0056363490 0.0181561890 0 0
0.0064517870 0.0178657960 0 0
0.0071145760 0.0181394560 0 0
0.0075852720 0.0188989400 0 0
0.0078469800 0.0200226190 0 0
0.0079036860 0.0213593260 0 0
0.0077761770 0.0227445510 0 0
0.0074975670 0.0240159160 0 0
0.0071107430 0.0250260980 0 0
0.0066682110 0.0256542730 0 0
0.0062318080 0.0258176480 0 0
0.0058692550 0.0254823590 0 0
0.0056461080 0.0246709760 0 0
0.0056140740 0.0234636280 0 0
0.0057995320 0.0219909120 0 0
0.0061971610 0.0204189830 0 0
0.0067715260 0.0189296910 0 0
0.0074658580 0.0176999050 0 0
0.0082134090 0.0168839990 0 0
0.0089452250 0.0166011350 0 0
0.0095926930 0.0169262030 0 0
0.0100894000 0.0178833120 0 0
0.0103773310 0.0194429100 0 0
0.0104173680 0.0215239100 0 0
0.0101991240 0.0240001350 0 0
0.0097448100 0.0267089590 0 0
0.0091053110 0.0294614860 0 0
0.0083501410 0.0320554730 0 1
0.0075556640 0.0342917560 0 1
0.0067970500 0.0359931540 0 1
0.0061454290 0.0370236910 0 1
0.0056659680 0.0373051380 0 1
0.0054127600 0.0368273720 0 1
0.0054213720 0.0356506600 0 1
0.0057024640 0.0339010060 0 1
0.0062380260 0.0317601590 0 1
0.0069801200 0.0294500430 0 0
0.0078531310 0.0272112760 0 0
0.0087607170 0.0252781170 0 0
0.0095969820 0.0238539620 0 0
0.0102600770 0.0230903290 0 0
0.0106657740 0.0230698750 0 0
0.0107579210 0.0237930070 0 0
0.0105132710 0.0251696210 0 0
0.0099408470 0.0270205910 0 0
0.0090789490 0.0290938690 0 0
0.0079919940 0.0310959030 0 1
0.0067655020 0.0327333980 0 1
0.0054969410 0.0337566690 0 1
0.0042835600 0.0339952870 0 1
0.0032106360 0.0333793380 0 1
0.0023429590 0.0319442000 0 1
0.0017204240 0.0298213630 0 0
0.0013566880 0.0272198590 0 0
0.0012396520 0.0244014370 0 0
0.0013336070 0.0216502940 0 0
0.0015838540 0.0192388280 0 0
0.0019244060 0.0173943770 0 0
0.0022877190 0.0162743220 0 0
0.0026137800 0.0159549710 0 0
0.0028558630 0.0164341870 0 0
0.0029821890 0.0176431830 0 0
0.0029755450 0.0194621850 0 0
0.0028337890 0.0217361840 0 0
0.0025720330 0.0242885670 0 0
0.0022239510 0.0269320610 0 0
0.0018383140 0.0294784930 0 0
0.0014700170 0.0317497390 0 1
0.0011699460 0.0335905580 0 1
0.0009785880 0.0348814700 0 1
0.0009245070 0.0355492140 0 1
0.0010255220 0.0355730590 0 1
0.0012887920 0.0349862420 0 1
0.0017078190 0.0338729000 0 1
0.0022593410 0.0323611170 0 1
0.0029042000 0.0306117570 0 1
0.0035921070 0.0288024150 0 0
0.0042677720 0.0271072800 0 0
0.0048769810 0.0256766050 0 0
0.0053724610 0.0246211880 0 0
0.0057198860 0.0240060020 0 0
0.0059035580 0.0238532910 0 0
0.0059293660 0.0241507820 0 0
0.0058225070 0.0248586630 0 0
0.0056208540 0.0259114030 0 0
0.0053678640 0.0272153670 0 0
0.0051073980 0.0286464380 0 0
0.0048797980 0.0300526020 0 1
0.0047181070 0.0312646030 0 1
0.0046448110 0.0321140210 0 1
0.0046708450 0.0324554230 0 1
0.0047983110 0.0321888200 0 1
0.0050252990 0.0312780090 0 1
0.0053490530 0.0297595570 0 0
0.0057658240 0.0277395610 0 0
0.0062688370 0.0253797700 0 0
0.0068462540 0.0228772030 0 0
0.0074800710 0.0204411350 0 0
0.0081460560 0.0182710140 0 0
0.0088140050 0.0165386230 0 0
0.0094482700 0.0153759810 0 0
0.0100099500 0.0148682620 0 0
0.0104615120 0.0150499060 0 0
0.0107724200 0.0159020610 0 0
0.0109233310 0.0173511570 0 0
0.0109082650 0.0192712490 0 0
0.0107369310 0.0214931800 0 0
0.0104386090 0.0238206100 0 0
0.0100647530 0.0260501190 0 0
0.0096862270 0.0279920190 0 0
0.0093840790 0.0294892220 0 0
0.0092362130 0.0304322630 0 1
0.0093040960 0.0307695560 0 1
0.0096226450 0.0305127920 0 1
0.0101932150 0.0297376000 0 0
0.0109796190 0.0285788260 0 0
0.0119103330 0.0272190880 0 0
0.0128893720 0.0258690730 0 0
0.0138135220 0.0247395650 0 0
0.0145910170 0.0240091620 0 0
0.0151564280 0.0237954020 0 0
0.0154777090 0.0241371680 0 0
0.0155552760 0.0249924630 0 0
0.0154162380 0.0262501710 0 0
0.0151061630 0.0277510430 0 0
0.0146797050 0.0293127350 0 0
0.0141924920 0.0307536590 0 1
0.0136964570 0.0319113530 0 1
0.0132380480 0.0326545750 0 1
0.0128573930 0.0328910300 0 1
0.0125877570 0.0325726230 0 1
0.0124552090 0.0316987370 0 1
0.0124771850 0.0303167950 0 1
0.0126589780 0.0285192350 0 0
0.0129902860 0.0264373120 0 0
0.0134450150 0.0242320940 0 0
0.0139846420 0.0220818660 0 0
0.0145630790 0.0201665390 0 0
0.0151310990 0.0186522170 0 0
0.0156392630 0.0176782580 0 0
0.0160393060 0.0173465180 0 0
0.0162852580 0.0177121640 0 0
0.0163363560 0.0187768490 0 0
0.0161626650 0.0204858070 0 0
0.0157517340 0.0227307870 0 0
0.0151136930 0.0253600150 0 0
0.0142835050 0.0281928710 0 0
0.0133195050 0.0310345880 0 1
0.0122969770 0.0336892100 0 1
0.0112971940 0.0359728380 0 1
0.0103957820 0.0377288160 0 1
0.0096552560 0.0388440040 0 1
0.0091231850 0.0392628510 0 1
0.0088323970 0.0389946880 0 1
0.0087988140 0.0381117500 0 1
0.0090168080 0.0367387660 0 1
0.0094553630 0.0350361220 0 1
0.0100581300 0.0331794780 0 1
0.0107485270 0.0313403630 0 1
0.0114388240 0.0296716470 0 0
0.0120409020 0.0282988510 0 0
0.0124773990 0.0273160430 0 0
0.0126918840 0.0267837120 0 0
0.0126553100 0.0267261250 0 0
0.0123671630 0.0271278840 0 0
0.0118527650 0.0279316400 0 0
0.0111583500 0.0290391680 0 0
0.0103439140 0.0303168750 0 1
0.0094746300 0.0316058720 0 1
0.0086135740 0.0327363720 0 1
0.0078173710 0.0335457580 0 1
0.0071331620 0.0338990430 0 1
0.0065943920 0.0337092220 0 1
0.0062162600 0.0329531640 0 1
0.0059952930 0.0316783350 0 1
0.0059150660 0.0299985350 0 0
0.0059540720 0.0280803280 0 0
0.0060904090 0.0261232970 0 0
0.0063014340 0.0243373290 0 0
0.0065600760 0.0229197460 0 0
0.0068309910 0.0220341130 0 0
0.0070694680 0.0217921070 0 0
0.0072246340 0.0222403640 0 0
0.0072467570 0.0233542270 0 0
0.0070968520 0.0250392910 0 0
0.0067559190 0.0271402220 0 0
0.0062306340 0.0294549720 0 0
0.0055532540 0.0317526250 0 1
0.0047766130 0.0337947500 0 1
0.0039673590 0.0353602470 0 1
0.0031989010 0.0362714650 0 1
0.0025433440 0.0364177630 0 1
0.0020630400 0.0357729610 0 1
0.0018046920 0.0344042170 0 1
0.0017972780 0.0324699460 0 1
0.0020517180 0.0302036430 0 1
0.0025596510 0.0278825830 0 0
0.0032908180 0.0257864520 0 0
0.0041914320 0.0241558020 0 0
0.0051869940 0.0231599540 0 0
0.0061901160 0.0228800490 0 0
0.0071108190 0.0233082290 0 0
0.0078667570 0.0243601360 0 0
0.0083921030 0.0258956940 0 0
0.0086452790 0.0277426060 0 0
0.0086159850 0.0297178390 0 0
0.0083299740 0.0316437480 0 1
0.0078483520 0.0333577180 0 1
0.0072598600 0.0347179710 0 1
0.0066676650 0.0356101380 0 1
0.0061735370 0.0359564050 0 1
0.0058625780 0.0357246700 0 1
0.0057920250 0.0349337890 0 1
0.0059866390 0.0336527290 0 1
0.0064406490 0.0319937660 0 1
0.0071236430 0.0301014170 0 1
0.0079868230 0.0281390310 0 0
0.0089672950 0.0262744820 0 0
0.0099912500 0.0246663960 0 0
0.0109786350 0.0234521180 0 0
0.0118502850 0.0227377500 0 0
0.0125360820 0.0225906080 0 0
0.0129822690 0.0230343370 0 0
0.0131577750 0.0240461370 0 0
0.0130603480 0.0255562150 0 0
0.0127207720 0.0274513850 0 0
0.0122008300 0.0295843000 0 0
0.0115830200 0.0317870680 0 1
0.0109554890 0.0338865280 0 1
0.0103983810 0.0357189940 0 1
0.0099758410 0.0371438140 0 1
0.0097339460 0.0380559680 0 1
0.0097017060 0.0383974070 0 1
0.0098912660 0.0381654560 0 1
0.0102955830 0.0374156780 0 1
0.0108857540 0.0362572980 0 1
0.0116116740 0.0348411660 0 1
0.0124074430 0.0333418540 0 1
0.0131991900 0.0319361600 0 1
0.0139112680 0.0307808480 0 1
0.0144690670 0.0299936330 0 0
0.0148009960 0.0296419080 0 0
0.0148435840 0.0297408790 0 0
0.0145512560 0.0302583020 0 1
0.0139081050 0.0311217540 0 1
0.0129357860 0.0322268760 0 1
0.0116930510 0.0334472430 0 1
0.0102681260 0.0346463050 0 1
0.0087681780 0.0356912790 0 1
0.0073084120 0.0364689500 0 1
0.0060009310 0.0369016000 0 1
0.0049425670 0.0369582890 0 1
0.0042019520 0.0366571890 0 1
0.0038088050 0.0360586240 0 1
0.0037495820 0.0352514410 0 1
0.0039711200 0.0343363290 0 1
0.0043909720 0.0334104020 0 1
0.0049123340 0.0325572160 0 1
0.0054410070 0.0318435750 0 1
0.0059002950 0.0313203900 0 1
0.0062393800 0.0310228550 0 1
0.0064331090 0.0309675950 0 1
0.0064753360 0.0311486980 0 1
0.0063709130 0.0315360030 0 1
0.0061307060 0.0320770960 0 1
0.0057702390 0.0327024700 0 1
0.0053092800 0.0333325160 0 1
0.0047702310 0.0338847970 0 1
0.0041765120 0.0342808440 0 1
0.0035527140 0.0344530660 0 1
0.0029252040 0.0343520320 0 1
0.0023203770 0.0339526130 0 1
0.0017603980 0.0332570450 0 1
0.0012593940 0.0322951440 0 1
0.0008227790 0.0311239080 0 1
0.0004492970 0.0298275420 0 0
0.0001338930 0.0285164030 0 0
-0.0001302670 0.0273225650 0 0
-0.0003522480 0.0263898080 0 0
-0.0005462670 0.0258569630 0 0
-0.0007344940 0.0258370570 0 0
-0.0009471190 0.0263980350 0 0
-0.0012191790 0.0275498180 0 0
-0.0015855780 0.0292390710 0 0
-0.0020757890 0.0313516010 0 1
-0.0027079810 0.0337224300 0 1
-0.0034820490 0.0361528600 0 1
-0.0043738170 0.0384322230 0 1
-0.0053346640 0.0403612870 0 1
-0.0062983710 0.0417745480 0 1
-0.0071920020 0.0425583590 0 1
-0.0079458720 0.0426611020 0 1
-0.0085011230 0.0420937900 0 1
-0.0088164750 0.0409236180 0 1
-0.0088736450 0.0392642570 0 1
-0.0086778220 0.0372646430 0 1
-0.0082520030 0.0350960410 0 1
-0.0076298900 0.0329365700 0 1
-0.0068529220 0.0309535910 0 1
-0.0059710920 0.0292865560 0 0
-0.0050427480 0.0280335810 0 0
-0.0041316330 0.0272436350 0 0
-0.0033033440 0.0269144800 0 0
-0.0026214160 0.0269958510 0 0
-0.0021404570 0.0273973030 0 0
-0.0018959830 0.0280002540 0 0
-0.0018947930 0.0286731300 0 0
-0.0021103950 0.0292873320 0 0
-0.0024851640 0.0297312890 0 0
-0.0029380040 0.0299206980 0 0
-0.0033751350 0.0298038300 0 0
-0.0037019190 0.0293612960 0 0
-0.0038343050 0.0286013630 0 0
-0.0037093660 0.0275546900 0 0
-0.0032942620 0.0262730370 0 0
-0.0025906620 0.0248328680 0 0
-0.0016319560 0.0233393930 0 0
-0.0004752460 0.0219247430 0 0
0.0008081350 0.0207369990 0 0
0.0021418430 0.0199216170 0 0
0.0034517220 0.0196001430 0 0
0.0046690210 0.0198518060 0 0
0.0057307840 0.0207008930 0 0
0.0065812880 0.0221092570 0 0
0.0071774700 0.0239737710 0 0
0.0074979190 0.0261317230 0 0
0.0075511880 0.0283771630 0 0
0.0073786210 0.0304871590 0 1
0.0070499570 0.0322529050 0 1
0.0066528020 0.0335090370 0 1
0.0062780320 0.0341549520 0 1
0.0060040540 0.0341641250 0 1
0.0058837090 0.0335814650 0 1
0.0059375010 0.0325123230 0 1
0.0061546900 0.0311072000 0 1
0.0065012860 0.0295443870 0 0
0.0069322320 0.0280114630 0 0
0.0074032010 0.0266868950 0 0
0.0078767480 0.0257237910 0 0
0.0083210130 0.0252378240 0 0
0.0087047840 0.0253001870 0 0
0.0089945320 0.0259341330 0 0
0.0091558500 0.0271123950 0 0
0.0091580370 0.0287546260 0 0
0.0089799620 0.0307279690 0 1
0.0086161740 0.0328553700 0 1
0.0080825260 0.0349330060 0 1
0.0074194110 0.0367533340 0 1
0.0066896590 0.0381285850 0 1
0.0059698070 0.0389112760 0 1
0.0053373260 0.0390100930 0 1
0.0048581320 0.0383993730 0 1
0.0045771530 0.0371204010 0 1
0.0045131540 0.0352742150 0 1
0.0046584660 0.0330076710 0 1
0.0049830650 0.0304966380 0 1
0.0054410250 0.0279303850 0 0
0.0059772910 0.0254984640 0 0
0.0065336620 0.0233786450 0 0
0.0070537000 0.0217250940 0 0
0.0074866800 0.0206579340 0 0
0.0077911810 0.0202553450 0 0
0.0079391190 0.0205477060 0 0
0.0079198040 0.0215125650 0 0
0.0077421870 0.0230710910 0 0
0.0074333960 0.0250889880 0 0
0.0070332520 0.0273852260 0 0
0.0065869460 0.0297495750 0 0
0.0061389060 0.0319660050 0 1
0.0057289890 0.0338362950 0 1
0.0053905170 0.0351989920 0 1
0.0051495970 0.0359419940 0 1
0.0050250250 0.0360099860 0 1
0.0050278300 0.0354092440 0 1
0.0051602770 0.0342106680 0 1
0.0054147890 0.0325482500 0 1
0.0057728730 0.0306089600 0 1
0.0062045390 0.0286131970 0 0
0.0066699890 0.0267891840 0 0
0.0071242790 0.0253462200 0 0
0.0075226390 0.0244505840 0 0
0.0078236950 0.0242066400 0 0
0.0079904590 0.0246451000 0 0
0.0079911930 0.0257194280 0 0
0.0078024800 0.0273101400 0 0
0.0074147530 0.0292370190 0 0
0.0068376920 0.0312798260 0 1
0.0061022930 0.0332058470 0 1
0.0052587380 0.0347991550 0 1
0.0043709440 0.0358857040 0 1
0.0035084510 0.0363503860 0 1
0.0027367930 0.0361443540 0 1
0.0021091270 0.0352834360 0 1
0.0016614390 0.0338409130 0 1
0.0014106860 0.0319383260 0 1
0.0013542770 0.0297361530 0 0
0.0014709260 0.0274232270 0 0
0.0017229280 0.0252025930 0 0
0.0020589630 0.0232731540 0 0
0.0024172200 0.0218090200 0 0
0.0027290770 0.0209396530 0 0
0.0029235650 0.0207346910 0 0
0.0029342320 0.0211971390 0 0
0.0027098090 0.0222658020 0 0
0.0022260620 0.0238245500 0 0
0.0014935520 0.0257153610 0 0
0.0005582320 0.0277536730 0 0
-0.0005047590 0.0297452800 0 0
-0.0016023590 0.0315038010 0 1
-0.0026381590 0.0328678180 0 1
-0.0035280080 0.0337162050 0 1
-0.0042129960 0.0339798950 0 1
-0.0046656390 0.0336492660 0 1
-0.0048877180 0.0327764880 0 1
-0.0049027410 0.0314713740 0 1
-0.0047477400 0.0298901680 0 0
-0.0044669210 0.0282190980 0 0
-0.0041072650 0.0266555710 0 0
-0.0037156650 0.0253889080 0 0
-0.0033373490 0.0245813000 0 0
-0.0030146600 0.0243495350 0 0
-0.0027841920 0.0247495050 0 0
-0.0026724330 0.0257665600 0 0
-0.0026929380 0.0273141520 0 0
-0.0028459270 0.0292414530 0 0
-0.0031181270 0.0313486590 0 1
-0.0034824790 0.0334074210 0 1
-0.0038999460 0.0351839940 0 1
-0.0043245930 0.0364634040 0 1
-0.0047098560 0.0370732740 0 1
-0.0050129990 0.0369050700 0 1
-0.0051974160 0.0359284070 0 1
-0.0052349350 0.0341934260 0 1
-0.0051086490 0.0318202310 0 1
-0.0048144060 0.0289805510 0 0
-0.0043598400 0.0258787190 0 0
-0.0037621430 0.0227351910 0 0
-0.0030468150 0.0197714470 0 0
-0.0022486320 0.0171939540 0 0
-0.0014139050 0.0151762960 0 0
-0.0006007670 0.0138414640 0 0
0.0001260600 0.0132489750 0 0
0.0007058670 0.0133912120 0 0
0.0010935360 0.0141993990 0 0
0.0012678650 0.0155560520 0 0
0.0012353650 0.0173106720 0 0
0.0010301770 0.0192961110 0 0
0.0007110800 0.0213428080 0 0
0.0003552530 0.0232892800 0 0
0.0000479580 0.0249903640 0 0
-0.0001302810 0.0263260780 0 0
-0.0001152390 0.0272120510 0 0
0.0001331060 0.0276092490 0 0
0.0006262010 0.0275294660 0 0
0.0013461540 0.0270347750 0 0
0.0022501100 0.0262313310 0 0
0.0032792520 0.0252583450 0 0
0.0043676680 0.0242732250 0 0
0.0054465460 0.0234349320 0 0
0.0064450110 0.0228879000 0 0
0.0072933400 0.0227475690 0 0
0.0079317920 0.0230874280 0 0
0.0083218070 0.0239281870 0 0
0.0084532120 0.0252314440 0 0
0.0083440570 0.0269008360 0 0
0.0080345000 0.0287914910 0 0
0.0075783000 0.0307258100 0 1
0.0070343230 0.0325131040 0 1
0.0064586000 0.0339714880 0 1
0.0058979180 0.0349494690 0 1
0.0053872560 0.0353433370 0 1
0.0049518410 0.0351076490 0 1
0.0046113590 0.0342586180 0 1
0.0043825170 0.0328717220 0 1
0.0042777280 0.0310741590 0 1
0.0043008140 0.0290312110 0 0
0.0044429160 0.0269263130 0 0
0.0046807650 0.0249385370 0 0
0.0049778180 0.0232240860 0 0
0.0052886750 0.0219065240 0 0
0.0055670490 0.0210748320 0 0
0.0057752060 0.0207839090 0 0
0.0058907100 0.0210530110 0 0
0.0059078470 0.0218616990 0 0
0.0058349400 0.0231456710 0 0
0.0056904630 0.0247955610 0 0
0.0055000580 0.0266616250 0 0
0.0052952450 0.0285657530 0 0
0.0051132590 0.0303195980 0 1
0.0049955180 0.0317456340 0 1
0.0049823280 0.0326976430 0 1
0.0051051690 0.0330772160 0 1
0.0053807440 0.0328431310 0 1
0.0058088560 0.0320128030 0 1
0.0063735110 0.0306580890 0 1
0.0070461270 0.0288978960 0 0
0.0077888190 0.0268883550 0 0
0.0085559250 0.0248108590 0 0
0.0092952290 0.0228583360 0 0
0.0099519890 0.0212194660 0 0
0.0104754800 0.0200608770 0 0
0.0108245100 0.0195092080 0 0
0.0109696580 0.0196357750 0 0
0.0108933480 0.0204455410 0 0
0.0105902670 0.0218712960 0 0
0.0100695850 0.0237745220 0 0
0.0093580650 0.0259551610 0 0
0.0085015220 0.0281712190 0 0
0.0075628620 0.0301662290 0 1
0.0066169270 0.0317002250 0 1
0.0057434620 0.0325794140 0 1
0.0050196930 0.0326806820 0 1
0.0045134240 0.0319684980 0 1
0.0042767320 0.0305019290 0 1
0.0043398240 0.0284286280 0 0
0.0047044150 0.0259640020 0 0
0.0053373330 0.0233593560 0 0
0.0061682210 0.0208678640 0 0
0.0070956730 0.0187164900 0 0
0.0080017360 0.0170876260 0 0
0.0087698150 0.0161099990 0 0
0.0093005670 0.0158555200 0 0
0.0095232470 0.0163380510 0 0
0.0094018010 0.0175129160 0 0
0.0089358090 0.0192799240 0 0
0.0081574650 0.0214926340 0 0
0.0071257150 0.0239728460 0 0
0.0059180470 0.0265267370 0 0
0.0046213190 0.0289601730 0 0
0.0033235290 0.0310931950 0 1
0.0021076630 0.0327750150 0 1
0.0010480830 0.0338991610 0 1
0.0002087280 0.0344156620 0 1
-0.0003593190 0.0343369830 0 1
-0.0006228410 0.0337364010 0 1
-0.0005725390 0.0327390640 0 1
-0.0002263920 0.0315072620 0 1
0.0003709170 0.0302223810 0 1
0.0011506560 0.0290658210 0 0
0.0020236900 0.0282004680 0 0
0.0028857010 0.0277541180 0 0
0.0036248280 0.0278066320 0 0
0.0041326980 0.0283821080 0 0
0.0043185730 0.0294457440 0 0
0.0041233560 0.0309045140 0 1
0.0035292260 0.0326117340 0 1
0.0025626480 0.0343763910 0 1
0.0012915700 0.0359784900 0 1
-0.0001811610 0.0371915920 0 1
-0.0017276510 0.0378117860 0 1
-0.0032085400 0.0376886760 0 1
-0.0044893560 0.0367509190 0 1
-0.0054571480 0.0350194300 0 1
-0.0060336150 0.0326059110 0 1
-0.0061814520 0.0296985290 0 0
-0.0059046630 0.0265376430 0 0
-0.0052463440 0.0233850870 0 0
-0.0042850500 0.0204924620 0 0
-0.0031275210 0.0180748650 0 0
-0.0018957700 0.0162948310 0 0
-0.0007095120 0.0152571450 0 0
0.0003312790 0.0150103170 0 0
0.0011569680 0.0155492460 0 0
0.0017291000 0.0168167110 0 0
0.0020354630 0.0187050730 0 0
0.0020861340 0.0210610910 0 0
0.0019140870 0.0236962830 0 0
0.0015784910 0.0264033820 0 0
0.0011649900 0.0289769250 0 0
0.0007776590 0.0312346010 0 1
0.0005228720 0.0330355640 0 1
0.0004914090 0.0342918000 0 1
0.0007445790 0.0349703920 0 1
0.0013046450 0.0350887310 0 1
0.0021490760 0.0347072310 0 1
0.0032115210 0.0339224010 0 1
0.0043912340 0.0328600070 0 1
0.0055690710 0.0316664230 0 1
0.0066271230 0.0304961240 0 1
0.0074678220 0.0294951850 0 0
0.0080272740 0.0287835520 0 0
0.0082800780 0.0284401460 0 0
0.0082364330 0.0284940650 0 0
0.0079335730 0.0289231200 0 0
0.0074245430 0.0296578440 0 0
0.0067685230 0.0305875260 0 1
0.0060252160 0.0315671070 0 1
0.0052522470 0.0324273240 0 1
0.0045033440 0.0329904400 0 1
0.0038267710 0.0330912670 0 1
0.0032640620 0.0326010910 0 1
0.0028477780 0.0314505070 0 1
0.0025977550 0.0296457970 0 0
0.0025182500 0.0272739490 0 0
0.0025988140 0.0244938210 0 0
0.0028185430 0.0215148970 0 0
0.0031503670 0.0185692390 0 0
0.0035623690 0.0158841870 0 0
0.0040165910 0.0136609050 0 0
0.0044686730 0.0120592660 0 0
0.0048706920 0.0111873410 0 0
0.0051767790 0.0110951470 0 0
0.0053491970 0.0117739430 0 0
0.0053623570 0.0131612210 0 0
0.0052039660 0.0151493640 0 0
0.0048751170 0.0175956320 0 0
0.0043916080 0.0203320800 0 0
0.0037862090 0.0231745450 0 0
0.0031089640 0.0259308480 0 0
0.0024227700 0.0284104080 0 0
0.0017945700 0.0304380220 0 1
0.0012857700 0.0318722690 0 1
0.0009451400 0.0326256030 0 1
0.0008047840 0.0326813830 0 1
0.0008789040 0.0321027850 0 1
0.0011648580 0.0310290110 0 1
0.0016445980 0.0296571380 0 0
0.0022847760 0.0282134310 0 0
0.0030356440 0.0269217930 0 0
0.0038296020 0.0259769280 0 0
0.0045812380 0.0255258970 0 0
0.0051925400 0.0256571210 0 0
0.0055652720 0.0263937670 0 0
0.0056181700 0.0276900230 0 0
0.0053040460 0.0294315450 0 0
0.0046217040 0.0314429830 0 1
0.0036189420 0.0335049880 0 1
0.0023859870 0.0353806910 0 1
0.0010419770 0.0368474890 0 1
-0.0002816890 0.0377263940 0 1
-0.0014573160 0.0379017580 0 1
-0.0023736600 0.0373287830 0 1
-0.0029456850 0.0360308730 0 1
-0.0031230740 0.0340912620 0 1
-0.0028965310 0.0316431750 0 1
-0.0022980110 0.0288598830 0 0
-0.0013934480 0.0259432370 0 0
-0.0002718730 0.0231098050 0 0
0.0009638510 0.0205752580 0 0
0.0022029180 0.0185371460 0 0
0.0033319090 0.0171555000 0 0
0.0042436890 0.0165327100 0 0
0.0048506950 0.0166972830 0 0
0.0050983280 0.0175972020 0 0
0.0049725750 0.0191059350 0 0
0.0044994120 0.0210392800 0 0
0.0037374130 0.0231786750 0 0
0.0027660990 0.0252970190 0 0
0.0016732840 0.0271833180 0 0
0.0005455530 0.0286624520 0 0
-0.0005361480 0.0296087830 0 0
-0.0014975040 0.0299552370 0 0
-0.0022705030 0.0296998960 0 0
-0.0027937290 0.0289094790 0 0
-0.0030168340 0.0277157060 0 0
-0.0029108220 0.0263002900 0 0
-0.0024797680 0.0248694130 0 0
-0.0017669010 0.0236244730 0 0
-0.0008516380 0.0227365010 0 0
0.0001612080 0.0223275190 0 0
0.0011575830 0.0224588240 0 0
0.0020325090 0.0231264080 0 0
0.0027054770 0.0242644840 0 0
0.0031290770 0.0257571110 0 0
0.0032910510 0.0274554890 0 0
0.0032115460 0.0291963100 0 0
0.0029365070 0.0308165020 0 1
0.0025283750 0.0321623460 0 1
0.0020561620 0.0330950690 0 1
0.0015873240 0.0334982480 0 1
0.0011832960 0.0332913050 0 1
0.0008984390 0.0324472110 0 1
0.0007794370 0.0310063110 0 1
0.0008618000 0.0290780690 0 0
0.0011635570 0.0268281680 0 0
0.0016803380 0.0244548820 0 0
0.0023846940 0.0221620340 0 0
0.0032275930 0.0201353200 0 0
0.0041397070 0.0185260290 0 0
0.0050344250 0.0174428020 0 0
0.0058160150 0.0169493080 0 0
0.0063930790 0.0170648430 0 0
0.0066944100 0.0177659660 0 0
0.0066837340 0.0189891740 0 0
0.0063697150 0.0206356370 0 0
0.0058077600 0.0225787780 0 0
0.0050917870 0.0246742770 0 0
0.0043374040 0.0267708100 0 0
0.0036609290 0.0287198250 0 0
0.0031603890 0.0303839670 0 1
0.0029035980 0.0316453480 0 1
0.0029243680 0.0324153660 0 1
0.0032243340 0.0326463970 0 1
0.0037779370 0.0323429760 0 1
0.0045399030 0.0315683630 0 1
0.0054540870 0.0304432760 0 1
0.0064606070 0.0291357860 0 0
0.0074990150 0.0278435890 0 0
0.0085084960 0.0267709010 0 0
0.0094278200 0.0261023720 0 0
0.0101972400 0.0259772260 0 0
0.0107633620 0.0264681520 0 0
0.0110861780 0.0275690460 0 0
0.0111454710 0.0291931770 0 0
0.0109440540 0.0311807500 0 1
0.0105074420 0.0333144820 0 1
0.0098804370 0.0353427320 0 1
0.0091211390 0.0370088310 0 1
0.0082940290 0.0380830700 0 1
0.0074647040 0.0383924550 0 1
0.0066975250 0.0378428200 0 1
0.0060548920 0.0364285950 0 1
0.0055950400 0.0342284600 0 1
0.0053658240 0.0313892970 0 1
0.0053959230 0.0281040230 0 0
0.0056878870 0.0245894040 0 0
0.0062151390 0.0210678610 0 0
0.0069222930 0.0177545760 0 0
0.0077295010 0.0148491840 0 0
0.0085422590 0.0125296170 0 0
0.0092653470 0.0109446430 0 0
0.0098167830 0.0102029660 0 0
0.0101371430 0.0103598900 0 0
0.0101921390 0.0114050870 0 0
0.0099704240 0.0132552870 0 0
0.0094803350 0.0157554330 0 0
0.0087474070 0.0186909870 0 0
0.0078116370 0.0218109060 0 0
0.0067239080 0.0248569440 0 0
0.0055435980 0.0275931850 0 0
0.0043394100 0.0298301770 0 0
0.0031916540 0.0314405410 0 1
0.0021909790 0.0323663350 0 1
0.0014297840 0.0326196770 0 1
0.0009875300 0.0322773740 0 1
0.0009156700 0.0314703920 0 1
0.0012276920 0.0303694730 0 1
0.0018952200 0.0291679350 0 0
0.0028488870 0.0280621940 0 0
0.0039854850 0.0272304620 0 0
0.0051827580 0.0268115070 0 0
0.0063173960 0.0268874960 0 0
0.0072795980 0.0274740620 0 0
0.0079819200 0.0285178420 0 0
0.0083640810 0.0299019400 0 0
0.0083959210 0.0314608040 0 1
0.0080796200 0.0330037080 0 1
0.0074506830 0.0343418260 0 1
0.0065764510 0.0353118040 0 1
0.0055508560 0.0357908520 0 1
0.0044848080 0.0357032390 0 1
0.0034930570 0.0350213540 0 1
0.0026793060 0.0337644500 0 1
0.0021221900 0.0319970810 0 1
0.0018660860 0.0298275600 0 0
0.0019193930 0.0274045360 0 0
0.0022588510 0.0249090810 0 0
0.0028361030 0.0225410050 0 0
0.0035832690 0.0205002360 0 0
0.0044164610 0.0189663380 0 0
0.0052390330 0.0180797880 0 0
0.0059482250 0.0179269040 0 0
0.0064472270 0.0185291630 0 0
0.0066603490 0.0198384930 0 0
0.0065462200 0.0217406610 0 0
0.0061046740 0.0240668560 0 0
0.0053753700 0.0266102750 0 0
0.0044292940 0.0291438180 0 0
0.0033567760 0.0314381670 0 1
0.0022554490 0.0332817630 0 1
0.0012196200 0.0345020690 0 1
0.0003312350 0.0349844060 0 1
-0.0003474710 0.0346847820 0 1
-0.0007791220 0.0336354980 0 1
-0.0009527990 0.0319437580 0 1
-0.0008806500 0.0297832390 0 0
-0.0005909380 0.0273781260 0 0
-0.0001225450 0.0249797950 0 0
0.0004760530 0.0228379870 0 0
0.0011459200 0.0211700350 0 0
0.0018189870 0.0201329690 0 0
0.0024230170 0.0198036120 0 0
0.0028895880 0.0201704570 0 0
0.0031639950 0.0211387020 0 0
0.0032154140 0.0225473150 0 0
0.0030443930 0.0241941080 0 0
0.0026842770 0.0258626160 0 0
0.0021956200 0.0273451070 0 0
0.0016554190 0.0284595520 0 0
0.0011437730 0.0290621800 0 0
0.0007306420 0.0290580400 0 0
0.0004660460 0.0284101570 0 0
0.0003762990 0.0271455530 0 0
0.0004657010 0.0253557970 0 0
0.0007205490 0.0231904740 0 0
0.0011132080 0.0208433040 0 0
0.0016062470 0.0185324160 0 0
0.0021571790 0.0164782710 0 0
0.0027224900 0.0148830450 0 0
0.0032585910 0.0139136570 0 0
0.0037204050 0.0136883980 0 0
0.0040620440 0.0142663810 0 0
0.0042421840 0.0156402670 0 0
0.0042312560 0.0177343790 0 0
0.0040154120 0.0204102060 0 0
0.0035961170 0.0234793000 0 0
0.0029891530 0.0267214370 0 0
0.0022261610 0.0299044880 0 0
0.0013566560 0.0328022590 0 1
0.0004466660 0.0352092120 0 1
-0.0004267660 0.0369541490 0 1
-0.0011840000 0.0379150540 0 1
-0.0017530870 0.0380343540 0 1
-0.0020798350 0.0373308520 0 1
-0.0021350720 0.0359038690 0 1
-0.0019177500 0.0339273540 0 1
-0.0014536660 0.0316341630 0 1
-0.0007900310 0.0292913350 0 0
0.0000130732 0.0271681190 0 0
0.0008923180 0.0255012910 0 0
0.0017894170 0.0244646350 0 0
0.0026554240 0.0241484710 0 0
0.0034494960 0.0245517100 0 0
0.0041346360 0.0255861560 0 0
0.0046762700 0.0270917900 0 0
0.0050469040 0.0288613720 0 0
0.0052344160 0.0306708060 0 1
0.0052489680 0.0323090020 0 1
0.0051248170 0.0336006790 0 1
0.0049156530 0.0344187560 0 1
0.0046848660 0.0346870660 0 1
0.0044939550 0.0343765950 0 1
0.0043920460 0.0334995900 0 1
0.0044082050 0.0321053590 0 1
0.0045473310 0.0302788430 0 1
0.0047905370 0.0281400550 0 0
0.0051011590 0.0258409950 0 0
0.0054353400 0.0235572450 0 0
0.0057530030 0.0214740660 0 0
0.0060243110 0.0197696720 0 0
0.0062292500 0.0185989000 0 0
0.0063524230 0.0180786470 0 0
0.0063782730 0.0182750650 0 0
0.0062903180 0.0191934270 0 0
0.0060738600 0.0207730090 0 0
0.0057196400 0.0228896770 0 0
0.0052271190 0.0253673140 0 0
0.0046078680 0.0279966350 0 0
0.0038892770 0.0305581600 0 1
0.0031168270 0.0328458090 0 1
0.0023526750 0.0346871620 0 1
0.0016700600 0.0359572650 0 1
0.0011446160 0.0365856600 0 1
0.0008438990 0.0365587540 0 1
0.0008169050 0.0359195540 0 1
0.0010863160 0.0347650450 0 1
0.0016449520 0.0332395120 0 1
0.0024556220 0.0315219160 0 1
0.0034541500 0.0298074160 0 0
0.0045564390 0.0282852180 0 0
0.0056687530 0.0271156600 0 0
0.0066984430 0.0264103170 0 0
0.0075628500 0.0262190700 0 0
0.0081962280 0.0265259410 0 0
0.0085556410 0.0272532360 0 0
0.0086253550 0.0282725600 0 0
0.0084178910 0.0294204450 0 0
0.0079708280 0.0305152390 0 1
0.0073401870 0.0313723990 0 1
0.0065925710 0.0318187170 0 1
0.0057979770 0.0317089940 0 1
0.0050235730 0.0309467750 0 1
0.0043285220 0.0295053100 0 0
0.0037606750 0.0274421220 0 0
0.0033546700 0.0249019230 0 0
0.0031299630 0.0221052510 0 0
0.0030889730 0.0193232130 0 0
0.0032167880 0.0168426330 0 0
0.0034824900 0.0149286830 0 0
0.0038412190 0.0137918400 0 0
0.0042369630 0.0135637750 0 0
0.0046069930 0.0142839890 0 0
0.0048891370 0.0158974930 0 0
0.0050317890 0.0182638810 0 0
0.0050036480 0.0211762470 0 0
0.0047994360 0.0243852200 0 0
0.0044405750 0.0276237490 0 0
0.0039717410 0.0306312520 0 1
0.0034539380 0.0331765120 0 1
0.0029557700 0.0350776750 0 1
0.0025462730 0.0362167450 0 1
0.0022901300 0.0365459030 0 1
0.0022419440 0.0360856280 0 1
0.0024378760 0.0349174960 0 1
0.0028877880 0.0331742730 0 1
0.0035717120 0.0310286940 0 1
0.0044416140 0.0286812800 0 0
0.0054272240 0.0263454390 0 0
0.0064443260 0.0242279810 0 0
0.0074043910 0.0225072770 0 0
0.0082243330 0.0213147960 0 0
0.0088345690 0.0207248710 0 0
0.0091847910 0.0207536500 0 0
0.0092488340 0.0213645260 0 0
0.0090295770 0.0224762410 0 0
0.0085622750 0.0239711820 0 0
0.0079129380 0.0257034210 0 0
0.0071694950 0.0275076270 0 0
0.0064282460 0.0292097310 0 0
0.0057821240 0.0306389810 0 1
0.0053137090 0.0316413100 0 1
0.0050888050 0.0320947020 0 1
0.0051469660 0.0319257330 0 1
0.0054930370 0.0311235480 0 1
0.0060958150 0.0297462130 0 0
0.0068939630 0.0279161860 0 0
0.0078050440 0.0258060490 0 0
0.0087347410 0.0236190560 0 0
0.0095853270 0.0215685630 0 0
0.0102639190 0.0198580850 0 0
0.0106915580 0.0186626340 0 0
0.0108122120 0.0181121060 0 0
0.0105989330 0.0182779080 0 0
0.0100552320 0.0191641260 0 0
0.0092124330 0.0207047780 0 0
0.0081254170 0.0227687970 0 0
0.0068688790 0.0251732980 0 0
0.0055347400 0.0277034440 0 0
0.0042284740 0.0301354990 0 1
0.0030602930 0.0322596060 0 1
0.0021303610 0.0338996470 0 1
0.0015130510 0.0349279130 0 1
0.0012469960 0.0352738220 0 1
0.0013338740 0.0349278310 0 1
0.0017438590 0.0339415950 0 1
0.0024238270 0.0324239920 0 1
0.0033060130 0.0305319740 0 1
0.0043163220 0.0284560200 0 0
0.0053804740 0.0264015220 0 0
0.0064260000 0.0245684270 0 0
0.0073820200 0.0231316880 0 0
0.0081819410 0.0222244680 0 0
0.0087708260 0.0219251570 0 0
0.0091136140 0.0222490890 0 0
0.0091998210 0.0231462100 0 0
0.0090436560 0.0245059840 0 0
0.0086815140 0.0261701710 0 0
0.0081693500 0.0279523090 0 0
0.0075795640 0.0296603240 0 0
0.0069944190 0.0311177060 0 1
0.0064948120 0.0321798260 0 1
0.0061473090 0.0327439130 0 1
0.0059943210 0.0327528510 0 1
0.0060504870 0.0321942280 0 1
0.0063047210 0.0310971160 0 1
0.0067248430 0.0295296560 0 0
0.0072620670 0.0275991370 0 0
0.0078551350 0.0254521880 0 0
0.0084354140 0.0232699830 0 0
0.0089334410 0.0212550300 0 0
0.0092868900 0.0196098160 0 0
0.0094499370 0.0185105260 0 0
0.0094016870 0.0180808490 0 0
0.0091495390 0.0183711110 0 0
0.0087258110 0.0193461930 0 0
0.0081803310 0.0208839200 0 0
0.0075725180 0.0227850380 0 0
0.0069638700 0.0247954500 0 0
0.0064113510 0.0266397740 0 0
0.0059640790 0.0280618690 0 0
0.0056642540 0.0288635960 0 0
0.0055488130 0.0289322640 0 0
0.0056479310 0.0282520920 0 0
0.0059803470 0.0269012690 0 0
0.0065482350 0.0250388800 0 0
0.0073333940 0.0228847320 0 0
0.0082949140 0.0206933830 0 0
0.0093691080 0.0187242310 0 0
0.0104737310 0.0172114200 0 0
0.0115173570 0.0163378630 0 0
0.0124118380 0.0162164950 0 0
0.0130843880 0.0168805590 0 0
0.0134869770 0.0182837440 0 0
0.0136020650 0.0203097650 0 0
0.0134433090 0.0227888130 0 0
0.0130503410 0.0255169240 0 0
0.0124801470 0.0282755600 0 0
0.0117996480 0.0308508670 0 1
0.0110816950 0.0330521730 0 1
0.0104028520 0.0347279330 0 1
0.0098396980 0.0357765130 0 1
0.0094622320 0.0361500560 0 1
0.0093258060 0.0358518620 0 1
0.0094642910 0.0349295160 0 1
0.0098868340 0.0334661820 0 1
0.0105785910 0.0315723180 0 1
0.0115025470 0.0293794300 0 0
0.0125996040 0.0270356490 0 0
0.0137893160 0.0247007260 0 0
0.0149757120 0.0225374680 0 0
0.0160573480 0.0206982320 0 0
0.0169373400 0.0193076890 0 0
0.0175323770 0.0184460270 0 0
0.0177818650 0.0181383030 0 0
0.0176562880 0.0183532240 0 0
0.0171626550 0.0190100780 0 0
0.0163462760 0.0199905720 0 0
0.0152889730 0.0211535750 0 0
0.0141028270 0.0223519310 0 0
0.0129178760 0.0234498890 0 0
0.0118640390 0.0243385500 0 0
0.0110516500 0.0249466830 0 0
0.0105571950 0.0252455550 0 0
0.0104180630 0.0252478170 0 0
0.0106345820 0.0250006810 0 0
0.0111746600 0.0245742250 0 0
0.0119771210 0.0240480390 0 0
0.0129533450 0.0235014310 0 0
0.0139912520 0.0230105520 0 0
0.0149660320 0.0226508310 0 0
0.0157567940 0.0224987310 0 0
0.0162647590 0.0226270270 0 0
0.0164287630 0.0230927720 0 0
0.0162337080 0.0239220220 0 0
0.0157083530 0.0250961460 0 0
0.0149132020 0.0265431650 0 0
0.0139238630 0.0281372920 0 0
0.0128162660 0.0297097210 0 0
0.0116580020 0.0310714220 0 1
0.0105069150 0.0320441580 0 1
0.0094149150 0.0324917190 0 1
0.0084325470 0.0323427410 0 1
0.0076100410 0.0315995550 0 1
0.0069940560 0.0303320120 0 1
0.0066226780 0.0286600070 0 0
0.0065206680 0.0267321920 0 0
0.0066944520 0.0247078410 0 0
0.0071269510 0.0227440050 0 0
0.0077749590 0.0209858960 0 0
0.0085716800 0.0195582060 0 0
0.0094346020 0.0185570450 0 0
0.0102774830 0.0180432820 0 0
0.0110240740 0.0180377960 0 0
0.0116192970 0.0185183220 0 0
0.0120330970 0.0194177060 0 0
0.0122558440 0.0206251330 0 0
0.0122899090 0.0219933740 0 0
0.0121444210 0.0233539150 0 0
0.0118367820 0.0245380410 0 0
0.0113986470 0.0253985010 0 0
0.0108803890 0.0258264990 0 0
0.0103491250 0.0257622490 0 0
0.0098796350 0.0252005840 0 0
0.0095408100 0.0241929530 0 0
0.0093816920 0.0228445650 0 0
0.0094214770 0.0213045940 0 0
0.0096471270 0.0197497010 0 0
0.0100191090 0.0183636030 0 0
0.0104817490 0.0173156020 0 0
0.0109734210 0.0167406460 0 0
0.0114339490 0.0167240010 0 0
0.0118093850 0.0172931590 0 0
0.0120559550 0.0184170110 0 0
0.0121443830 0.0200094790 0 0
0.0120633830 0.0219350170 0 0
0.0118203320 0.0240165070 0 0
0.0114393710 0.0260484170 0 0
0.0109593920 0.0278169990 0 0
0.0104333520 0.0291261800 0 0
0.0099268880 0.0298247380 0 0
0.0095127660 0.0298282270 0 0
0.0092607630 0.0291294320 0 0
0.0092266880 0.0277952600 0 0
0.0094441770 0.0259535970 0 0
0.0099207480 0.0237752850 0 0
0.0106383950 0.0214537850 0 0
0.0115575210 0.0191833350 0 0
0.0126213590 0.0171382190 0 0
0.0137593530 0.0154571030 0 0
0.0148909880 0.0142343740 0 0
0.0159321510 0.0135177100 0 0
0.0168037760 0.0133110500 0 0
0.0174402350 0.0135826950 0 0
0.0177953730 0.0142765690 0 0
0.0178465980 0.0153222020 0 0
0.0175984480 0.0166401170 0 0
0.0170850770 0.0181432860 0 0
0.0163690870 0.0197373390 0 0
0.0155348770 0.0213216670 0 0
0.0146774090 0.0227931180 0 0
0.0138897130 0.0240533480 0 0
0.0132525810 0.0250192650 0 0
0.0128278270 0.0256342530 0 0
0.0126540940 0.0258773950 0 0
0.0127434380 0.0257688960 0 0
0.0130783180 0.0253710200 0 0
0.0136111460 0.0247840980 0 0
0.0142693010 0.0241370740 0 0
0.0149661200 0.0235726670 0 0
0.0156150010 0.0232284150 0 0
0.0161422880 0.0232163040 0 0
0.0164957930 0.0236051900 0 0
0.0166484250 0.0244101270 0 0
0.0165977870 0.0255901880 0 0
0.0163626130 0.0270530580 0 0
0.0159770410 0.0286637450 0 0
0.0154844180 0.0302565790 0 1
0.0149327440 0.0316512330 0 1
0.0143730980 0.0326729130 0 1
0.0138592130 0.0331750150 0 1
0.0134445060 0.0330603160 0 1
0.0131756990 0.0322953300 0 1
0.0130861170 0.0309138450 0 1
0.0131918190 0.0290098650 0 0
0.0134908890 0.0267236580 0 0
0.0139639830 0.0242253360 0 0
0.0145746150 0.0216991210 0 0
0.0152700040 0.0193292550 0 0
0.0159845900 0.0172867630 0 0
0.0166466370 0.0157164170 0 0
0.0171859510 0.0147246940 0 0
0.0175411530 0.0143702220 0 0
0.0176657620 0.0146587480 0 0
0.0175317810 0.0155442880 0 0
0.0171301580 0.0169358930 0 0
0.0164703610 0.0187070750 0 0
0.0155820040 0.0207049900 0 0
0.0145176280 0.0227589520 0 0
0.0133525870 0.0246902430 0 0
0.0121792830 0.0263257610 0 0
0.0110968260 0.0275164920 0 0
0.0101999330 0.0281578840 0 0
0.0095706560 0.0282065450 0 0
0.0092736190 0.0276889790 0 0
0.0093526900 0.0267004240 0 0
0.0098267320 0.0253934990 0 0
0.0106840940 0.0239585270 0 0
0.0118777430 0.0225996360 0 0
0.0133235390 0.0215106430 0 0
0.0149035170 0.0208532460 0 0
0.0164751740 0.0207392750 0 0
0.0178863960 0.0212189320 0 0
0.0189941470 0.0222762510 0 0
0.0196836100 0.0238316910 0 0
0.0198835900 0.0257505540 0 0
0.0195757260 0.0278552600 0 0
0.0187978390 0.0299401910 0 0
0.0176412100 0.0317893610 0 1
0.0162393720 0.0331970560 0 1
0.0147482320 0.0339898610 0 1
0.0133228540 0.0340467740 0 1
0.0120981620 0.0333135040 0 1
0.0111770240 0.0318086360 0 1
0.0106247520 0.0296222790 0 0
0.0104678000 0.0269087030 0 0
0.0106948510 0.0238737800 0 0
0.0112590910 0.0207582170 0 0
0.0120823460 0.0178179710 0 0
0.0130628840 0.0153027870 0 0
0.0140869020 0.0134336430 0 0
0.0150421710 0.0123807480 0 0
0.0158326010 0.0122446680 0 0
0.0163915970 0.0130436780 0 0
0.0166898410 0.0147100180 0 0
0.0167347420 0.0170957140 0 0
0.0165641010 0.0199866590 0 0
0.0162389460 0.0231237730 0 0
0.0158375250 0.0262306470 0 0
0.0154492870 0.0290452320 0 0
0.0151672260 0.0313502360 0 1
0.0150776790 0.0329960880 0 1
0.0152483000 0.0339125480 0 1
0.0157177570 0.0341088070 0 1
0.0164910760 0.0336645410 0 1
0.0175409410 0.0327152640 0 1
0.0188120420 0.0314349190 0 1
0.0202262530 0.0300174460 0 1
0.0216883530 0.0286577960 0 0
0.0230925010 0.0275328360 0 0
0.0243297890 0.0267836940 0 0
0.0252971980 0.0265019390 0 0
0.0259074020 0.0267218720 0 0
0.0260978820 0.0274201150 0 0
0.0258377700 0.0285213530 0 0
0.0251315990 0.0299066970 0 0
0.0240204000 0.0314220080 0 1
0.0225807790 0.0328871870 0 1
0.0209210120 0.0341091060 0 1
0.0191721410 0.0348986550 0 1
0.0174739680 0.0350899260 0 1
0.0159590310 0.0345598720 0 1
0.0147382420 0.0332475210 0 1
0.0138899180 0.0311703410 0 1
0.0134521300 0.0284332970 0 0
0.0134184700 0.0252258330 0 0
0.0137384970 0.0218043730 0 0
0.0143240390 0.0184628530 0 0
0.0150607870 0.0154982750 0 0
0.0158227820 0.0131784250 0 0
0.0164874150 0.0117154100 0 0
0.0169499010 0.0112461020 0 0
0.0171364960 0.0118202120 0 0
0.0170148480 0.0133964200 0 0
0.0165985420 0.0158461670 0 0
0.0159427720 0.0189642930 0 0
0.0151309740 0.0224862160 0 0
0.0142569110 0.0261116180 0 0
0.0134088760 0.0295330110 0 0
0.0126598490 0.0324651940 0 1
0.0120639540 0.0346723510 0 1
0.0116579260 0.0359915260 0 1
0.0114646210 0.0363503330 0 1
0.0114947970 0.0357749540 0 1
0.0117465110 0.0343859780 0 1
0.0122044950 0.0323830720 0 1
0.0128410900 0.0300214320 0 1
0.0136183240 0.0275830540 0 0
0.0144902560 0.0253458940 0 0
0.0154049400 0.0235541880 0 0
0.0163057090 0.0223935020 0 0
0.0171326270 0.0219740250 0 0
0.0178266210 0.0223236180 0 0
0.0183379620 0.0233890430 0 0
0.0186362490 0.0250431540 0 0
0.0187162570 0.0270979380 0 0
0.0185973840 0.0293242460 0 0
0.0183189110 0.0314768970 0 1
0.0179336500 0.0333214490 0 1
0.0175013950 0.0346584600 0 1
0.0170835690 0.0353417520 0 1
0.0167394800 0.0352890800 0 1
0.0165231580 0.0344863330 0 1
0.0164798700 0.0329872040 0 1
0.0166422160 0.0309089550 0 1
0.0170256750 0.0284235940 0 0
0.0176238200 0.0257433200 0 0
0.0184054580 0.0230996970 0 0
0.0193168340 0.0207185940 0 0
0.0202887160 0.0187955710 0 0
0.0212448400 0.0174762930 0 0
0.0221099710 0.0168436250 0 0
0.0228186460 0.0169104420 0 0
0.0233239680 0.0176176650 0 0
0.0236033570 0.0188395560 0 0
0.0236592070 0.0203986880 0 0
0.0235155460 0.0220897080 0 0
0.0232130970 0.0237071810 0 0
0.0228042760 0.0250716760 0 0
0.0223483380 0.0260496580 0 0
0.0219059090 0.0265651020 0 0
0.0215317290 0.0266025440 0 0
0.0212662990 0.0262020820 0 0
0.0211302580 0.0254478670 0 0
0.0211249810 0.0244530670 0 0
0.0212385190 0.0233447920 0 0
0.0214527730 0.0222512620 0 0
0.0217489550 0.0212919950 0 0
0.0221107380 0.0205706750 0 0
0.0225249060 0.0201696580 0 0
0.0229789740 0.0201453450 0 0
0.0234565510 0.0205250560 0 0
0.0239333230 0.0213064830 0 0
0.0243766370 0.0224585680 0 0
0.0247491010 0.0239207980 0 0
0.0250137450 0.0256001130 0 0
0.0251382870 0.0273690590 0 0
0.0250990980 0.0290705650 0 0
0.0248868730 0.0305316220 0 1
0.0245125330 0.0315830800 0 1
0.0240088250 0.0320799420 0 1
0.0234254080 0.0319177710 0 1
0.0228198620 0.0310446800 0 1
0.0222486280 0.0294703510 0 0
0.0217601730 0.0272722610 0 0
0.0213902090 0.0245972020 0 0
0.0211576840 0.0216545880 0 0
0.0210611190 0.0186979040 0 0
0.0210762470 0.0159940650 0 0
0.0211560970 0.0137866980 0 0
0.0212348220 0.0122633980 0 0
0.0212363420 0.0115351120 0 0
0.0210867010 0.0116299940 0 0
0.0207266190 0.0124992880 0 0
0.0201208910 0.0140310640 0 0
0.0192636000 0.0160677610 0 0
0.0181793000 0.0184244110 0 0
0.0169204610 0.0209059490 0 0
0.0155622850 0.0233229600 0 0
0.0141959100 0.0255055050 0 0
0.0129192730 0.0273145740 0 0
0.0118250670 0.0286503290 0 0
0.0109880830 0.0294561510 0 0
0.0104558310 0.0297180490 0 0
0.0102450330 0.0294606350 0 0
0.0103436090 0.0287424600 0 0
0.0107158210 0.0276524550 0 0
0.0113082340 0.0263066710 0 0
0.0120548520 0.0248434930 0 0
0.0128812480 0.0234158990 0 0
0.0137095580 0.0221797760 0 0
0.0144661470 0.0212780220 0 0
0.0150908530 0.0208217670 0 0
0.0155443920 0.0208721030 0 0
0.0158114900 0.0214268130 0 0
0.0159001490 0.0224163280 0 0
0.0158387430 0.0237115120 0 0
0.0156717870 0.0251427980 0 0
0.0154544780 0.0265262730 0 0
0.0152461510 0.0276896900 0 0
0.0151032960 0.0284928620 0 0
0.0150734820 0.0288403650 0 0
0.0151916420 0.0286861870 0 0
0.0154789840 0.0280311960 0 0
0.0159433410 0.0269170230 0 0
0.0165798360 0.0254207070 0 0
0.0173716360 0.0236513820 0 0
0.0182902120 0.0217469010 0 0
0.0192944270 0.0198675450 0 0
0.0203295650 0.0181846560 0 0
0.0213289740 0.0168631600 0 0
0.0222201350 0.0160396840 0 0
0.0229341880 0.0158011830 0 0
0.0234158730 0.0161695830 0 0
0.0236314740 0.0170961340 0 0
0.0235740370 0.0184672090 0 0
0.0232651750 0.0201209570 0 0
0.0227521800 0.0218706590 0 0
0.0221006440 0.0235287120 0 0
0.0213851890 0.0249268260 0 0
0.0206815800 0.0259317390 0 0
0.0200615820 0.0264573280 0 0
0.0195888580 0.0264725620 0 0
0.0193136300 0.0260034730 0 0
0.0192663510 0.0251284420 0 0
0.0194522880 0.0239684160 0 0
0.0198486900 0.0226745140 0 0
0.0204057740 0.0214136930 0 0
0.0210516580 0.0203520350 0 0
0.0216997830 0.0196371160 0 0
0.0222575900 0.0193827350 0 0
0.0226369130 0.0196581410 0 0
0.0227659400 0.0204811260 0 0
0.0225996900 0.0218133140 0 0
0.0221252710 0.0235582020 0 0
0.0213610200 0.0255647850 0 0
0.0203516110 0.0276387840 0 0
0.0191624780 0.0295611600 0 0
0.0178757490 0.0311120440 0 1
0.0165868730 0.0320970120 0 1
0.0153999470 0.0323713880 0 1
0.0144204190 0.0318583190 0 1
0.0137443230 0.0305576500 0 1
0.0134451430 0.0285447620 0 0
0.0135622580 0.0259612140 0 0
0.0140950970 0.0230006350 0 0
0.0150039020 0.0198922930 0 0
0.0162147800 0.0168829390 0 0
0.0176265100 0.0142170820 0 0
0.0191188370 0.0121164760 0 0
0.0205634680 0.0107606780 0 0
0.0218375270 0.0102709860 0 0
0.0228367710 0.0106991820 0 0
0.0234864790 0.0120213990 0 0
0.0237497060 0.0141375780 0 0
0.0236308170 0.0168768230 0 0
0.0231706060 0.0200084880 0 0
0.0224334820 0.0232592930 0 0
0.0214926460 0.0263368990 0 0
0.0204192990 0.0289584670 0 0
0.0192780710 0.0308807700 0 1
0.0181267020 0.0319275620 0 1
0.0170162380 0.0320097900 0 1
0.0159904780 0.0311351400 0 1
0.0150858810 0.0294057960 0 0
0.0143315460 0.0270060470 0 0
0.0137474370 0.0241824290 0 0
0.0133410600 0.0212183500 0 0
0.0131050470 0.0184047620 0 0
0.0130178840 0.0160095640 0 0
0.0130479960 0.0142496420 0 0
0.0131589200 0.0132696640 0 0
0.0133127530 0.0131303640 0 0
0.0134717250 0.0138066420 0 0
0.0135996130 0.0151942580 0 0
0.0136639380 0.0171238690 0 0
0.0136397700 0.0193814330 0 0
0.0135159050 0.0217327720 0 0
0.0133018750 0.0239483840 0 0
0.0130322180 0.0258246350 0 0
0.0127644630 0.0271996350 0 0
0.0125698930 0.0279643220 0 0
0.0125205420 0.0280697050 0 0
0.0126776010 0.0275301870 0 0
0.0130831050 0.0264219070 0 0
0.0137537430 0.0248756330 0 0
0.0146763480 0.0230647400 0 0
0.0158066040 0.0211890820 0 0
0.0170728780 0.0194563900 0 0
0.0183854350 0.0180638030 0 0
0.0196487050 0.0171809990 0 0
0.0207734650 0.0169342860 0 0
0.0216870070 0.0173917860 0 0
0.0223405050 0.0185522040 0 0
0.0227134680 0.0203400880 0 0
0.0228154280 0.0226088010 0 0
0.0226840020 0.0251508860 0 0
0.0223781310 0.0277153710 0 0
0.0219681440 0.0300325700 0 1
0.0215270740 0.0318463900 0 1
0.0211252970 0.0329506520 0 1
0.0208262710 0.0332215610 0 1
0.0206812170 0.0326369200 0 1
0.0207244240 0.0312767220 0 1
0.0209720940 0.0293069360 0 0
0.0214239890 0.0269529090 0 0
0.0220644180 0.0244685770 0 0
0.0228621550 0.0221054920 0 0
0.0237720120 0.0200846730 0 0
0.0247387130 0.0185748630 0 0
0.0257011460 0.0176804200 0 0
0.0265959310 0.0174399290 0 0
0.0273605090 0.0178339540 0 0
0.0279365900 0.0187978100 0 0
0.0282752740 0.0202338540 0 0
0.0283444450 0.0220193140 0 0
0.0281365750 0.0240103780 0 0
0.0276736260 0.0260473030 0 0
0.0270071900 0.0279639560 0 0
0.0262139460 0.0296008550 0 0
0.0253872540 0.0308194620 0 1
0.0246264610 0.0315167350 0 1
0.0240255670 0.0316384860 0 1
0.0236622990 0.0311886830 0 1
0.0235888240 0.0302321450 0 1
0.0238256070 0.0288893520 0 0
0.0243595070 0.0273237100 0 0
0.0251466000 0.0257232970 0 0
0.0261193260 0.0242796280 0 0
0.0271960450 0.0231659260 0 0
0.0282902810 0.0225173540 0 0
0.0293180040 0.0224153060 0 0
0.0302031620 0.0228772380 1 0
0.0308820030 0.0238533720 1 0
0.0313059520 0.0252313950 1 0
0.0314432450 0.0268495090 1 0
0.0312803610 0.0285167760 1 0
0.0308242270 0.0300378310 1 1
0.0301050920 0.0312374870 1 1
0.0291779180 0.0319807380 0 1
0.0281188960 0.0321851790 0 1
0.0270161410 0.0318246770 0 1
0.0259581660 0.0309247270 0 1
0.0250251060 0.0295513030 0 0
0.0242841700 0.0277973360 0 0
0.0237862950 0.0257724090 0 0
0.0235606770 0.0235990130 0 0
0.0236085130 0.0214138790 0 0
0.0239005310 0.0193687670 0 0
0.0243809240 0.0176237370 0 0
0.0249759250 0.0163292090 0 0
0.0256032600 0.0155998090 0 0
0.0261801310 0.0154891040 0 0
0.0266300110 0.0159753640 0 0
0.0268896640 0.0169636060 0 0
0.0269172840 0.0183022280 0 0
0.0267006100 0.0198078540 0 0
0.0262615990 0.0212909880 0 0
0.0256542670 0.0225772960 0 0
0.0249561660 0.0235232670 0 0
0.0242572410 0.0240275540 0 0
0.0236484140 0.0240392470 0 0
0.0232094780 0.0235628730 0 0
0.0229969180 0.0226585400 0 0
0.0230349510 0.0214356380 0 0
0.0233127620 0.0200403430 0 0
0.0237884120 0.0186394000 0 0
0.0243979970 0.0174033380 0 0
0.0250674710 0.0164913300 0 0
0.0257234020 0.0160381920 0 0
0.0262994990 0.0161429770 0 0
0.0267390430 0.0168591460 0 0
0.0269963940 0.0181870390 0 0
0.0270400170 0.0200696870 0 0
0.0268563980 0.0223934050 0 0
0.0264526750 0.0249940250 0 0
0.0258567540 0.0276682790 0 0
0.0251153310 0.0301893480 0 1
0.0242904780 0.0323261080 0 1
0.0234543210 0.0338653050 0 1
0.0226816280 0.0346349250 0 1
0.0220422220 0.0345258680 0 1
0.0215955520 0.0335084100 0 1
0.0213872850 0.0316404350 0 1
0.0214459090 0.0290656680 0 0
0.0217784640 0.0260014610 0 0
0.0223669570 0.0227170060 0 0
0.0231677780 0.0195046640 0 0
0.0241152980 0.0166488780 0 0
0.0251295240 0.0143973220 0 0
0.0261264240 0.0129376160 0 0
0.0270278230 0.0123815160 0 0
0.0277679920 0.0127573100 0 0
0.0282965740 0.0140102510 0 0
0.0285795820 0.0160099460 0 0
0.0286003570 0.0185630660 0 0
0.0283614610 0.0214304510 0 0
0.0278871770 0.0243484870 0 0
0.0272243570 0.0270537770 0 0
0.0264386200 0.0293087270 0 0
0.0256056440 0.0309247480 0 1
0.0248013330 0.0317792290 0 1
0.0240950670 0.0318237230 0 1
0.0235467310 0.0310843360 0 1
0.0232046090 0.0296575360 0 0
0.0231014890 0.0277035280 0 0
0.0232497070 0.0254369720 0 0
0.0236374980 0.0231126380 0 0
0.0242274720 0.0210027240 0 0
0.0249571830 0.0193658340 0 0
0.0257433370 0.0184135040 0 0
0.0264914480 0.0182825490 0 0
0.0271099640 0.0190185510 0 0
0.0275251190 0.0205722130 0 0
0.0276923870 0.0228085440 0 0
0.0276019450 0.0255270570 0 0
0.0272779870 0.0284879410 0 0
0.0267730880 0.0314379140 0 1
0.0261585620 0.0341324540 0 1
0.0255121640 0.0363544860 0 1
0.0249061030 0.0379298070 0 1
0.0243982050 0.0387386950 0 1
0.0240267960 0.0387230360 0 1
0.0238085640 0.0378884600 0 1
0.0237393300 0.0363014310 0 1
0.0237976940 0.0340821620 0 1
0.0239502930 0.0313947560 0 1
0.0241575870 0.0284361560 0 0
0.0243800560 0.0254247720 0 0
0.0245835710 0.0225878360 0 0
0.0247418160 0.0201457570 0 0
0.0248354380 0.0182933560 0 0
0.0248502600 0.0171804100 0 0
0.0247776140 0.0168946850 0 0
0.0246179220 0.0174497650 0 0
0.0243857300 0.0187798370 0 0
0.0241126600 0.0207438850 0 0
0.0238459230 0.0231401070 0 0
0.0236426750 0.0257285180 0 0
0.0235611040 0.0282577740 0 0
0.0236486570 0.0304920240 0 1
0.0239292480 0.0322339930 0 1
0.0243935770 0.0333417840 0 1
0.0249972520 0.0337388910 0 1
0.0256690900 0.0334181550 0 1
0.0263265850 0.0324396710 0 1
0.0268902320 0.0309217760 0 1
0.0272890830 0.0290253760 0 0
0.0274580290 0.0269342010 0 0
0.0273340710 0.0248345120 0 0
0.0268565210 0.0228961200 0 0
0.0259701430 0.0212549530 0 0
0.0246295750 0.0199985740 0 0
0.0228054090 0.0191576750 0 0
0.0204916890 0.0187052600 0 0
0.0177126560 0.0185621580 0 0
0.0145263040 0.0186065760 0 0
0.0110229280 0.0186868560 0 0
0.0073173260 0.0186373090 0 0
0.0035350490 0.0182963540 0 0
-0.0002034420 0.0175254920 0 0
-0.0037952490 0.0162268080 0 0
-0.0071621390 0.0143559120 0 0
-0.0102543970 0.0119278110 0 0
-0.0130523530 0.0090150410 0 0
-0.0155639340 0.0057393490 0 0
-0.0178183100 0.0022594330 0 0
-0.0198592070 -0.0012435110 0 0
-0.0217413470 -0.0045824470 0 0
-0.0235297220 -0.0075834670 0 0
-0.0252982030 -0.0101048380 0 0
-0.0271244310 -0.0120524900 0 0
-0.0290812620 -0.0133895980 0 0
-0.0312275990 -0.0141393640 -1 0
-0.0336011060 -0.0143800030 -1 0
-0.0362136650 -0.0142322960 -1 0
-0.0390496450 -0.0138429640 -1 0
-0.0420667670 -0.0133680600 -1 0
-0.0451996530 -0.0129590740 -1 0
-0.0483657720 -0.0127525740 -1 0
-0.0514723610 -0.0128627070 -1 0
-0.0544233460 -0.0133753920 -1 0
-0.0571264870 -0.0143431620 -1 0
-0.0595007200 -0.0157796170 -1 0
-0.0614831400 -0.0176537250 -1 0
-0.0630348390 -0.0198865910 -1 0
-0.0641441750 -0.0223536390 -1 0
-0.0648271200 -0.0248931080 -1 0
-0.0651261890 -0.0273202290 -1 0
-0.0651089370 -0.0294462080 -1 0
-0.0648644260 -0.0311003950 -1 -1
-0.0644951890 -0.0321523360 -1 -1
-0.0641046290 -0.0325297720 -1 -1
-0.0637833350 -0.0322297670 -1 -1
-0.0635989640 -0.0313214480 -1 -1
-0.0635918410 -0.0299395390 -1 0
-0.0637745060 -0.0282693620 -1 0
-0.0641325970 -0.0265256550 -1 0
-0.0646275840 -0.0249283340 -1 0
-0.0652040690 -0.0236789840 -1 0
-0.0658009360 -0.0229425750 -1 0
-0.0663609150 -0.0228370810 -1 0
-0.0668345100 -0.0234292160 -1 0
-0.0671800320 -0.0247317840 -1 0
-0.0673645090 -0.0267000770 -1 0
-0.0673683200 -0.0292287050 -1 0
-0.0671920770 -0.0321526060 -1 -1
-0.0668614190 -0.0352560920 -1 -1
-0.0664260630 -0.0382915390 -1 -1
-0.0659526030 -0.0410059080 -1 -1
-0.0655138800 -0.0431711330 -1 -1
-0.0651789190 -0.0446135800 -1 -1
-0.0650055500 -0.0452367630 -1 -1
-0.0650358100 -0.0450322490 -1 -1
-0.0652935440 -0.0440776370 -1 -1
-0.0657827440 -0.0425239720 -1 -1
-0.0664856500 -0.0405751050 -1 -1
-0.0673625460 -0.0384611530 -1 -1
-0.0683554160 -0.0364097480 -1 -1
-0.0693940370 -0.0346205380 -1 -1
-0.0704016000 -0.0332474860 -1 -1
-0.0712995130 -0.0323901110 -1 -1
-0.0720131860 -0.0320914750 -1 -1
-0.0724798010 -0.0323397020 -1 -1
-0.0726564840 -0.0330712250 -1 -1
-0.0725258050 -0.0341763290 -1 -1
-0.0720974760 -0.0355084770 -1 -1
-0.0714082610 -0.0368974360 -1 -1
-0.0705219490 -0.0381641920 -1 -1
-0.0695275990 -0.0391358390 -1 -1
-0.0685320080 -0.0396608730 -1 -1
-0.0676452110 -0.0396259630 -1 -1
-0.0669634630 -0.0389724140 -1 -1
-0.0665560800 -0.0377073350 -1 -1
-0.0664588390 -0.0359050200 -1 -1
-0.0666729590 -0.0336983980 -1 -1
-0.0671681530 -0.0312644180 -1 -1
-0.0678886380 -0.0288068340 -1 0
-0.0687607750 -0.0265371660 -1 0
-0.0697003310 -0.0246540730 -1 0
-0.0706177410 -0.0233228340 -1 0
-0.0714231480 -0.0226572190 -1 0
-0.0720344190 -0.0227059500 -1 0
-0.0723870130 -0.0234464950 -1 0
-0.0724410410 -0.0247885970 -1 0
-0.0721830190 -0.0265869160 -1 0
-0.0716240220 -0.0286589730 -1 0
-0.0707970720 -0.0308040610 -1 -1
-0.0697543370 -0.0328202530 -1 -1
-0.0685626940 -0.0345189350 -1 -1
-0.0672973800 -0.0357385070 -1 -1
-0.0660357820 -0.0363584730 -1 -1
-0.0648535910 -0.0363122260 -1 -1
-0.0638228110 -0.0355954760 -1 -1
-0.0630083730 -0.0342694820 -1 -1
-0.0624614610 -0.0324599230 -1 -1
-0.0622112130 -0.0303503530 -1 -1
-0.0622579510 -0.0281671460 -1 0
-0.0625707080 -0.0261550630 -1 0
-0.0630907570 -0.0245473120 -1 0
-0.0637406020 -0.0235368590 -1 0
-0.0644354020 -0.0232547030 -1 0
-0.0650929310 -0.0237572260 -1 0
-0.0656401010 -0.0250217970 -1 0
-0.0660174000 -0.0269495130 -1 0
-0.0661839690 -0.0293751460 -1 0
-0.0661241520 -0.0320847460 -1 -1
-0.0658532170 -0.0348395370 -1 -1
-0.0654188620 -0.0374019300 -1 -1
-0.0648963910 -0.0395589080 -1 -1
-0.0643773670 -0.0411405520 -1 -1
-0.0639545340 -0.0420335940 -1 -1
-0.0637079940 -0.0421898890 -1 -1
-0.0636963150 -0.0416295740 -1 -1
-0.0639533620 -0.0404389580 -1 -1
-0.0644888640 -0.0387628090 -1 -1
-0.0652892870 -0.0367902810 -1 -1
-0.0663177530 -0.0347347710 -1 -1
-0.0675149550 -0.0328102470 -1 -1
-0.0688023860 -0.0312082530 -1 -1
-0.0700874720 -0.0300797430 -1 -1
-0.0712713170 -0.0295239400 -1 0
-0.0722596920 -0.0295836530 -1 0
-0.0729749990 -0.0302450100 -1 -1
-0.0733657980 -0.0314399870 -1 -1
-0.0734127550 -0.0330505610 -1 -1
-0.0731311650 -0.0349142520 -1 -1
-0.0725687060 -0.0368330810 -1 -1
-0.0717970610 -0.0385887890 -1 -1
-0.0708994160 -0.0399647430 -1 -1
-0.0699583000 -0.0407715060 -1 -1
-0.0690471030 -0.0408712180 -1 -1
-0.0682257450 -0.0401960350 -1 -1
-0.0675393130 -0.0387573420 -1 -1
-0.0670185360 -0.0366440510 -1 -1
-0.0666813510 -0.0340104570 -1 -1
-0.0665338130 -0.0310571760 -1 -1
-0.0665683620 -0.0280102850 -1 0
-0.0667601450 -0.0251018810 -1 0
-0.0670646120 -0.0225521180 -1 0
-0.0674190270 -0.0205518090 -1 0
-0.0677491570 -0.0192459780 -1 0
-0.0679800150 -0.0187199680 -1 0
-0.0680461430 -0.0189900650 -1 0
-0.0678979940 -0.0200002930 -1 0
-0.0675062570 -0.0216259870 -1 0
-0.0668663730 -0.0236840290 -1 0
-0.0660016880 -0.0259497380 -1 0
-0.0649632310 -0.0281795750 -1 0
-0.0638253850 -0.0301371210 -1 -1
-0.0626766030 -0.0316188770 -1 -1
-0.0616060010 -0.0324765940 -1 -1
-0.0606898490 -0.0326326120 -1 -1
-0.0599825540 -0.0320856670 -1 -1
-0.0595136290 -0.0309075390 -1 -1
-0.0592892420 -0.0292329760 -1 0
-0.0592958450 -0.0272451790 -1 0
-0.0595027930 -0.0251580630 -1 0
-0.0598620130 -0.0231955390 -1 0
-0.0603067930 -0.0215681740 -1 0
-0.0607541600 -0.0204493800 -1 0
-0.0611132120 -0.0199553110 -1 0
-0.0612985050 -0.0201322020 -1 0
-0.0612449930 -0.0209523440 -1 0
-0.0609192600 -0.0223181460 -1 0
-0.0603235180 -0.0240741390 -1 0
-0.0594935140 -0.0260267450 -1 0
-0.0584932170 -0.0279692720 -1 0
-0.0574068480 -0.0297071700 -1 0
-0.0563278850 -0.0310787260 -1 -1
-0.0553468250 -0.0319686630 -1 -1
-0.0545407530 -0.0323145220 -1 -1
-0.0539664180 -0.0321073840 -1 -1
-0.0536569730 -0.0313893190 -1 -1
-0.0536220520 -0.0302490780 -1 -1
-0.0538507290 -0.0288157840 -1 0
-0.0543157360 -0.0272493820 -1 0
-0.0549766090 -0.0257270200 -1 0
-0.0557812790 -0.0244263950 -1 0
-0.0566676470 -0.0235086650 -1 0
-0.0575664980 -0.0231029530 -1 0
-0.0584061370 -0.0232932340 -1 0
-0.0591183460 -0.0241090570 -1 0
-0.0596450400 -0.0255226110 -1 0
-0.0599449050 -0.0274535350 -1 0
-0.0599983500 -0.0297799730 -1 0
-0.0598092410 -0.0323517760 -1 -1
-0.0594042560 -0.0350012240 -1 -1
-0.0588316600 -0.0375496340 -1 -1
-0.0581589420 -0.0398127410 -1 -1
-0.0574671390 -0.0416093990 -1 -1
-0.0568414960 -0.0427763270 -1 -1
-0.0563605110 -0.0431880470 -1 -1
-0.0560859920 -0.0427771100 -1 -1
-0.0560565880 -0.0415485050 -1 -1
-0.0562864440 -0.0395845200 -1 -1
-0.0567678710 -0.0370386410 -1 -1
-0.0574741420 -0.0341182890 -1 -1
-0.0583600860 -0.0310591770 -1 -1
-0.0593621110 -0.0280979900 -1 0
-0.0604005110 -0.0254499310 -1 0
-0.0613855940 -0.0232928740 -1 0
-0.0622275990 -0.0217559980 -1 0
-0.0628486530 -0.0209116090 -1 0
-0.0631934350 -0.0207710840 -1 0
-0.0632358020 -0.0212854630 -1 0
-0.0629811880 -0.0223500010 -1 0
-0.0624665530 -0.0238126090 -1 0
-0.0617589840 -0.0254871390 -1 0
-0.0609513600 -0.0271714770 -1 0
-0.0601524130 -0.0286689310 -1 0
-0.0594716570 -0.0298098940 -1 0
-0.0590028600 -0.0304695590 -1 -1
-0.0588093510 -0.0305789130 -1 -1
-0.0589144920 -0.0301302330 -1 -1
-0.0593012430 -0.0291792750 -1 0
-0.0599202360 -0.0278432120 -1 0
-0.0607005330 -0.0262913380 -1 0
-0.0615592750 -0.0247269080 -1 0
-0.0624107340 -0.0233614950 -1 0
-0.0631747220 -0.0223866330 -1 0
-0.0637826540 -0.0219488160 -1 0
-0.0641809780 -0.0221320490 -1 0
-0.0643335480 -0.0229493180 -1 0
-0.0642245290 -0.0243424240 -1 0
-0.0638621850 -0.0261890690 -1 0
-0.0632818360 -0.0283169940 -1 0
-0.0625452310 -0.0305248580 -1 -1
-0.0617355620 -0.0326068250 -1 -1
-0.0609494770 -0.0343761170 -1 -1
-0.0602871910 -0.0356840530 -1 -1
-0.0598412850 -0.0364329490 -1 -1
-0.0596864380 -0.0365828200 -1 -1
-0.0598735820 -0.0361532650 -1 -1
-0.0604297980 -0.0352216060 -1 -1
-0.0613611370 -0.0339161800 -1 -1
-0.0626538790 -0.0324028540 -1 -1
-0.0642724630 -0.0308662150 -1 -1
-0.0661565020 -0.0294910720 -1 0
-0.0682206900 -0.0284491450 -1 0
-0.0703593920 -0.0278903200 -1 0
-0.0724548500 -0.0279336950 -1 0
-0.0743861460 -0.0286545950 -1 0
-0.0760374030 -0.0300682760 -1 -1
-0.0773063100 -0.0321157490 -1 -1
-0.0781135270 -0.0346587020 -1 -1
-0.0784111400 -0.0374881200 -1 -1
-0.0781885170 -0.0403461440 -1 -1
-0.0774755540 -0.0429565030 -1 -1
-0.0763428070 -0.0450574440 -1 -1
-0.0748963530 -0.0464320330 -1 -1
-0.0732659720 -0.0469321340 -1 -1
-0.0715890710 -0.0464931100 -1 -1
-0.0699954860 -0.0451376360 -1 -1
-0.0685962680 -0.0429697580 -1 -1
-0.0674766210 -0.0401623360 -1 -1
-0.0666931200 -0.0369404990 -1 -1
-0.0662740980 -0.0335623060 -1 -1
-0.0662191730 -0.0302967550 -1 -1
-0.0664956590 -0.0273995470 -1 0
-0.0670359720 -0.0250885670 -1 0
-0.0677420980 -0.0235227340 -1 0
-0.0684984220 -0.0227880290 -1 0
-0.0691894970 -0.0228922690 -1 0
-0.0697184330 -0.0237676190 -1 0
-0.0700213260 -0.0252794480 -1 0
-0.0700730990 -0.0272407620 -1 0
-0.0698841740 -0.0294311710 -1 0
-0.0694931600 -0.0316181730 -1 -1
-0.0689600570 -0.0335781770 -1 -1
-0.0683592730 -0.0351159220 -1 -1
-0.0677703800 -0.0360816580 -1 -1
-0.0672670140 -0.0363846850 -1 -1
-0.0669067160 -0.0360012130 -1 -1
-0.0667246360 -0.0349758010 -1 -1
-0.0667316810 -0.0334175670 -1 -1
-0.0669163560 -0.0314921770 -1 -1
-0.0672503650 -0.0294091190 -1 0
-0.0676965500 -0.0274038940 -1 0
-0.0682148180 -0.0257158290 -1 0
-0.0687636530 -0.0245624870 -1 0
-0.0692997950 -0.0241132230 -1 0
-0.0697792520 -0.0244669490 -1 0
-0.0701601360 -0.0256388600 -1 0
-0.0704067030 -0.0275578500 -1 0
-0.0704939400 -0.0300737430 -1 -1
-0.0704118300 -0.0329730310 -1 -1
-0.0701687990 -0.0360023090 -1 -1
-0.0697943330 -0.0388976760 -1 -1
-0.0693399860 -0.0414158070 -1 -1
-0.0688768830 -0.0433609460 -1 -1
-0.0684882330 -0.0446028440 -1 -1
-0.0682574890 -0.0450836080 -1 -1
-0.0682545200 -0.0448154040 -1 -1
-0.0685226600 -0.0438734940 -1 -1
-0.0690692200 -0.0423882320 -1 -1
-0.0698619270 -0.0405364530 -1 -1
-0.0708339090 -0.0385292010 -1 -1
-0.0718975680 -0.0365928520 -1 -1
-0.0729623990 -0.0349448060 -1 -1
-0.0739490200 -0.0337685630 -1 -1
-0.0747953170 -0.0331932780 -1 -1
-0.0754565940 -0.0332815540 -1 -1
-0.0759039700 -0.0340271920 -1 -1
-0.0761235280 -0.0353612110 -1 -1
-0.0761161700 -0.0371621500 -1 -1
-0.0758969830 -0.0392675230 -1 -1
-0.0754930270 -0.0414858370 -1 -1
-0.0749399700 -0.0436100900 -1 -1
-0.0742788870 -0.0454334900 -1 -1
-0.0735537260 -0.0467673610 -1 -1
-0.0728096350 -0.0474601820 -1 -1
-0.0720930910 -0.0474151550 -1 -1
-0.0714531430 -0.0466029130 -1 -1
-0.0709403130 -0.0450673500 -1 -1
-0.0706009330 -0.0429241970 -1 -1
-0.0704691820 -0.0403519990 -1 -1
-0.0705610270 -0.0375753770 -1 -1
-0.0708717010 -0.0348418580 -1 -1
-0.0713752350 -0.0323951950 -1 -1
-0.0720246620 -0.0304486790 -1 -1
-0.0727539240 -0.0291614780 -1 0
-0.0734835830 -0.0286209840 -1 0
-0.0741303830 -0.0288343550 -1 0
-0.0746181610 -0.0297309030 -1 0
-0.0748869620 -0.0311742670 -1 -1
-0.0748989120 -0.0329814280 -1 -1
-0.0746420600 -0.0349451910 -1 -1
-0.0741334520 -0.0368571040 -1 -1
-0.0734201740 -0.0385281050 -1 -1
-0.0725759820 -0.0398047100 -1 -1
-0.0716928530 -0.0405800870 -1 -1
-0.0708693110 -0.0408005090 -1 -1
-0.0701979250 -0.0404676030 -1 -1
-0.0697537960 -0.0396365790 -1 -1
-0.0695856390 -0.0384110270 -1 -1
-0.0697100750 -0.0369346790 -1 -1
-0.0701089530 -0.0353799560 -1 -1
-0.0707298970 -0.0339333690 -1 -1
-0.0714905770 -0.0327783750 -1 -1
-0.0722867080 -0.0320767360 -1 -1
-0.0730031130 -0.0319502960 -1 -1
-0.0735268280 -0.0324657650 -1 -1
-0.0737610990 -0.0336240720 -1 -1
-0.0736378540 -0.0353548810 -1 -1
-0.0731249800 -0.0375182150 -1 -1
-0.0722274120 -0.0399162120 -1 -1
-0.0709856280 -0.0423153500 -1 -1
-0.0694741140 -0.0444750920 -1 -1
-0.0677967610 -0.0461774810 -1 -1
-0.0660752930 -0.0472535090 -1 -1
-0.0644331860 -0.0476030360 -1 -1
-0.0629817420 -0.0472055450 -1 -1
-0.0618113560 -0.0461207140 -1 -1
-0.0609865140 -0.0444801370 -1 -1
-0.0605425180 -0.0424723300 -1 -1
-0.0604827020 -0.0403228820 -1 -1
-0.0607756470 -0.0382717330 -1 -1
-0.0613541890 -0.0365494370 -1 -1
-0.0621199830 -0.0353537560 -1 -1
-0.0629550020 -0.0348290490 -1 -1
-0.0637364830 -0.0350521030 -1 -1
-0.0643509610 -0.0360262180 -1 -1
-0.0647060420 -0.0376822580 -1 -1
-0.0647404130 -0.0398847460 -1 -1
-0.0644309230 -0.0424424120 -1 -1
-0.0637943100 -0.0451233030 -1 -1
-0.0628835600 -0.0476743310 -1 -1
-0.0617812530 -0.0498444060 -1 -1
-0.0605911480 -0.0514088580 -1 -1
-0.0594270620 -0.0521914070 -1 -1
-0.0583988320 -0.0520804420 -1 -1
-0.0575981580 -0.0510386230 -1 -1
-0.0570883260 -0.0491064160 -1 -1
-0.0568998480 -0.0463999760 -1 -1
-0.0570314240 -0.0431031250 -1 -1
-0.0574549470 -0.0394528680 -1 -1
-0.0581237490 -0.0357183840 -1 -1
-0.0589820690 -0.0321750140 -1 -1
-0.0599723190 -0.0290768220 -1 0
-0.0610380310 -0.0266319230 -1 0
-0.0621229260 -0.0249834720 -1 0
-0.0631685200 -0.0241979780 -1 0
-0.0641134060 -0.0242622890 -1 0
-0.0648961450 -0.0250894540 -1 0
-0.0654614370 -0.0265313190 -1 0
-0.0657684910 -0.0283948750 -1 0
-0.0658003870 -0.0304606460 -1 -1
-0.0655716190 -0.0325025590 -1 -1
-0.0651300780 -0.0343085650 -1 -1
-0.0645520130 -0.0357006540 -1 -1
-0.0639314140 -0.0365525360 -1 -1
-0.0633659810 -0.0368029230 -1 -1
-0.0629421420 -0.0364617340 -1 -1
-0.0627220480 -0.0356073560 -1 -1
-0.0627349140 -0.0343753590 -1 -1
-0.0629738420 -0.0329411130 -1 -1
-0.0633988890 -0.0314991080 -1 -1
-0.0639458480 -0.0302414990 -1 -1
-0.0645370810 -0.0293381740 -1 0
-0.0650907160 -0.0289197810 -1 0
-0.0655282700 -0.0290640870 -1 0
-0.0657821770 -0.0297865970 -1 0
-0.0658032030 -0.0310383660 -1 -1
-0.0655668790 -0.0327140980 -1 -1
-0.0650775020 -0.0346696220 -1 -1
-0.0643683260 -0.0367425350 -1 -1
-0.0634981920 -0.0387690660 -1 -1
-0.0625456710 -0.0405945530 -1 -1
-0.0616007960 -0.0420794480 -1 -1
-0.0607541790 -0.0431041330 -1 -1
-0.0600849340 -0.0435756310 -1 -1
-0.0596508560 -0.0434379360 -1 -1
-0.0594840280 -0.0426842900 -1 -1
-0.0595922140 -0.0413665540 -1 -1
-0.0599632030 -0.0395969780 -1 -1
-0.0605675240 -0.0375398260 -1 -1
-0.0613568280 -0.0353933050 -1 -1
-0.0622611390 -0.0333654470 -1 -1
-0.0631915910 -0.0316495770 -1 -1
-0.0640507620 -0.0304041180 -1 -1
-0.0647460430 -0.0297381640 -1 0
-0.0652004040 -0.0297021210 -1 0
-0.0653589710 -0.0302834270 -1 -1
-0.0651932340 -0.0314081150 -1 -1
-0.0647037680 -0.0329480090 -1 -1
-0.0639202820 -0.0347326550 -1 -1
-0.0628989110 -0.0365652780 -1 -1
-0.0617181270 -0.0382416210 -1 -1
-0.0604732220 -0.0395696200 -1 -1
-0.0592681960 -0.0403877850 -1 -1
-0.0582057890 -0.0405808620 -1 -1
-0.0573775750 -0.0400920960 -1 -1
-0.0568547530 -0.0389308820 -1 -1
-0.0566799430 -0.0371736180 -1 -1
-0.0568618500 -0.0349565310 -1 -1
-0.0573756340 -0.0324614430 -1 -1
-0.0581701650 -0.0298968230 -1 0
-0.0591786300 -0.0274770910 -1 0
-0.0603256400 -0.0254031960 -1 0
-0.0615286060 -0.0238461410 -1 0
-0.0626990700 -0.0229331200 -1 0
-0.0637496460 -0.0227362610 -1 0
-0.0646045320 -0.0232659680 -1 0
-0.0652076340 -0.0244706260 -1 0
-0.0655260000 -0.0262425120 -1 0
-0.0655507520 -0.0284285970 -1 0
-0.0652978190 -0.0308444280 -1 -1
-0.0648078360 -0.0332894450 -1 -1
-0.0641432780 -0.0355636110 -1 -1
-0.0633823920 -0.0374857010 -1 -1
-0.0626108080 -0.0389115800 -1 -1
-0.0619116850 -0.0397490420 -1 -1
-0.0613561020 -0.0399661530 -1 -1
-0.0609960050 -0.0395914880 -1 -1
-0.0608600320 -0.0387065170 -1 -1
-0.0609507900 -0.0374327740 -1 -1
-0.0612436980 -0.0359172210 -1 -1
-0.0616888470 -0.0343178600 -1 -1
-0.0622160850 -0.0327899590 -1 -1
-0.0627424390 -0.0314727370 -1 -1
-0.0631811400 -0.0304772220 -1 -1
-0.0634515740 -0.0298770180 -1 0
-0.0634887520 -0.0297031310 -1 0
-0.0632500940 -0.0299426500 -1 0
-0.0627180040 -0.0305409810 -1 -1
-0.0618989150 -0.0314077690 -1 -1
-0.0608208620 -0.0324263410 -1 -1
-0.0595309350 -0.0334660680 -1 -1
-0.0580923810 -0.0343965650 -1 -1
-0.0565805240 -0.0351020950 -1 -1
-0.0550768950 -0.0354934590 -1 -1
-0.0536621070 -0.0355146030 -1 -1
-0.0524093180 -0.0351433420 -1 -1
-0.0513793310 -0.0343885100 -1 -1
-0.0506163700 -0.0332869710 -1 -1
-0.0501438070 -0.0319025160 -1 -1
-0.0499611160 -0.0303259900 -1 -1
-0.0500433830 -0.0286738110 -1 0
-0.0503421730 -0.0270819600 -1 0
-0.0507869260 -0.0256942630 -1 0
-0.0512900010 -0.0246462920 -1 0
-0.0517586380 -0.0240478150 -1 0
-0.0521117750 -0.0239664500 -1 0
-0.0522954110 -0.0244149840 -1 0
-0.0522915000 -0.0253452890 -1 0
-0.0521191240 -0.0266508750 -1 0
-0.0518289110 -0.0281780650 -1 0
-0.0514917480 -0.0297446130 -1 0
-0.0511840330 -0.0311634040 -1 -1
-0.0509746520 -0.0322669050 -1 -1
-0.0509186650 -0.0329277070 -1 -1
-0.0510566680 -0.0330727560 -1 -1
-0.0514133450 -0.0326906470 -1 -1
-0.0519918420 -0.0318314080 -1 -1
-0.0527683930 -0.0305988170 -1 -1
-0.0536923680 -0.0291372390 -1 0
-0.0546916200 -0.0276158950 -1 0
-0.0556809520 -0.0262123840 -1 0
-0.0565728290 -0.0250956220 -1 0
-0.0572890150 -0.0244080680 -1 0
-0.0577701570 -0.0242489590 -1 0
-0.0579807110 -0.0246615100 -1 0
-0.0579088910 -0.0256255640 -1 0
-0.0575631730 -0.0270561130 -1 0
-0.0569674960 -0.0288094140 -1 0
-0.0561574360 -0.0306983620 -1 -1
-0.0551786780 -0.0325156500 -1 -1
-0.0540866710 -0.0340596300 -1 -1
-0.0529449890 -0.0351569310 -1 -1
-0.0518213910 -0.0356785020 -1 -1
-0.0507830500 -0.0355491130 -1 -1
-0.0498930720 -0.0347510900 -1 -1
-0.0492085480 -0.0333224170 -1 -1
-0.0487780320 -0.0313504490 -1 -1
-0.0486368080 -0.0289641060 -1 0
-0.0488006840 -0.0263264840 -1 0
-0.0492603500 -0.0236265840 -1 0
-0.0499779790 -0.0210672820 -1 0
-0.0508874050 -0.0188489310 -1 0
-0.0518984210 -0.0171513430 -1 0
-0.0529052150 -0.0161175310 -1 0
-0.0537994720 -0.0158404980 -1 0
-0.0544880200 -0.0163529680 -1 0
-0.0549112730 -0.0176210670 -1 0
-0.0550557860 -0.0195434280 -1 0
-0.0549557240 -0.0219559410 -1 0
-0.0546832640 -0.0246418920 -1 0
-0.0543326650 -0.0273480480 -1 0
-0.0540041770 -0.0298068690 -1 0
-0.0537914990 -0.0317638110 -1 -1
-0.0537721600 -0.0330069120 -1 -1
-0.0539985050 -0.0333937840 -1 -1
-0.0544900230 -0.0328704620 -1 -1
-0.0552305560 -0.0314783830 -1 -1
-0.0561722360 -0.0293492600 -1 0
-0.0572448920 -0.0266899270 -1 0
-0.0583679020 -0.0237595810 -1 0
-0.0594600020 -0.0208422730 -1 0
-0.0604441940 -0.0182178680 -1 0
-0.0612501440 -0.0161337670 -1 0
-0.0618178440 -0.0147793640 -1 0
-0.0621027450 -0.0142660300 -1 0
-0.0620802440 -0.0146151060 -1 0
-0.0617475960 -0.0157552880 -1 0
-0.0611230830 -0.0175307070 -1 0
-0.0602440540 -0.0197205450 -1 0
-0.0591644830 -0.0220685810 -1 0
-0.0579507160 -0.0243178460 -1 0
-0.0566748230 -0.0262438930 -1 0
-0.0554073650 -0.0276801320 -1 0
-0.0542131970 -0.0285306540 -1 0
-0.0531526680 -0.0287695680 -1 0
-0.0522854610 -0.0284297430 -1 0
-0.0516699550 -0.0275869920 -1 0
-0.0513536330 -0.0263465640 -1 0
-0.0513581000 -0.0248351200 -1 0
-0.0516674450 -0.0231959130 -1 0
-0.0522261830 -0.0215830720 -1 0
-0.0529471620 -0.0201525780 -1 0
-0.0537267830 -0.0190500180 -1 0
-0.0544638880 -0.0183969700 -1 0
-0.0550775220 -0.0182778890 -1 0
-0.0555181270 -0.0187289160 -1 0
-0.0557685770 -0.0197303510 -1 0
-0.0558363800 -0.0212046530 -1 0
-0.0557436880 -0.0230211140 -1 0
-0.0555222110 -0.0250073510 -1 0
-0.0552142900 -0.0269664940 -1 0
-0.0548743600 -0.0286979250 -1 0
-0.0545649240 -0.0300192780 -1 -1
-0.0543470830 -0.0307871880 -1 -1
-0.0542696060 -0.0309137030 -1 -1
-0.0543606550 -0.0303761180 -1 -1
-0.0546250020 -0.0292197950 -1 0
-0.0550467760 -0.0275542940 -1 0
-0.0555948280 -0.0255431660 -1 0
-0.0562276830 -0.0233881420 -1 0
-0.0568968280 -0.0213086460 -1 0
-0.0575481670 -0.0195180550 -1 0
-0.0581222180 -0.0181995940 -1 0
-0.0585548100 -0.0174857240 -1 0
-0.0587807880 -0.0174444020 -1 0
-0.0587419480 -0.0180743300 -1 0
-0.0583972030 -0.0193086270 -1 0
-0.0577308530 -0.0210234730 -1 0
-0.0567564250 -0.0230488260 -1 0
-0.0555167180 -0.0251807650 -1 0
-0.0540811230 -0.0271963880 -1 0
-0.0525394720 -0.0288726010 -1 0
-0.0509926540 -0.0300087470 -1 -1
-0.0495430170 -0.0304494620 -1 -1
-0.0482858610 -0.0301025000 -1 -1
-0.0473000640 -0.0289486430 -1 0
-0.0466376730 -0.0270435270 -1 0
-0.0463161990 -0.0245118300 -1 0
-0.0463173010 -0.0215346470 -1 0
-0.0465921210 -0.0183318850 -1 0
-0.0470705510 -0.0151419040 -1 0
-0.0476714210 -0.0122000990 -1 0
-0.0483117170 -0.0097172640 -1 0
-0.0489139500 -0.0078591850 -1 0
-0.0494124430 -0.0067302740 -1 0
-0.0497598260 -0.0063639230 -1 0
-0.0499326620 -0.0067206410 -1 0
-0.0499330540 -0.0076937870 -1 0
-0.0497849500 -0.0091224770 -1 0
-0.0495274460 -0.0108116430 -1 0
-0.0492088300 -0.0125584580 -1 0
-0.0488828710 -0.0141809550 -1 0
-0.0486058840 -0.0155411800 -1 0
-0.0484332880 -0.0165562580 -1 0
-0.0484161190 -0.0171966590 -1 0
-0.0485981540 -0.0174763340 -1 0
-0.0490128250 -0.0174407070 -1 0
-0.0496776590 -0.0171565690 -1 0
-0.0505856370 -0.0167054090 -1 0
-0.0516969340 -0.0161798770 -1 0
-0.0529363000 -0.0156821020 -1 0
-0.0541985740 -0.0153214340 -1 0
-0.0553606250 -0.0152083490 -1 0
-0.0562969210 -0.0154428330 -1 0
-0.0568969710 -0.0160987330 -1 0
-0.0570819960 -0.0172070580 -1 0
-0.0568167120 -0.0187420760 -1 0
-0.0561131190 -0.0206152700 -1 0
-0.0550265250 -0.0226813500 -1 0
-0.0536475580 -0.0247560000 -1 0
-0.0520935980 -0.0266403380 -1 0
-0.0504988080 -0.0281463950 -1 0
-0.0490003990 -0.0291202840 -1 0
-0.0477223080 -0.0294612610 -1 0
-0.0467606990 -0.0291343930 -1 0
-0.0461741520 -0.0281743410 -1 0
-0.0459786900 -0.0266797880 -1 0
-0.0461487110 -0.0248009060 -1 0
-0.0466253160 -0.0227231060 -1 0
-0.0473294390 -0.0206487390 -1 0
-0.0481749000 -0.0187772210 -1 0
-0.0490788820 -0.0172849320 -1 0
-0.0499687370 -0.0163079320 -1 0
-0.0507837730 -0.0159300920 -1 0
-0.0514726070 -0.0161770400 -1 0
-0.0519902160 -0.0170154720 -1 0
-0.0522990000 -0.0183576170 -1 0
-0.0523741620 -0.0200699260 -1 0
-0.0522100860 -0.0219846530 -1 0
-0.0518239200 -0.0239135550 -1 0
-0.0512543350 -0.0256634170 -1 0
-0.0505564140 -0.0270532150 -1 0
-0.0497960880 -0.0279324470 -1 0
-0.0490463180 -0.0281989230 -1 0
-0.0483830030 -0.0278125900 -1 0
-0.0478773140 -0.0268015470 -1 0
-0.0475851030 -0.0252580660 -1 0
-0.0475377800 -0.0233251860 -1 0
-0.0477380610 -0.0211771910 -1 0
-0.0481605510 -0.0189993510 -1 0
-0.0487558410 -0.0169711820 -1 0
-0.0494574530 -0.0152535910 -1 0
-0.0501905600 -0.0139780400 -1 0
-0.0508805230 -0.0132372180 -1 0
-0.0514598220 -0.0130782190 -1 0
-0.0518730850 -0.0134985620 -1 0
-0.0520802970 -0.0144449030 -1 0
-0.0520587320 -0.0158157020 -1 0
-0.0518047500 -0.0174695580 -1 0
-0.0513358970 -0.0192386280 -1 0
-0.0506923270 -0.0209444860 -1 0
-0.0499356560 -0.0224139610 -1 0
-0.0491436450 -0.0234937430 -1 0
-0.0484008690 -0.0240636070 -1 0
-0.0477877570 -0.0240481250 -1 0
-0.0473702310 -0.0234255660 -1 0
-0.0471899700 -0.0222318340 -1 0
-0.0472553020 -0.0205580500 -1 0
-0.0475363760 -0.0185423030 -1 0
-0.0479698030 -0.0163574890 -1 0
-0.0484731060 -0.0141971200 -1 0
-0.0489625010 -0.0122598960 -1 0
-0.0493659630 -0.0107326110 -1 0
-0.0496285060 -0.0097712620 -1 0
-0.0497123270 -0.0094821930 -1 0
-0.0495955740 -0.0099070210 -1 0
-0.0492718040 -0.0110152360 -1 0
-0.0487507620 -0.0127066800 -1 0
-0.0480592620 -0.0148237350 -1 0
-0.0472401250 -0.0171707980 -1 0
-0.0463486540 -0.0195373100 -1 0
-0.0454485450 -0.0217207030 -1 0
-0.0446097410 -0.0235466810 -1 0
-0.0439079340 -0.0248852000 -1 0
-0.0434209410 -0.0256615730 -1 0
-0.0432181050 -0.0258630480 -1 0
-0.0433457940 -0.0255405680 -1 0
-0.0438164740 -0.0248039570 -1 0
-0.0446060390 -0.0238096910 -1 0
-0.0456584890 -0.0227430320 -1 0
-0.0468940500 -0.0217968760 -1 0
-0.0482177820 -0.0211484540 -1 0
-0.0495282640 -0.0209352040 -1 0
-0.0507267570 -0.0212337050 -1 0
-0.0517263140 -0.0220474520 -1 0
-0.0524595680 -0.0233073950 -1 0
-0.0528839090 -0.0248846950 -1 0
-0.0529832730 -0.0266115800 -1 0
-0.0527674490 -0.0283048310 -1 0
-0.0522709880 -0.0297869190 -1 0
-0.0515521520 -0.0309017920 -1 -1
-0.0506892630 -0.0315250510 -1 -1
-0.0497720870 -0.0315708630 -1 -1
-0.0488903970 -0.0309983350 -1 -1
-0.0481240980 -0.0298176740 -1 0
-0.0475370640 -0.0280938240 -1 0
-0.0471740570 -0.0259450170 -1 0
-0.0470591780 -0.0235350150 -1 0
-0.0471940630 -0.0210587030 -1 0
-0.0475554760 -0.0187214860 -1 0
-0.0480946300 -0.0167157010 -1 0
-0.0487413590 -0.0151996300 -1 0
-0.0494136920 -0.0142831960 -1 0
-0.0500299310 -0.0140207670 -1 0
-0.0505187890 -0.0144094120 -1 0
-0.0508251630 -0.0153908110 -1 0
-0.0509132150 -0.0168560420 -1 0
-0.0507690740 -0.0186539410 -1 0
-0.0504021770 -0.0206042480 -1 0
-0.0498432450 -0.0225158410 -1 0
-0.0491395760 -0.0242077860 -1 0
-0.0483500770 -0.0255285790 -1 0
-0.0475407230 -0.0263696260 -1 0
-0.0467786240 -0.0266720620 -1 0
-0.0461234720 -0.0264284110 -1 0
-0.0456189490 -0.0256809520 -1 0
-0.0452881860 -0.0245170770 -1 0
-0.0451338780 -0.0230604650 -1 0
-0.0451409190 -0.0214585080 -1 0
-0.0452805240 -0.0198689160 -1 0
-0.0455151100 -0.0184474190 -1 0
-0.0458024180 -0.0173355460 -1 0
-0.0460984220 -0.0166477380 -1 0
-0.0463596200 -0.0164599560 -1 0
-0.0465452580 -0.0168028660 -1 0
-0.0466203440 -0.0176604180 -1 0
-0.0465595240 -0.0189723430 -1 0
-0.0463502320 -0.0206389450 -1 0
-0.0459944820 -0.0225277280 -1 0
-0.0455105400 -0.0244822870 -1 0
-0.0449334920 -0.0263335760 -1 0
-0.0443118160 -0.0279127740 -1 0
-0.0437007260 -0.0290655370 -1 0
-0.0431561870 -0.0296685830 -1 0
-0.0427303540 -0.0296480510 -1 0
-0.0424666580 -0.0289958950 -1 0
-0.0423952100 -0.0277787300 -1 0
-0.0425307030 -0.0261341000 -1 0
-0.0428726950 -0.0242522400 -1 0
-0.0434062160 -0.0223466850 -1 0
-0.0441012200 -0.0206217330 -1 0
-0.0449115290 -0.0192452150 -1 0
-0.0457752470 -0.0183315340 -1 0
-0.0466187140 -0.0179353070 -1 0
-0.0473648340 -0.0180528250 -1 0
-0.0479439670 -0.0186280980 -1 0
-0.0483035020 -0.0195619670 -1 0
-0.0484135920 -0.0207240140 -1 0
-0.0482697260 -0.0219661680 -1 0
-0.0478934010 -0.0231360840 -1 0
-0.0473303550 -0.0240897180 -1 0
-0.0466454410 -0.0247037540 -1 0
-0.0459149220 -0.0248874630 -1 0
-0.0452181530 -0.0245923690 -1 0
-0.0446297020 -0.0238184530 -1 0
-0.0442118130 -0.0226160430 -1 0
-0.0440073150 -0.0210822700 -1 0
-0.0440342700 -0.0193513340 -1 0
-0.0442839630 -0.0175799320 -1 0
-0.0447227680 -0.0159304080 -1 0
-0.0452972040 -0.0145532190 -1 0
-0.0459412190 -0.0135703640 -1 0
-0.0465844400 -0.0130628900 -1 0
-0.0471594230 -0.0130653130 -1 0
-0.0476070600 -0.0135664380 -1 0
-0.0478814030 -0.0145131970 -1 0
-0.0479543510 -0.0158150310 -1 0
-0.0478185790 -0.0173495210 -1 0
-0.0474876890 -0.0189712440 -1 0
-0.0469940400 -0.0205243900 -1 0
-0.0463845810 -0.0218573260 -1 0
-0.0457146990 -0.0228361760 -1 0
-0.0450411870 -0.0233556660 -1 0
-0.0444164550 -0.0233474660 -1 0
-0.0438846630 -0.0227871910 -1 0
-0.0434785430 -0.0217001710 -1 0
-0.0432162780 -0.0201643530 -1 0
-0.0430995510 -0.0183081050 -1 0
-0.0431141810 -0.0163016640 -1 0
-0.0432336170 -0.0143424940 -1 0
-0.0434238670 -0.0126363650 -1 0
-0.0436479250 -0.0113764610 -1 0
-0.0438687740 -0.0107224530 -1 0
-0.0440508590 -0.0107816430 -1 0
-0.0441600330 -0.0115947300 -1 0
-0.0441632770 -0.0131281630 -1 0
-0.0440311450 -0.0152741260 -1 0
-0.0437434150 -0.0178586200 -1 0
-0.0432943720 -0.0206569800 -1 0
-0.0426950290 -0.0234146930 -1 0
-0.0419735590 -0.0258725510 -1 0
-0.0411752890 -0.0277968800 -1 0
-0.0403607030 -0.0290130720 -1 0
-0.0395998970 -0.0294351860 -1 0
-0.0389637690 -0.0290821610 -1 0
-0.0385126220 -0.0280742950 -1 0
-0.0382846390 -0.0266098840 -1 0
-0.0382895580 -0.0249279130 -1 0
-0.0385107790 -0.0232663880 -1 0
-0.0389130770 -0.0218268770 -1 0
-0.0394505770 -0.0207533240 -1 0
-0.0400722460 -0.0201270850 -1 0
-0.0407253170 -0.0199732930 -1 0
-0.0413580230 -0.0202712100 -1 0
-0.0419225290 -0.0209640060 -1 0
-0.0423784180 -0.0219669990 -1 0
-0.0426963200 -0.0231743800 -1 0
-0.0428604910 -0.0244645820 -1 0
-0.0428700730 -0.0257054880 -1 0
-0.0427402300 -0.0267612570 -1 0
-0.0425027700 -0.0275015840 -1 0
-0.0422039470 -0.0278131160 -1 0
-0.0418992030 -0.0276120960 -1 0
-0.0416465910 -0.0268563030 -1 0
-0.0414992740 -0.0255530420 -1 0
-0.0414968750 -0.0237608600 -1 0
-0.0416572050 -0.0215853140 -1 0
-0.0419716970 -0.0191701750 -1 0
-0.0424068330 -0.0166848530 -1 0
-0.0429110370 -0.0143089740 -1 0
-0.0434246070 -0.0122162720 -1 0
-0.0438897890 -0.0105598160 -1 0
-0.0442587170 -0.0094590630 -1 0
-0.0444978730 -0.0089888590 -1 0
-0.0445882390 -0.0091717640 -1 0
-0.0445215330 -0.0099755260 -1 0
-0.0442951960 -0.0113160230 -1 0
-0.0439097620 -0.0130646390 -1 0
-0.0433705430 -0.0150591920 -1 0
-0.0426921140 -0.0171180860 -1 0
-0.0419016520 -0.0190569760 -1 0
