0.1509033310 -0.0001894300 1 0
0.1493619700 -0.0001636930 1 0
0.1477079740 -0.0001318720 1 0
0.1460972080 -0.0000966245 1 0
0.1446887750 -0.0000608601 1 0
0.1436207710 -0.0000273766 1 0
0.1429862710 0.0000013185 1 0
0.1428149400 0.0000232412 1 0
0.1430690270 0.0000371692 1 0
0.1436580190 0.0000426864 1 0
0.1444636900 0.0000402552 1 0
0.1453625280 0.0000314081 1 0
0.1462409150 0.0000185465 1 0
0.1470072750 0.0000042062 1 0
0.1476035040 -0.0000096272 1 0
0.1480097560 -0.0000217571 1 0
0.1482360370 -0.0000317328 1 0
0.1483045050 -0.0000397897 1 0
0.1482352930 -0.0000467434 1 0
0.1480453490 -0.0000536545 1 0
0.1477572450 -0.0000613147 1 0
0.1474054060 -0.0000698555 1 0
0.1470305050 -0.0000786101 1 0
0.1466657090 -0.0000860500 1 0
0.1463274940 -0.0000899146 1 0
0.1460181750 -0.0000879139 1 0
0.1457338550 -0.0000786099 1 0
0.1454678660 -0.0000617425 1 0
0.1452088130 -0.0000380791 1 0
0.1449409090 -0.0000091922 1 0
0.1446541030 0.0000228164 1 0
0.1443623820 0.0000557147 1 0
0.1441180990 0.0000875313 1 0
0.1440106040 0.0001167520 1 0
0.1441475940 0.0001423440 1 0
0.1446242650 0.0001637700 1 0
0.1454885280 0.0001809740 1 0
0.1467166600 0.0001941490 1 0
0.1482131220 0.0002032490 1 0
0.1498331010 0.0002076580 1 0
0.1514129330 0.0002064130 1 0
0.1527965170 0.0001987280 1 0
0.1538573370 0.0001843140 1 0
0.1545219090 0.0001634550 1 0
0.1547960270 0.0001370450 1 0
0.1547826150 0.0001066290 1 0
0.1546707300 0.0000743573 1 0
0.1546845490 0.0000428715 1 0
0.1550074190 0.0000149877 1 0
0.1557149950 -0.0000069760 1 0
0.1567470380 -0.0000219148 1 0
0.1579272660 -0.0000300945 1 0
0.1590185880 -0.0000325992 1 0
0.1597878110 -0.0000305268 1 0
0.1600572160 -0.0000245724 1 0
0.1597351670 -0.0000152989 1 0
0.1588281000 -0.0000037213 1 0
0.1574359140 0.0000084858 1 0
0.1557304220 0.0000192983 1 0
0.1539184270 0.0000267237 1 0
0.1521968050 0.0000290391 1 0
0.1507125760 0.0000250043 1 0
0.1495406040 0.0000140164 1 0
0.1486845450 -0.0000038359 1 0
0.1480951860 -0.0000276937 1 0
0.1476915830 -0.0000558092 1 0
0.1473746440 -0.0000855647 1 0
0.1470371000 -0.0001138240 1 0
0.1465819090 -0.0001375340 1 0
0.1459543380 -0.0001542280 1 0
0.1451757390 -0.0001622270 1 0
0.1443522610 -0.0001606010 1 0
0.1436392730 -0.0001491480 1 0
0.1431748530 -0.0001286910 1 0
0.1430204020 -0.0001014610 1 0
0.1431353180 -0.0000709314 1 0
0.1433833440 -0.0000409093 1 0
0.1435552780 -0.0000144092 1 0
0.1434025620 0.0000070448 1 0
0.1426868870 0.0000235565 1 0
0.1412431890 0.0000366752 1 0
0.1390357900 0.0000489199 1 0
0.1361839340 0.0000629114 1 0
0.1329478300 0.0000805138 1 0
0.1296816650 0.0001025620 1 0
0.1267672770 0.0001290810 1 0
0.1245465270 0.0001594100 1 0
0.1232711470 0.0001920760 1 0
0.1230809380 0.0002247910 1 0
0.1240083970 0.0002547160 1 0
0.1259990520 0.0002788970 1 0
0.1289347710 0.0002949660 1 0
0.1326518060 0.0003019990 1 0
0.1369542280 0.0003009080 1 0
0.1416285600 0.0002940030 1 0
0.1464620710 0.0002841910 1 0
0.1512614810 0.0002742270 1 0
0.1558678330 0.0002660930 1 0
0.1601660560 0.0002606810 1 0
0.1640902260 0.0002580090 1 0
0.1676267300 0.0002578750 1 0
0.1708173880 0.0002603790 1 0
0.1737611680 0.0002658360 1 0
0.1766072930 0.0002743020 1 0
0.1795317420 0.0002851640 1 0
0.1826980830 0.0002969210 1 0
0.1862161780 0.0003073130 1 0
0.1901165870 0.0003137810 1 0
0.1943495170 0.0003139480 1 0
0.1988020950 0.0003062080 1 0
0.2033185330 0.0002905210 1 0
0.2077128200 0.0002687470 1 0
0.2117795450 0.0002440460 1 0
0.2153162600 0.0002197960 1 0
0.2181584760 0.0001987240 1 0
0.2202124470 0.0001824290 1 0
0.2214710210 0.0001712490 1 0
0.2220094290 0.0001644640 1 0
0.2219662960 0.0001607990 1 0
0.2215149520 0.0001588770 1 0
0.2208288180 0.0001573430 1 0
0.2200504390 0.0001549210 1 0
0.2192760650 0.0001506810 1 0
0.2185556640 0.0001444230 1 0
0.2178965850 0.0001369340 1 0
0.2172657970 0.0001299380 1 0
0.2165987470 0.0001256460 1 0
0.2158217740 0.0001261600 1 0
0.2148811790 0.0001330510 1 0
0.2137635360 0.0001470860 1 0
0.2125020080 0.0001679410 1 0
0.2111788460 0.0001939360 1 0
0.2099282230 0.0002219610 1 0
0.2089252620 0.0002478800 1 0
0.2083491470 0.0002675330 1 0
0.2083299400 0.0002778850 1 0
0.2089035720 0.0002776130 1 0
0.2099959010 0.0002668010 1 0
0.2114414080 0.0002461050 1 0
0.2130250560 0.0002162510 1 0
0.2145278010 0.0001782240 1 0
0.2157643880 0.0001337440 1 0
0.2166145580 0.0000853857 1 0
0.2170466160 0.0000362382 1 0
0.2171221830 -0.0000106039 1 0
0.2169746930 -0.0000524640 1 0
0.2167708230 -0.0000874349 1 0
0.2166718070 -0.0001145460 1 0
0.2168041410 -0.0001335730 1 0
0.2172402530 -0.0001447250 1 0
0.2179878640 -0.0001486110 1 0
0.2189889260 -0.0001463120 1 0
0.2201304660 -0.0001391450 1 0
0.2212674610 -0.0001283200 1 0
0.2222527400 -0.0001149210 1 0
0.2229651530 -0.0001001170 1 0
0.2233270300 -0.0000853094 1 0
0.2233070870 -0.0000720058 1 0
0.2229135130 -0.0000613051 1 0
0.2221854450 -0.0000534935 1 0
0.2211863260 -0.0000483364 1 0
0.2199982680 -0.0000456967 1 0
0.2187175380 -0.0000457820 1 0
0.2174507270 -0.0000491173 1 0
0.2163065830 -0.0000565599 1 0
0.2153809070 -0.0000690962 1 0
0.2147419580 -0.0000872093 1 0
0.2144248850 -0.0001102950 1 0
0.2144338090 -0.0001367420 1 0
0.2147449590 -0.0001645810 1 0
0.2153076570 -0.0001919240 1 0
0.2160449440 -0.0002168600 1 0
0.2168575040 -0.0002372860 1 0
0.2176324230 -0.0002511150 1 0
0.2182550860 -0.0002567210 1 0
0.2186228080 -0.0002532670 1 0
0.2186602590 -0.0002407780 1 0
0.2183324910 -0.0002200830 1 0
0.2176461100 -0.0001927980 1 0
0.2166355670 -0.0001611710 1 0
0.2153471370 -0.0001275750 1 0
0.2138382880 -0.0000939319 1 0
0.2121944980 -0.0000616201 1 0
0.2105447330 -0.0000317632 1 0
0.2090541820 -0.0000053559 1 0
0.2078917000 0.0000169856 1 0
0.2071903570 0.0000353116 1 0
0.2070220740 0.0000502683 1 0
0.2073917760 0.0000627358 1 0
0.2082415490 0.0000735237 1 0
0.2094550320 0.0000832536 1 0
0.2108630200 0.0000923484 1 0
0.2122593270 0.0001010320 1 0
0.2134317320 0.0001092060 1 0
0.2142020500 0.0001162420 1 0
0.2144629250 0.0001209220 1 0
0.2141978130 0.0001216620 1 0
0.2134732600 0.0001169250 1 0
0.2124031750 0.0001056200 1 0
0.2111024480 0.0000873388 1 0
0.2096574440 0.0000625010 1 0
0.2081300420 0.0000324226 1 0
0.2065852120 -0.0000008067 1 0
0.2051136150 -0.0000345721 1 0
0.2038280160 -0.0000660670 1 0
0.2028364260 -0.0000928759 1 0
0.2022117090 -0.0001136290 1 0
0.2019756300 -0.0001281570 1 0
0.2021029220 -0.0001370180 1 0
0.2025396370 -0.0001409430 1 0
0.2032244150 -0.0001405750 1 0
0.2041028870 -0.0001363350 1 0
0.2051320850 -0.0001282470 1 0
0.2062786130 -0.0001161480 1 0
0.2075179090 -0.0001004590 1 0
0.2088390360 -0.0000829391 1 0
0.2102494320 -0.0000666569 1 0
0.2117677880 -0.0000550966 1 0
0.2134010080 -0.0000510800 1 0
0.2151154880 -0.0000561367 1 0
0.2168205560 -0.0000703280 1 0
0.2183769900 -0.0000923303 1 0
0.2196278000 -0.0001197100 1 0
0.2204339310 -0.0001493690 1 0
0.2206982540 -0.0001780560 1 0
0.2203758430 -0.0002027470 1 0
0.2194798900 -0.0002209920 1 0
0.2180895040 -0.0002314620 1 0
0.2163526090 -0.0002343910 1 0
0.2144681820 -0.0002314790 1 0
0.2126410780 -0.0002253210 1 0
0.2110262760 -0.0002186440 1 0
0.2096914800 -0.0002135040 1 0
0.2086149750 -0.0002106160 1 0
0.2077148810 -0.0002091320 1 0
0.2068925600 -0.0002072030 1 0
0.2060693660 -0.0002031600 1 0
0.2052021540 -0.0001963910 1 0
0.2042770650 -0.0001872540 1 0
0.2032945370 -0.0001764120 1 0
0.2022617250 -0.0001644100 1 0
0.2012005420 -0.0001517360 1 0
0.2001660920 -0.0001389990 1 0
0.1992587900 -0.0001269550 1 0
0.1986137550 -0.0001163610 1 0
0.1983661730 -0.0001076890 1 0
0.1986073510 -0.0001008920 1 0
0.1993508210 -0.0000955119 1 0
0.2005230690 -0.0000910369 1 0
0.2019829780 -0.0000870525 1 0
0.2035594200 -0.0000830488 1 0
0.2050870220 -0.0000782214 1 0
0.2064260720 -0.0000715645 1 0
0.2074672600 -0.0000622569 1 0
0.2081293770 -0.0000501787 1 0
0.2083567980 -0.0000362874 1 0
0.2081232930 -0.0000224899 1 0
0.2074472890 -0.0000108936 1 0
0.2064132120 -0.0000029459 1 0
0.2051802030 0.0000008908 1 0
0.2039604350 0.0000009705 1 0
0.2029695340 -0.0000017776 1 0
0.2023729790 -0.0000061209 1 0
0.2022523010 -0.0000108436 1 0
0.2025971020 -0.0000148186 1 0
0.2033159780 -0.0000168397 1 0
0.2042583510 -0.0000156680 1 0
0.2052418090 -0.0000103475 1 0
0.2060822050 -0.0000004137 1 0
0.2066244550 0.0000140732 1 0
0.2067684950 0.0000325291 1 0
0.2064826800 0.0000538500 1 0
0.2058015630 0.0000764052 1 0
0.2048133360 0.0000980332 1 0
0.2036448060 0.0001161060 1 0
0.2024435610 0.0001277600 1 0
0.2013501970 0.0001304220 1 0
0.2004645090 0.0001225730 1 0
0.1998250070 0.0001044230 1 0
0.1994161950 0.0000780001 1 0
0.1991976950 0.0000464977 1 0
0.1991357960 0.0000134526 1 0
0.1992198590 -0.0000176676 1 0
0.1994584860 -0.0000436026 1 0
0.1998638740 -0.0000615290 1 0
0.2004369340 -0.0000695529 1 0
0.2011581900 -0.0000672796 1 0
0.2019800350 -0.0000558401 1 0
0.2028180350 -0.0000371759 1 0
0.2035516720 -0.0000133632 1 0
0.2040489330 0.0000133748 1 0
0.2042120540 0.0000403015 1 0
0.2040192590 0.0000640209 1 0
0.2035347200 0.0000807904 1 0
0.2028795060 0.0000872551 1 0
0.2021809090 0.0000811860 1 0
0.2015267200 0.0000616885 1 0
0.2009421690 0.0000289566 1 0
0.2003933220 -0.0000158372 1 0
0.1998127160 -0.0000703042 1 0
0.1991383710 -0.0001307400 1 0
0.1983514870 -0.0001924810 1 0
0.1974971000 -0.0002504500 1 0
0.1966802410 -0.0002997880 1 0
0.1960407490 -0.0003367340 1 0
0.1957155510 -0.0003595200 1 0
0.1957999610 -0.0003687550 1 0
0.1963224260 -0.0003670390 1 0
0.1972447410 -0.0003579080 1 0
0.1984869140 -0.0003445240 1 0
0.1999604490 -0.0003287350 1 0
0.2015895990 -0.0003109670 1 0
0.2033126240 -0.0002907700 1 0
0.2050733290 -0.0002675360 1 0
0.2068174090 -0.0002409700 1 0
0.2084961120 -0.0002111940 1 0
0.2100706070 -0.0001786430 1 0
0.2115134210 -0.0001440300 1 0
0.2128082070 -0.0001084220 1 0
0.2139492510 -0.0000732241 1 0
0.2149408550 -0.0000399691 1 0
0.2157968840 -0.0000100951 1 0
0.2165402950 0.0000149545 1 0
0.2172002510 0.0000334790 1 0
0.2178047890 0.0000436788 1 0
0.2183721660 0.0000442741 1 0
0.2189077710 0.0000350373 1 0
0.2194096050 0.0000169477 1 0
0.2198760480 -0.0000078682 1 0
0.2203050150 -0.0000364013 1 0
0.2206822670 -0.0000653636 1 0
0.2209715770 -0.0000918032 1 0
0.2211210190 -0.0001133780 1 0
0.2210858140 -0.0001285920 1 0
0.2208561150 -0.0001372470 1 0
0.2204735520 -0.0001406600 1 0
0.2200225330 -0.0001411760 1 0
0.2195969900 -0.0001411560 1 0
0.2192617130 -0.0001420460 1 0
0.2190297970 -0.0001440570 1 0
0.2188656690 -0.0001465120 1 0
0.2187118890 -0.0001484450 1 0
0.2185290710 -0.0001492110 1 0
0.2183280530 -0.0001489540 1 0
0.2181736080 -0.0001486090 1 0
0.2181579420 -0.0001492270 1 0
0.2183624030 -0.0001511210 1 0
0.2188268120 -0.0001535280 1 0
0.2195330080 -0.0001549780 1 0
0.2204018110 -0.0001540110 1 0
0.2213049680 -0.0001497190 1 0
0.2220917230 -0.0001418130 1 0
0.2226194860 -0.0001302980 1 0
0.2227764210 -0.0001150350 1 0
0.2224955440 -0.0000956046 1 0
0.2217666540 -0.0000716593 1 0
0.2206454680 -0.0000434487 1 0
0.2192524120 -0.0000121844 1 0
0.2177559340 0.0000199144 1 0
0.2163403130 0.0000501031 1 0
0.2151622880 0.0000759815 1 0
0.2143094590 0.0000960761 1 0
0.2137820740 0.0001097580 1 0
0.2135140120 0.0001167930 1 0
0.2134242550 0.0001169440 1 0
0.2134657350 0.0001098920 1 0
0.2136409110 0.0000954685 1 0
0.2139824050 0.0000738764 1 0
0.2145209800 0.0000457696 1 0
0.2152623180 0.0000124204 1 0
0.2161786050 -0.0000240700 1 0
0.2172095860 -0.0000610528 1 0
0.2182681380 -0.0000961087 1 0
0.2192501660 -0.0001275950 1 0
0.2200474230 -0.0001545600 1 0
0.2205585360 -0.0001764030 1 0
0.2206975040 -0.0001927610 1 0
0.2204045500 -0.0002035640 1 0
0.2196606380 -0.0002089970 1 0
0.2184994730 -0.0002093100 1 0
0.2170110540 -0.0002046350 1 0
0.2153361710 -0.0001949870 1 0
0.2136530100 -0.0001804310 1 0
0.2121553830 -0.0001612590 1 0
0.2110240910 -0.0001381410 1 0
0.2103992380 -0.0001121370 1 0
0.2103618160 -0.0000845459 1 0
0.2109254810 -0.0000568704 1 0
0.2120357750 -0.0000310133 1 0
0.2135768490 -0.0000092507 1 0
0.2153865820 0.0000062548 1 0
0.2172775200 0.0000142051 1 0
0.2190585010 0.0000148267 1 0
0.2205534130 0.0000099452 1 0
0.2216172230 0.0000022041 1 0
0.2221502590 -0.0000061132 1 0
0.2221083070 -0.0000138057 1 0
0.2215036740 -0.0000206066 1 0
0.2203949000 -0.0000266342 1 0
0.2188683420 -0.0000320586 1 0
0.2170210090 -0.0000369084 1 0
0.2149560010 -0.0000408148 1 0
0.2127933300 -0.0000429198 1 0
0.2106841300 -0.0000421501 1 0
0.2088091920 -0.0000378617 1 0
0.2073532020 -0.0000305790 1 0
0.2064666340 -0.0000220846 1 0
0.2062362230 -0.0000146323 1 0
0.2066737670 -0.0000101191 1 0
0.2077188670 -0.0000098159 1 0
0.2092505300 -0.0000144280 1 0
0.2111088000 -0.0000241615 1 0
0.2131262630 -0.0000387369 1 0
0.2151595190 -0.0000574586 1 0
0.2171053310 -0.0000794146 1 0
0.2188954650 -0.0001036550 1 0
0.2204795320 -0.0001291710 1 0
0.2218087170 -0.0001546920 1 0
0.2228251230 -0.0001784700 1 0
0.2234576280 -0.0001983080 1 0
0.2236289290 -0.0002118850 1 0
0.2232778070 -0.0002172740 1 0
0.2223908970 -0.0002135550 1 0
0.2210285480 -0.0002013520 1 0
0.2193298050 -0.0001830110 1 0
0.2174913320 -0.0001621890 1 0
0.2157270570 -0.0001428770 1 0
0.2142241340 -0.0001281150 1 0
0.2131116160 -0.0001189530 1 0
0.2124497580 -0.0001143010 1 0
0.2122375540 -0.0001117640 1 0
0.2124303740 -0.0001089070 1 0
0.2129580620 -0.0001040220 1 0
0.2137359090 -0.0000960821 1 0
0.2146673530 -0.0000844593 1 0
0.2156444670 -0.0000688930 1 0
0.2165539970 -0.0000496491 1 0
0.2172916100 -0.0000276009 1 0
0.2177785000 -0.0000040936 1 0
0.2179684430 0.0000193577 1 0
0.2178385590 0.0000413404 1 0
0.2173739800 0.0000607336 1 0
0.2165666470 0.0000768726 1 0
0.2154357610 0.0000896395 1 0
0.2140550330 0.0000993877 1 0
0.2125638370 0.0001066000 1 0
0.2111499970 0.0001114280 1 0
0.2100088000 0.0001136050 1 0
0.2092954160 0.0001128040 1 0
0.2090912500 0.0001089960 1 0
0.2093962130 0.0001026070 1 0
0.2101443790 0.0000945278 1 0
0.2112311100 0.0000858697 1 0
0.2125388900 0.0000775038 1 0
0.2139544940 0.0000697843 1 0
0.2153790050 0.0000626496 1 0
0.2167365690 0.0000558902 1 0
0.2179828470 0.0000494606 1 0
0.2191082360 0.0000437438 1 0
0.2201318690 0.0000394724 1 0
0.2210863140 0.0000373603 1 0
0.2219959980 0.0000378753 1 0
0.2228574200 0.0000412420 1 0
0.2236321520 0.0000475436 1 0
0.2242574550 0.0000568284 1 0
0.2246700850 0.0000690780 1 0
0.2248341400 0.0000840326 1 0
0.2247616870 0.0001010210 1 0
0.2245169120 0.0001188310 1 0
0.2242025190 0.0001356450 1 0
0.2239346520 0.0001492100 1 0
0.2238151950 0.0001573490 1 0
0.2239082170 0.0001585120 1 0
0.2242227690 0.0001521220 1 0
0.2247026150 0.0001387730 1 0
0.2252249570 0.0001203060 1 0
0.2256098350 0.0000995577 1 0
0.2256419150 0.0000797526 1 0
0.2251077790 0.0000637550 1 0
0.2238452660 0.0000533836 1 0
0.2217879490 0.0000490336 1 0
0.2189863590 0.0000498335 1 0
0.2156016690 0.0000542236 1 0
0.2118806870 0.0000603643 1 0
0.2081239010 0.0000660925 1 0
0.2046533100 0.0000689064 1 0
0.2017795280 0.0000663245 1 0
0.1997660600 0.0000563691 1 0
0.1987942940 0.0000380113 1 0
0.1989365060 0.0000115759 1 0
0.2001421530 -0.0000210956 1 0
0.2022419250 -0.0000569141 1 0
0.2049761120 -0.0000922223 1 0
0.2080484200 -0.0001236460 1 0
0.2111894020 -0.0001487500 1 0
0.2142014740 -0.0001662230 1 0
0.2169669780 -0.0001755720 1 0
0.2194242780 -0.0001765670 1 0
0.2215330420 -0.0001688450 1 0
0.2232478340 -0.0001520720 1 0
0.2245058680 -0.0001266770 1 0
0.2252275760 -0.0000946971 1 0
0.2253322210 -0.0000600078 1 0
0.2247696020 -0.0000275738 1 0
0.2235559250 -0.0000021472 1 0
0.2217924630 0.0000128348 1 0
0.2196536880 0.0000157572 1 0
0.2173503110 0.0000067538 1 0
0.2150846840 -0.0000126142 1 0
0.2130145870 -0.0000396498 1 0
0.2112340710 -0.0000709047 1 0
0.2097734240 -0.0001027330 1 0
0.2086144730 -0.0001317830 1 0
0.2077127270 -0.0001553130 1 0
0.2070172880 -0.0001713510 1 0
0.2064834710 -0.0001787460 1 0
0.2060770960 -0.0001770770 1 0
0.2057704700 -0.0001664390 1 0
0.2055331350 -0.0001471900 1 0
0.2053257310 -0.0001197530 1 0
0.2051046760 -0.0000846419 1 0
0.2048379400 -0.0000428804 1 0
0.2045237840 0.0000035126 1 0
0.2041985330 0.0000515861 1 0
0.2039239770 0.0000981537 1 0
0.2037607270 0.0001404750 1 0
0.2037439490 0.0001763520 1 0
0.2038727810 0.0002039070 1 0
0.2041147420 0.0002216380 1 0
0.2044206560 0.0002288950 1 0
0.2047430130 0.0002261960 1 0
0.2050494510 0.0002148240 1 0
0.2053250750 0.0001959980 1 0
0.2055642400 0.0001704010 1 0
0.2057598920 0.0001384540 1 0
0.2058986470 0.0001010110 1 0
0.2059636600 0.0000598866 1 0
0.2059417630 0.0000177635 1 0
0.2058270750 -0.0000224632 1 0
0.2056135690 -0.0000584957 1 0
0.2052791480 -0.0000891803 1 0
0.2047752860 -0.0001144850 1 0
0.2040358390 -0.0001349060 1 0
0.2030057710 -0.0001507200 1 0
0.2016751290 -0.0001616400 1 0
0.2000967700 -0.0001670100 1 0
0.1983753040 -0.0001662260 1 0
0.1966350860 -0.0001590260 1 0
0.1949892890 -0.0001455150 1 0
0.1935261190 -0.0001260030 1 0
0.1923107860 -0.0001011220 1 0
0.1913920240 -0.0000723540 1 0
0.1908050460 -0.0000423792 1 0
0.1905704070 -0.0000147092 1 0
0.1906913990 0.0000072511 1 0
0.1911501920 0.0000210996 1 0
0.1919020030 0.0000257716 1 0
0.1928712190 0.0000213716 1 0
0.1939566100 0.0000090616 1 0
0.1950475120 -0.0000087250 1 0
0.1960449630 -0.0000282357 1 0
0.1968790410 -0.0000451247 1 0
0.1975167030 -0.0000557088 1 0
0.1979596850 -0.0000579134 1 0
0.1982357690 -0.0000515760 1 0
0.1983861110 -0.0000383381 1 0
0.1984483210 -0.0000211492 1 0
0.1984365260 -0.0000032973 1 0
0.1983272920 0.0000126031 1 0
0.1980630530 0.0000250065 1 0
0.1975744500 0.0000331486 1 0
0.1968110210 0.0000365520 1 0
0.1957695540 0.0000348108 1 0
0.1945142040 0.0000278355 1 0
0.1931796270 0.0000161516 1 0
0.1919464090 0.0000007505 1 0
0.1909925400 -0.0000172544 1 0
0.0600066480 0.0370589530 1 1
0.0587788030 0.0359137450 1 1
0.0575739480 0.0347658580 1 1
0.0564932470 0.0337032730 1 1
0.0556267120 0.0328034610 1 1
0.0550474690 0.0321265890 1 1
0.0548050060 0.0317097910 1 1
0.0549193020 0.0315631030 1 1
0.0553784310 0.0316685790 1 1
0.0561403270 0.0319834090 1 1
0.0571368820 0.0324457840 1 1
0.0582780170 0.0329814000 1 1
0.0594560470 0.0335099790 1 1
0.0605531190 0.0339525960 1 1
0.0614525350 0.0342399840 1 1
0.0620510770 0.0343203960 1 1
0.0622696730 0.0341650770 1 1
0.0620622500 0.0337704940 1 1
0.0614226050 0.0331576030 1 1
0.0603877870 0.0323685310 1 1
0.0590372020 0.0314614920 1 1
0.0574873720 0.0305053930 1 1
0.0558808830 0.0295747320 1 0
0.0543688560 0.0287444250 1 0
0.0530906820 0.0280840840 1 0
0.0521566640 0.0276513810 1 0
0.0516369160 0.0274850130 1 0
0.0515571760 0.0275995310 1 0
0.0519010070 0.0279841620 1 0
0.0526169360 0.0286053550 1 0
0.0536277400 0.0294111080 1 0
0.0548380450 0.0303358500 1 1
0.0561385080 0.0313054670 1 1
0.0574097680 0.0322424130 1 1
0.0585306430 0.0330710960 1 1
0.0593905590 0.0337238780 1 1
0.0599027550 0.0341478280 1 1
0.0600158240 0.0343114740 1 1
0.0597219600 0.0342096940 1 1
0.0590585340 0.0338649100 1 1
0.0581006060 0.0333243390 1 1
0.0569484990 0.0326546200 1 1
0.0557184310 0.0319352240 1 1
0.0545374560 0.0312509630 1 1
0.0535352900 0.0306835890 1 1
0.0528285550 0.0303032160 1 1
0.0525026910 0.0301605540 1 1
0.0525995410 0.0302806690 1 1
0.0531132180 0.0306589660 1 1
0.0539921040 0.0312603470 1 1
0.0551443920 0.0320224860 1 1
0.0564461540 0.0328634620 1 1
0.0577521950 0.0336921520 1 1
0.0589107880 0.0344189160 1 1
0.0597826750 0.0349652950 1 1
0.0602608540 0.0352722340 1 1
0.0602847860 0.0353062360 1 1
0.0598452170 0.0350627160 1 1
0.0589810070 0.0345659180 1 1
0.0577722430 0.0338650110 1 1
0.0563324190 0.0330269780 1 1
0.0547990010 0.0321280810 1 1
0.0533206580 0.0312461070 1 1
0.0520416950 0.0304544110 1 1
0.0510864410 0.0298170310 1 0
0.0505463840 0.0293836720 1 0
0.0504719510 0.0291845340 1 0
0.0508698090 0.0292260440 1 0
0.0517052680 0.0294886300 1 0
0.0529083490 0.0299274270 1 0
0.0543816190 0.0304766490 1 1
0.0560080160 0.0310574120 1 1
0.0576578790 0.0315875050 1 1
0.0591965530 0.0319914530 1 1
0.0604948510 0.0322095990 1 1
0.0614427730 0.0322045250 1 1
0.0619635160 0.0319632260 1 1
0.0620238540 0.0314950840 1 1
0.0616395300 0.0308274280 1 1
0.0608759010 0.0300008190 1 1
0.0598426490 0.0290650820 1 0
0.0586817600 0.0280760050 1 0
0.0575503560 0.0270926120 1 0
0.0566005220 0.0261749590 1 0
0.0559590600 0.0253816710 1 0
0.0557115310 0.0247661590 1 0
0.0558937400 0.0243711260 1 0
0.0564912910 0.0242221710 1 0
0.0574466630 0.0243222310 1 0
0.0586712620 0.0246481110 1 0
0.0600574420 0.0251495560 1 0
0.0614865850 0.0257520250 1 0
0.0628346650 0.0263647210 1 0
0.0639800280 0.0268929670 1 0
0.0648154350 0.0272512000 1 0
0.0652612840 0.0273732300 1 0
0.0652752820 0.0272185820 1 0
0.0648562150 0.0267756640 1 0
0.0640427470 0.0260632450 1 0
0.0629093390 0.0251307460 1 0
0.0615598390 0.0240559780 1 0
0.0601175750 0.0229383630 1 0
0.0587126450 0.0218872060 1 0
0.0574695920 0.0210071130 1 0
0.0564973310 0.0203843640 1 0
0.0558807580 0.0200772680 1 0
0.0556734680 0.0201114790 1 0
0.0558920550 0.0204795150 1 0
0.0565129610 0.0211429280 1 0
0.0574737010 0.0220363460 1 0
0.0586797600 0.0230739680 1 0
0.0600152480 0.0241588840 1 0
0.0613532210 0.0251943850 1 0
0.0625640970 0.0260959590 1 0
0.0635248130 0.0268022280 1 0
0.0641309560 0.0272820910 1 0
0.0643093740 0.0275357610 1 0
0.0640263250 0.0275896690 1 0
0.0632900520 0.0274875170 1 0
0.0621509160 0.0272806490 1 0
0.0607011930 0.0270205020 1 0
0.0590725120 0.0267542260 1 0
0.0574266000 0.0265226880 1 0
0.0559363590 0.0263594960 1 0
0.0547598730 0.0262904410 1 0
0.0540156110 0.0263336400 1 0
0.0537664900 0.0265003610 1 0
0.0540149510 0.0267951680 1 0
0.0547071140 0.0272138060 1 0
0.0557429550 0.0277396890 1 0
0.0569898040 0.0283418020 1 0
0.0582971360 0.0289753930 1 0
0.0595111750 0.0295847180 1 0
0.0604891030 0.0301075410 1 1
0.0611133140 0.0304818780 1 1
0.0613042990 0.0306548340 1 1
0.0610290890 0.0305917670 1 1
0.0603036910 0.0302830220 1 1
0.0591905960 0.0297464810 1 0
0.0577928000 0.0290262340 1 0
0.0562437210 0.0281880290 1 0
0.0546919480 0.0273116580 1 0
0.0532826800 0.0264811980 1 0
0.0521400480 0.0257750850 1 0
0.0513543740 0.0252575200 1 0
0.0509769560 0.0249718220 1 0
0.0510218150 0.0249364670 1 0
0.0514705620 0.0251441750 1 0
0.0522769290 0.0255634860 1 0
0.0533700770 0.0261423830 1 0
0.0546576790 0.0268136250 1 0
0.0560305970 0.0275010520 1 0
0.0573710420 0.0281264770 1 0
0.0585650290 0.0286173260 1 0
0.0595167030 0.0289146760 1 0
0.0601590280 0.0289802600 1 0
0.0604572240 0.0288008420 1 0
0.0604074190 0.0283895350 1 0
0.0600358470 0.0277846670 1 0
0.0594002460 0.0270462940 1 0
0.0585898950 0.0262499650 1 0
0.0577199800 0.0254782450 1 0
0.0569190620 0.0248116010 1 0
0.0563111720 0.0243198210 1 0
0.0559971090 0.0240543070 1 0
0.0560418920 0.0240424290 1 0
0.0564719320 0.0242859830 1 0
0.0572787430 0.0247639520 1 0
0.0584237020 0.0254372450 1 0
0.0598407380 0.0262533250 1 0
0.0614373970 0.0271506910 1 0
0.0630971300 0.0280640740 1 0
0.0646861320 0.0289305130 1 0
0.0660672350 0.0296954560 1 0
0.0671195090 0.0303176460 1 1
0.0677565880 0.0307718010 1 1
0.0679366150 0.0310490150 1 1
0.0676627710 0.0311558990 1 1
0.0669783730 0.0311134340 1 1
0.0659600750 0.0309553550 1 1
0.0647090140 0.0307250990 1 1
0.0633393290 0.0304711790 1 1
0.0619664620 0.0302423750 1 1
0.0606983860 0.0300837970 1 1
0.0596301220 0.0300335280 1 1
0.0588397690 0.0301194490 1 1
0.0583834210 0.0303562110 1 1
0.0582872930 0.0307420750 1 1
0.0585393420 0.0312561240 1 1
0.0590858100 0.0318576360 1 1
0.0598355740 0.0324891300 1 1
0.0606709240 0.0330831080 1 1
0.0614622290 0.0335714730 1 1
0.0620843420 0.0338951520 1 1
0.0624321070 0.0340107470 1 1
0.0624320960 0.0338931230 1 1
0.0620491280 0.0335357640 1 1
0.0612878410 0.0329508180 1 1
0.0601908110 0.0321687820 1 1
0.0588345570 0.0312370050 1 1
0.0573227970 0.0302169890 1 1
0.0557756060 0.0291804480 1 0
0.0543156380 0.0282031910 1 0
0.0530546510 0.0273566640 1 0
0.0520830590 0.0266991420 1 0
0.0514640140 0.0262692960 1 0
0.0512315000 0.0260831440 1 0
0.0513898730 0.0261339630 1 0
0.0519135430 0.0263950220 1 0
0.0527483550 0.0268243580 1 0
0.0538151500 0.0273698200 1 0
0.0550136820 0.0279736130 1 0
0.0562267780 0.0285774320 1 0
0.0573276100 0.0291289390 1 0
0.0581919410 0.0295882110 1 0
0.0587138350 0.0299317890 1 0
0.0588213850 0.0301528200 1 1
0.0584884720 0.0302575880 1 1
0.0577386030 0.0302605520 1 1
0.0566394920 0.0301803160 1 1
0.0552917150 0.0300376300 1 1
0.0538164580 0.0298554570 1 0
0.0523439590 0.0296604230 1 0
0.0510014420 0.0294841260 1 0
0.0499011140 0.0293627450 1 0
0.0491308430 0.0293340210 1 0
0.0487488970 0.0294314910 1 0
0.0487821520 0.0296775410 1 0
0.0492262980 0.0300776750 1 1
0.0500463780 0.0306171130 1 1
0.0511777050 0.0312599280 1 1
0.0525297880 0.0319514990 1 1
0.0539939360 0.0326249380 1 1
0.0554519250 0.0332105380 1 1
0.0567850360 0.0336459630 1 1
0.0578856190 0.0338847650 1 1
0.0586707710 0.0339017740 1 1
0.0590942370 0.0336951140 1 1
0.0591527670 0.0332850140 1 1
0.0588850240 0.0327096590 1 1
0.0583637590 0.0320189320 1 1
0.0576842750 0.0312679050 1 1
0.0569517270 0.0305120530 1 1
0.0562684460 0.0298046770 1 0
0.0557231260 0.0291951520 1 0
0.0553838990 0.0287265840 1 0
0.0552948830 0.0284325640 1 0
0.0554739720 0.0283328080 1 0
0.0559107040 0.0284280460 1 0
0.0565654790 0.0286964510 1 0
0.0573724130 0.0290946130 1 0
0.0582461690 0.0295638330 1 0
0.0590910400 0.0300391930 1 1
0.0598110950 0.0304575940 1 1
0.0603210670 0.0307627980 1 1
0.0605573970 0.0309084780 1 1
0.0604881590 0.0308613420 1 1
0.0601189470 0.0306051290 1 1
0.0594917740 0.0301448120 1 1
0.0586774450 0.0295094580 1 0
0.0577649100 0.0287519010 1 0
0.0568514270 0.0279443210 1 0
0.0560360930 0.0271701700 1 0
0.0554161390 0.0265134650 1 0
0.0550819540 0.0260467100 1 0
0.0551073570 0.0258195240 1 0
0.0555358660 0.0258507840 1 0
0.0563680490 0.0261266880 1 0
0.0575557640 0.0266052320 1 0
0.0590051590 0.0272249420 1 0
0.0605869130 0.0279147200 1 0
0.0621528130 0.0286027600 1 0
0.0635574100 0.0292235420 1 0
0.0646796150 0.0297222610 1 0
0.0654377730 0.0300568910 1 1
0.0657953790 0.0301992280 1 1
0.0657588550 0.0301356920 1 1
0.0653704870 0.0298676650 1 0
0.0646994880 0.0294114400 1 0
0.0638335280 0.0287985230 1 0
0.0628714690 0.0280759990 1 0
0.0619162710 0.0273052590 1 0
0.0610671220 0.0265577560 1 0
0.0604113640 0.0259080060 1 0
0.0600174820 0.0254246540 1 0
0.0599301910 0.0251607370 1 0
0.0601676260 0.0251453080 1 0
0.0607196200 0.0253789790 1 0
0.0615469600 0.0258345010 1 0
0.0625832500 0.0264615470 1 0
0.0637400800 0.0271936330 1 0
0.0649143310 0.0279553800 1 0
0.0659971440 0.0286695450 1 0
0.0668849730 0.0292636890 1 0
0.0674917700 0.0296760250 1 0
0.0677593640 0.0298601620 1 0
0.0676631730 0.0297886340 1 0
0.0672128800 0.0294550370 1 0
0.0664495470 0.0288751150 1 0
0.0654408980 0.0280875240 1 0
0.0642759610 0.0271535060 1 0
0.0630585540 0.0261532390 1 0
0.0618976060 0.0251780570 1 0
0.0608943440 0.0243206430 1 0
0.0601300680 0.0236656340 1 0
0.0596583840 0.0232813170 1 0
0.0595027250 0.0232123710 1 0
0.0596573440 0.0234741340 1 0
0.0600891720 0.0240492540 1 0
0.0607391750 0.0248877070 1 0
0.0615249610 0.0259113200 1 0
0.0623473450 0.0270229540 1 0
0.0631006490 0.0281187010 1 0
0.0636844940 0.0291008100 1 0
0.0640158170 0.0298896830 1 0
0.0640392740 0.0304327960 1 1
0.0637322820 0.0307081820 1 1
0.0631029680 0.0307225440 1 1
0.0621835090 0.0305063370 1 1
0.0610236890 0.0301075480 1 1
0.0596883030 0.0295847740 1 0
0.0582569430 0.0290004800 1 0
0.0568214800 0.0284157920 1 0
0.0554793270 0.0278876000 1 0
0.0543236540 0.0274670920 1 0
0.0534322260 0.0271977860 1 0
0.0528571210 0.0271117530 1 0
0.0526175740 0.0272237870 1 0
0.0526972470 0.0275251640 1 0
0.0530471130 0.0279808010 1 0
0.0535940300 0.0285324090 1 0
0.0542523310 0.0291058310 1 0
0.0549345500 0.0296195160 1 0
0.0555593490 0.0299935180 1 0
0.0560571370 0.0301591840 1 1
0.0563745400 0.0300683070 1 1
0.0564789570 0.0297000030 1 0
0.0563635610 0.0290641740 1 0
0.0560498720 0.0282004340 1 0
0.0555850700 0.0271716770 1 0
0.0550362760 0.0260539460 1 0
0.0544858810 0.0249269170 1 0
0.0540267890 0.0238684160 1 0
0.0537528320 0.0229528090 1 0
0.0537440600 0.0222501210 1 0
0.0540526840 0.0218223430 1 0
0.0546944950 0.0217156610 1 0
0.0556463570 0.0219508690 1 0
0.0568494500 0.0225160150 1 0
0.0582176360 0.0233639510 1 0
0.0596482720 0.0244155430 1 0
0.0610328700 0.0255688050 1 0
0.0622670190 0.0267130270 1 0
0.0632593050 0.0277441360 1 0
0.0639381610 0.0285768800 1 0
0.0642566490 0.0291521840 1 0
0.0641966690 0.0294403520 1 0
0.0637730940 0.0294410370 1 0
0.0630355750 0.0291808960 1 0
0.0620650580 0.0287096060 1 0
0.0609648170 0.0280941860 1 0
0.0598484200 0.0274120140 1 0
0.0588277140 0.0267436080 1 0
0.0580037130 0.0261655850 1 0
0.0574608180 0.0257438350 1 0
0.0572613620 0.0255277050 1 0
0.0574381730 0.0255461000 1 0
0.0579869910 0.0258053910 1 0
0.0588625930 0.0262882150 1 0
0.0599810450 0.0269526700 1 0
0.0612284540 0.0277331830 1 0
0.0624751410 0.0285455950 1 0
0.0635926220 0.0292974100 1 0
0.0644695650 0.0299007650 1 0
0.0650229860 0.0302841570 1 1
0.0652030300 0.0304004060 1 1
0.0649930900 0.0302302150 1 1
0.0644087820 0.0297819790 1 0
0.0634971160 0.0290894650 1 0
0.0623339640 0.0282085440 1 0
0.0610172730 0.0272125420 1 0
0.0596556900 0.0261861650 1 0
0.0583553000 0.0252190210 1 0
0.0572087760 0.0243987520 1 0
0.0562902130 0.0238024880 1 0
0.0556547380 0.0234865410 1 0
0.0553383550 0.0234771320 1 0
0.0553551800 0.0237660640 1 0
0.0556934290 0.0243127910 1 0
0.0563128600 0.0250511630 1 0
0.0571456990 0.0258985720 1 0
0.0581017910 0.0267660130 1 0
0.0590764670 0.0275679390 1 0
0.0599591300 0.0282311980 1 0
0.0606421290 0.0287023610 1 0
0.0610300360 0.0289522910 1 0
0.0610489510 0.0289770520 1 0
0.0606557050 0.0287956290 1 0
0.0598466830 0.0284457230 1 0
0.0586644950 0.0279784930 1 0
0.0571989690 0.0274527330 1 0
0.0555804120 0.0269290700 1 0
0.0539658720 0.0264650190 1 0
0.0525198610 0.0261115090 1 0
0.0513915570 0.0259102930 1 0
0.0506932640 0.0258910190 1 0
0.0504862870 0.0260679850 1 0
0.0507769570 0.0264381310 1 0
0.0515206020 0.0269813020 1 0
0.0526300100 0.0276625590 1 0
0.0539860520 0.0284355830 1 0
0.0554489740 0.0292461130 1 0
0.0568705830 0.0300352020 1 1
0.0581089590 0.0307434170 1 1
0.0590447400 0.0313164950 1 1
0.0595942970 0.0317112420 1 1
0.0597169880 0.0319001320 1 1
0.0594175620 0.0318740770 1 1
0.0587442110 0.0316433190 1 1
0.0577814000 0.0312364720 1 1
0.0566382910 0.0306980030 1 1
0.0554355380 0.0300847180 1 1
0.0542928000 0.0294616520 1 0
0.0533174370 0.0288973390 1 0
0.0525944480 0.0284578790 1 0
0.0521793390 0.0281992300 1 0
0.0520957060 0.0281585690 1 0
0.0523366100 0.0283470590 1 0
0.0528675400 0.0287460380 1 0
0.0536302890 0.0293075240 1 0
0.0545481070 0.0299594610 1 0
0.0555321980 0.0306153510 1 1
0.0564892850 0.0311863310 1 1
0.0573302100 0.0315929630 1 1
0.0579794370 0.0317748520 1 1
0.0583836590 0.0316971510 1 1
0.0585166960 0.0313535380 1 1
0.0583795800 0.0307661360 1 1
0.0579973520 0.0299832570 1 0
0.0574153880 0.0290749150 1 0
0.0566970400 0.0281256070 1 0
0.0559216080 0.0272247160 1 0
0.0551801460 0.0264557340 1 0
0.0545674790 0.0258857770 1 0
0.0541711750 0.0255571790 1 0
0.0540602280 0.0254830040 1 0
0.0542757090 0.0256474270 1 0
0.0548241060 0.0260102680 1 0
0.0556745650 0.0265136920 1 0
0.0567619200 0.0270895720 1 0
0.0579945860 0.0276671390 1 0
0.0592633530 0.0281804020 1 0
0.0604489720 0.0285740160 1 0
0.0614303630 0.0288069270 1 0
0.0620963890 0.0288539110 1 0
0.0623615560 0.0287052140 1 0
0.0621813590 0.0283651980 1 0
0.0615605250 0.0278517740 1 0
0.0605509150 0.0271973970 1 0
0.0592417130 0.0264499450 1 0
0.0577472020 0.0256708900 1 0
0.0561956510 0.0249302600 1 0
0.0547193070 0.0243007810 1 0
0.0534438120 0.0238528970 1 0
0.0524764890 0.0236488480 1 0
0.0518946490 0.0237340000 1 0
0.0517362080 0.0241279220 1 0
0.0519950060 0.0248194710 1 0
0.0526215870 0.0257670480 1 0
0.0535283410 0.0269024460 1 0
0.0545975730 0.0281372650 1 0
0.0556919910 0.0293718790 1 0
0.0566677580 0.0305064050 1 1
0.0573899230 0.0314521220 1 1
0.0577491050 0.0321409930 1 1
0.0576774290 0.0325310500 1 1
0.0571600790 0.0326073190 1 1
0.0562377400 0.0323801280 1 1
0.0549981590 0.0318826250 1 1
0.0535606890 0.0311676390 1 1
0.0520603080 0.0303034870 1 1
0.0506349210 0.0293686640 1 0
0.0494152350 0.0284454790 1 0
0.0485144870 0.0276133390 1 0
0.0480171690 0.0269430130 1 0
0.0479693710 0.0264924720 1 0
0.0483746720 0.0263032940 1 0
0.0491967750 0.0263964430 1 0
0.0503665120 0.0267678430 1 0
0.0517897400 0.0273853730 1 0
0.0533545270 0.0281891010 1 0
0.0549389190 0.0290962710 1 0
0.0564210810 0.0300105530 1 1
0.0576908620 0.0308328760 1 1
0.0586600260 0.0314718980 1 1
0.0592694000 0.0318540780 1 1
0.0594929350 0.0319328100 1 1
0.0593388640 0.0316944510 1 1
0.0588480610 0.0311596880 1 1
0.0580899760 0.0303807790 1 1
0.0571560870 0.0294357840 1 0
0.0561503880 0.0284201320 1 0
0.0551779980 0.0274358600 1 0
0.0543344660 0.0265797210 1 0
0.0536973060 0.0259320400 1 0
0.0533199710 0.0255480060 1 0
0.0532284780 0.0254522790 1 0
0.0534200590 0.0256373610 1 0
0.0538632530 0.0260660870 1 0
0.0545000860 0.0266780760 1 0
0.0552509790 0.0273988110 1 0
0.0560224990 0.0281492900 1 0
0.0567169840 0.0288541690 1 0
0.0572420010 0.0294476360 1 0
0.0575197570 0.0298777170 1 0
0.0574976720 0.0301093990 1 1
0.0571568760 0.0301262370 1 1
0.0565133350 0.0299304960 1 0
0.0556116960 0.0295419880 1 0
0.0545170990 0.0289953580 1 0
0.0533086500 0.0283362940 1 0
0.0520745650 0.0276180330 1 0
0.0509078610 0.0268989100 1 0
0.0499015650 0.0262401650 1 0
0.0491421860 0.0257023170 1 0
0.0487007000 0.0253390890 1 0
0.0486224250 0.0251894620 1 0
0.0489188450 0.0252697800 1 0
0.0495634980 0.0255685120 1 0
0.0504924000 0.0260459030 1 0
0.0516097910 0.0266388580 1 0
0.0528001200 0.0272694640 1 0
0.0539444240 0.0278545880 1 0
0.0549362230 0.0283145220 1 0
0.0556929510 0.0285800450 1 0
0.0561624100 0.0285982820 1 0
0.0563257720 0.0283376160 1 0
0.0561979650 0.0277919380 1 0
0.0558244180 0.0269840580 1 0
0.0552731970 0.0259664420 1 0
0.0546242930 0.0248167940 1 0
0.0539599210 0.0236284480 1 0
0.0533578880 0.0224984530 1 0
0.0528866960 0.0215161390 1 0
0.0525999890 0.0207535560 1 0
0.0525303720 0.0202587990 1 0
0.0526855270 0.0200530950 1 0
0.0530484630 0.0201316730 1 0
0.0535798930 0.0204674050 1 0
0.0542197940 0.0210161730 1 0
0.0548887680 0.0217232670 1 0
0.0554920960 0.0225294510 1 0
0.0559282680 0.0233745080 1 0
0.0561029220 0.0241976310 1 0
0.0559472490 0.0249371200 1 0
0.0554352700 0.0255326150 1 0
0.0545927080 0.0259307660 1 0
0.0534948950 0.0260929700 1 0
0.0522572290 0.0260033620 1 0
0.0510228050 0.0256746350 1 0
0.0499481500 0.0251485360 1 0
0.0491861220 0.0244895400 1 0
0.0488679080 0.0237739250 1 0
0.0490881850 0.0230780660 1 0
0.0498966910 0.0224683140 1 0
0.0512979250 0.0219934170 1 0
0.0532576500 0.0216801760 1 0
0.0557116580 0.0215329860 1 0
0.0585723200 0.0215368030 1 0
0.0617315720 0.0216618140 1 0
0.0650623290 0.0218682670 1 0
0.0684225440 0.0221112600 1 0
0.0716655780 0.0223454690 1 0
0.0746563780 0.0225293940 1 0
0.0772889650 0.0226292450 1 0
0.0795001060 0.0226226190 1 0
0.0812757320 0.0225009460 1 0
0.0826494240 0.0222696020 1 0
0.0836948110 0.0219464060 1 0
0.0845145660 0.0215600450 1 0
0.0852287210 0.0211487950 1 0
0.0859644560 0.0207590610 1 0
0.0868472600 0.0204429150 1 0
0.0879917050 0.0202538040 1 0
0.0894913500 0.0202407060 1 0
0.0914084050 0.0204421150 1 0
0.0937640610 0.0208811250 1 0
0.0965317680 0.0215628160 1 0
0.0996353490 0.0224746090 1 0
0.1029513440 0.0235881820 1 0
0.1063165490 0.0248606880 1 0
0.1095439660 0.0262351970 1 0
0.1124459080 0.0276424780 1 0
0.1148573100 0.0290058090 1 0
0.1166535710 0.0302485140 1 1
0.1177614740 0.0313027950 1 1
0.1181633270 0.0321185520 1 1
0.1178951760 0.0326707750 1 1
0.1170411260 0.0329632920 1 1
0.1157252900 0.0330271410 1 1
0.1141006230 0.0329142770 1 1
0.1123331440 0.0326895710 1 1
0.1105824540 0.0324236310 1 1
0.1089828330 0.0321868040 1 1
0.1076307090 0.0320433420 1 1
0.1065822120 0.0320454020 1 1
0.1058589270 0.0322277950 1 1
0.1054549520 0.0326048670 1 1
0.1053402390 0.0331700600 1 1
0.1054617960 0.0338969630 1 1
0.1057464720 0.0347401790 1 1
0.1061066030 0.0356362660 1 1
0.1064485740 0.0365068740 1 1
0.1066833190 0.0372654480 1 1
0.1067359420 0.0378268610 1 1
0.1065523490 0.0381181620 1 1
0.1061036270 0.0380882750 1 1
0.1053893460 0.0377147480 1 1
0.1044391810 0.0370063010 1 1
0.1033112510 0.0360009680 1 1
0.1020864590 0.0347606750 1 1
0.1008603930 0.0333642880 1 1
0.0997350590 0.0319013600 1 1
0.0988106330 0.0304670190 1 1
0.0981760540 0.0291566160 1 0
0.0978983120 0.0280584080 1 0
0.0980120210 0.0272434430 1 0
0.0985121260 0.0267545760 1 0
0.0993524550 0.0265995030 1 0
0.1004509050 0.0267509970 1 0
0.1016995760 0.0271526250 1 0
0.1029772800 0.0277264520 1 0
0.1041621080 0.0283814580 1 0
0.1051419890 0.0290233430 1 0
0.1058224630 0.0295654600 1 0
0.1061327020 0.0299386690 1 0
0.1060307670 0.0300981740 1 1
0.1055077740 0.0300271990 1 1
0.1045898230 0.0297378740 1 0
0.1033371940 0.0292690350 1 0
0.1018419890 0.0286808810 1 0
0.1002243010 0.0280476430 1 0
0.0986230260 0.0274495580 1 0
0.0971785720 0.0269639700 1 0
0.0960123420 0.0266553630 1 0
0.0952114100 0.0265666520 1 0
0.0948217660 0.0267144690 1 0
0.0948477970 0.0270887750 1 0
0.0952549500 0.0276556750 1 0
0.0959750350 0.0283623440 1 0
0.0969146130 0.0291426700 1 0
0.0979649970 0.0299226490 1 0
0.0990110750 0.0306256220 1 1
0.0999383230 0.0311782420 1 1
0.1006401310 0.0315177810 1 1
0.1010270240 0.0315997050 1 1
0.1010363610 0.0314030050 1 1
0.1006397190 0.0309320730 1 1
0.0998464430 0.0302160420 1 1
0.0987037670 0.0293062600 1 0
0.0972944390 0.0282716590 1 0
0.0957314630 0.0271924520 1 0
0.0941485760 0.0261529550 1 0
0.0926864530 0.0252336470 1 0
0.0914765760 0.0245030630 1 0
0.0906245900 0.0240110020 1 0
0.0901950760 0.0237838290 1 0
0.0902011630 0.0238214630 1 0
0.0906025220 0.0240962630 1 0
0.0913131410 0.0245554690 1 0
0.0922171790 0.0251278770 1 0
0.0931879720 0.0257327530 1 0
0.0941045370 0.0262882000 1 0
0.0948628260 0.0267176660 1 0
0.0953822310 0.0269549780 1 0
0.0956088820 0.0269489130 1 0
0.0955169610 0.0266683480 1 0
0.0951086340 0.0261080130 1 0
0.0944130000 0.0252930230 1 0
0.0934843630 0.0242794410 1 0
0.0923998100 0.0231497430 1 0
0.0912554990 0.0220041110 1 0
0.0901603600 0.0209491660 1 0
0.0892260770 0.0200852800 1 0
0.0885545260 0.0194935590 1 0
0.0882256060 0.0192250290 1 0
0.0882873840 0.0192954990 1 0
0.0887493450 0.0196871010 1 0
0.0895801610 0.0203540140 1 0
0.0907109400 0.0212293370 1 0
0.0920430910 0.0222320780 1 0
0.0934590070 0.0232747760 1 0
0.0948335140 0.0242720100 1 0
0.0960444740 0.0251487540 1 0
0.0969825630 0.0258468470 1 0
0.0975605200 0.0263286520 1 0
0.0977209120 0.0265781580 1 0
0.0974417150 0.0266003020 1 0
0.0967397670 0.0264191570 1 0
0.0956711930 0.0260751090 1 0
0.0943265560 0.0256205430 1 0
0.0928200310 0.0251144500 1 0
0.0912761970 0.0246175130 1 0
0.0898195000 0.0241882060 1 0
0.0885672180 0.0238785900 1 0
0.0876222530 0.0237291410 1 0
0.0870628850 0.0237639690 1 0
0.0869314100 0.0239883940 1 0
0.0872265880 0.0243894760 1 0
0.0879029210 0.0249384240 1 0
0.0888762750 0.0255936550 1 0
0.0900339940 0.0263045920 1 0
0.0912475170 0.0270167580 1 0
0.0923855250 0.0276777250 1 0
0.0933266550 0.0282425020 1 0
0.0939720690 0.0286772700 1 0
0.0942577120 0.0289611940 1 0
0.0941637840 0.0290866140 1 0
0.0937177330 0.0290582070 1 0
0.0929893770 0.0288919980 1 0
0.0920801360 0.0286146300 1 0
0.0911088950 0.0282623050 1 0
0.0901968020 0.0278782020 1 0
0.0894538130 0.0275080970 1 0
0.0889686130 0.0271951790 1 0
0.0888017920 0.0269752230 1 0
0.0889822560 0.0268722550 1 0
0.0895066550 0.0268948380 1 0
0.0903405290 0.0270344430 1 0
0.0914199600 0.0272672500 1 0
0.0926540630 0.0275584910 1 0
0.0939299380 0.0278670760 1 0
0.0951216210 0.0281493260 1 0
0.0961029840 0.0283622870 1 0
0.0967624730 0.0284672270 1 0
0.0970168390 0.0284331360 1 0
0.0968215740 0.0282398900 1 0
0.0961763260 0.0278810900 1 0
0.0951245620 0.0273663640 1 0
0.0937490020 0.0267223010 1 0
0.0921648430 0.0259909370 1 0
0.0905101350 0.0252254230 1 0
0.0889316110 0.0244840990 1 0
0.0875675900 0.0238248910 1 0
0.0865321790 0.0233003530 1 0
0.0859038670 0.0229527780 1 0
0.0857191370 0.0228095070 1 0
0.0859697100 0.0228789060 1 0
0.0866027950 0.0231472820 1 0
0.0875268020 0.0235777990 1 0
0.0886243320 0.0241133340 1 0
0.0897691230 0.0246839790 1 0
0.0908408190 0.0252170790 1 0
0.0917343760 0.0256463310 1 0
0.0923655820 0.0259176280 1 0
0.0926752940 0.0259917420 1 0
0.0926334920 0.0258457060 1 0
0.0922426050 0.0254746390 1 0
0.0915378360 0.0248940850 1 0
0.0905823860 0.0241413840 1 0
0.0894586300 0.0232738920 1 0
0.0882584520 0.0223631810 1 0
0.0870753680 0.0214869750 1 0
0.0859989940 0.0207216660 1 0
0.0851099870 0.0201362920 1 0
0.0844734330 0.0197867140 1 0
0.0841311850 0.0197087530 1 0
0.0840960720 0.0199112860 1 0
0.0843509460 0.0203722440 1 0
0.0848522860 0.0210397180 1 0
0.0855350720 0.0218382530 1 0
0.0863173610 0.0226789080 1 0
0.0871063370 0.0234711580 1 0
0.0878069710 0.0241342470 1 0
0.0883311290 0.0246053390 1 0
0.0886049110 0.0248434310 1 0
0.0885750750 0.0248308960 1 0
0.0882159300 0.0245747380 1 0
0.0875355480 0.0241069630 1 0
0.0865783330 0.0234824400 1 0
0.0854216090 0.0227739520 1 0
0.0841666230 0.0220650520 1 0
0.0829270270 0.0214413460 1 0
0.0818174180 0.0209812890 1 0
0.0809421340 0.0207478020 1 0
0.0803835600 0.0207811050 1 0
0.0801910410 0.0210925590 1 0
0.0803734320 0.0216604300 1 0
0.0808979020 0.0224295710 1 0
0.0816945710 0.0233160570 1 0
0.0826640200 0.0242161040 1 0
0.0836857240 0.0250184060 1 0
0.0846286370 0.0256189950 1 0
0.0853661860 0.0259360120 1 0
0.0857947490 0.0259205680 1 0
0.0858496010 0.0255614130 1 0
0.0855124930 0.0248836680 1 0
0.0848111330 0.0239434050 1 0
0.0838139760 0.0228201570 1 0
0.0826214790 0.0216084650 1 0
0.0813541580 0.0204086490 1 0
0.0801391480 0.0193171170 1 0
0.0790972480 0.0184173080 1 0
0.0783314890 0.0177730350 1 0
0.0779181280 0.0174255500 1 0
0.0779012900 0.0173933180 1 0
0.0782913450 0.0176719030 1 0
0.0790652340 0.0182328390 1 0
0.0801673400 0.0190235780 1 0
0.0815117780 0.0199715160 1 0
0.0829883440 0.0209925900 1 0
0.0844732530 0.0220016440 1 0
0.0858430610 0.0229210910 1 0
0.0869884320 0.0236863930 1 0
0.0878251040 0.0242488490 1 0
0.0883004840 0.0245771560 1 0
0.0883955760 0.0246590200 1 0
0.0881236590 0.0245027460 1 0
0.0875280320 0.0241371740 1 0
0.0866797680 0.0236085070 1 0
0.0856741330 0.0229745000 1 0
0.0846238990 0.0222980510 1 0
0.0836492180 0.0216417570 1 0
0.0828654750 0.0210633700 1 0
0.0823718290 0.0206113790 1 0
0.0822419170 0.0203207300 1 0
0.0825155680 0.0202092710 1 0
0.0831909740 0.0202754570 1 0
0.0842201080 0.0204978040 1 0
0.0855110350 0.0208369710 1 0
0.0869379770 0.0212405880 1 0
0.0883568780 0.0216495230 1 0
0.0896232120 0.0220041710 1 0
0.0906093780 0.0222503600 1 0
0.0912192210 0.0223445610 1 0
0.0913972490 0.0222577790 1 0
0.0911312470 0.0219782130 1 0
0.0904490650 0.0215131100 1 0
0.0894122230 0.0208892240 1 0
0.0881095720 0.0201509680 1 0
0.0866523900 0.0193562460 1 0
0.0851688140 0.0185707660 1 0
0.0837948390 0.0178616800 1 0
0.0826620240 0.0172910820 1 0
0.0818838690 0.0169095860 1 0
0.0815423880 0.0167506310 1 0
0.0816770280 0.0168263700 1 0
0.0822790150 0.0171255780 1 0
0.0832929990 0.0176137750 1 0
0.0846249670 0.0182358890 1 0
0.0861531820 0.0189216620 1 0
0.0877400360 0.0195933510 1 0
0.0892449340 0.0201743370 1 0
0.0905382760 0.0205971970 1 0
0.0915142580 0.0208105100 1 0
0.0920993340 0.0207837510 1 0
0.0922557060 0.0205094360 1 0
0.0919825120 0.0200029890 1 0
0.0913168700 0.0193019060 1 0
0.0903334100 0.0184644160 1 0
0.0891386890 0.0175661370 1 0
0.0878592360 0.0166933800 1 0
0.0866265260 0.0159335000 1 0
0.0855634980 0.0153645700 1 0
0.0847743960 0.0150467530 1 0
0.0843375130 0.0150157440 1 0
0.0843000470 0.0152775100 1 0
0.0846739110 0.0158051720 1 0
0.0854316580 0.0165404820 1 0
0.0865040050 0.0174012200 1 0
0.0877823730 0.0182928160 1 0
0.0891286350 0.0191204140 1 0
0.0903915380 0.0197985610 1 0
0.0914266060 0.0202581510 1 0
0.0921146960 0.0204513430 1 0
0.0923750630 0.0203546650 1 0
0.0921713640 0.0199701130 1 0
0.0915114320 0.0193241790 1 0
0.0904428010 0.0184649190 1 0
0.0890460920 0.0174575770 1 0
0.0874277460 0.0163793630 1 0
0.0857120750 0.0153138690 1 0
0.0840311660 0.0143454120 1 0
0.0825116640 0.0135532920 1 0
0.0812603780 0.0130055800 1 0
0.0803527130 0.0127524270 1 0
0.0798263790 0.0128194120 1 0
0.0796804480 0.0132019530 1 0
0.0798791550 0.0138628120 1 0
0.0803594150 0.0147351240 1 0
0.0810394070 0.0157313390 1 0
0.0818251690 0.0167553230 1 0
0.0826146040 0.0177138480 1 0
0.0833017670 0.0185252030 1 0
0.0837855690 0.0191249600 1 0
0.0839840100 0.0194699510 1 0
0.0838486850 0.0195411110 1 0
0.0833725180 0.0193452960 1 0
0.0825894200 0.0189154050 1 0
0.0815694040 0.0183073170 1 0
0.0804113580 0.0175935220 1 0
0.0792328810 0.0168553540 1 0
0.0781568770 0.0161752160 1 0
0.0772964880 0.0156281560 1 0
0.0767408080 0.0152723570 1 0
0.0765439440 0.0151408050 1 0
0.0767198910 0.0152379340 1 0
0.0772442180 0.0155422370 1 0
0.0780609770 0.0160120370 1 0
0.0790916970 0.0165915710 1 0
0.0802432350 0.0172170760 1 0
0.0814133790 0.0178228870 1 0
0.0824964070 0.0183466520 1 0
0.0833912590 0.0187337690 1 0
0.0840115870 0.0189419780 1 0
0.0842949670 0.0189455400 1 0
0.0842099490 0.0187375510 1 0
0.0837606630 0.0183297830 1 0
0.0829880410 0.0177505120 1 0
0.0819667130 0.0170413130 1 0
0.0807979000 0.0162537070 1 0
0.0795996710 0.0154457470 1 0
0.0784958190 0.0146783510 1 0
0.0776037810 0.0140118730 1 0
0.0770223650 0.0135033590 1 0
0.0768211490 0.0132038230 1 0
0.0770325150 0.0131542480 1 0
0.0776459960 0.0133796160 1 0
0.0786061440 0.0138821500 1 0
0.0798166620 0.0146369780 1 0
0.0811519520 0.0155928450 1 0
0.0824739900 0.0166777210 1 0
0.0836495680 0.0178074750 1 0
0.0845631820 0.0188957070 1 0
0.0851252160 0.0198633450 1 0
0.0852786640 0.0206471770 1 0
0.0850051560 0.0212059760 1 0
0.0843274170 0.0215228590 1 0
0.0833068900 0.0216040890 1 0
0.0820381760 0.0214755260 1 0
0.0806412450 0.0211774950 1 0
0.0792513090 0.0207587660 1 0
0.0780074930 0.0202708170 1 0
0.0770416530 0.0197633940 1 0
0.0764664960 0.0192816660 1 0
0.0763620730 0.0188643110 1 0
0.0767641340 0.0185410590 1 0
0.0776596210 0.0183293200 1 0
0.0789906420 0.0182320720 1 0
0.0806655700 0.0182391160 1 0
0.0825747860 0.0183306290 1 0
0.0846053650 0.0184806560 1 0
0.0866490090 0.0186598820 1 0
0.0886036800 0.0188383170 1 0
0.0903741130 0.0189879560 1 0
0.0918747900 0.0190846860 1 0
0.0930344090 0.0191093780 1 0
0.0937986150 0.0190494190 1 0
0.0941302190 0.0189017400 1 0
0.0940096220 0.0186764690 1 0
0.0934372980 0.0183991460 1 0
0.0924365070 0.0181101590 1 0
0.0910533220 0.0178611500 1 0
0.0893534570 0.0177090750 1 0
0.0874171330 0.0177090790 1 0
0.0853320180 0.0179067920 1 0
0.0831832670 0.0183304910 1 0
0.0810416670 0.0189847760 1 0
0.0789537410 0.0198478650 1 0
0.0769371410 0.0208732470 1 0
0.0749810290 0.0219948970 1 0
0.0730495150 0.0231342740 1 0
0.0710877160 0.0242077010 1 0
0.0690304880 0.0251343350 1 0
0.0668124230 0.0258455710 1 0
0.0643773490 0.0262948760 1 0
0.0616863450 0.0264649480 1 0
0.0587235340 0.0263698880 1 0
0.0554988320 0.0260526790 1 0
0.0520476830 0.0255790050 1 0
0.0484287620 0.0250277550 1 0
0.0447199860 0.0244794120 1 0
0.0410120170 0.0240055070 1 0
0.0373994140 0.0236623910 1 0
0.0339711740 0.0234899080 1 0
0.0308016840 0.0235128410 1 0
0.0279422390 0.0237425030 0 0
0.0254141730 0.0241771630 0 0
0.0232052820 0.0248014140 0 0
0.0212706920 0.0255852760 0 0
0.0195381090 0.0264841830 0 0
0.0179164550 0.0274409370 0 0
0.0163060810 0.0283899450 0 0
0.0146079830 0.0292638260 0 0
0.0127310430 0.0300026970 0 1
0.0105993050 0.0305647960 0 1
0.0081609630 0.0309346830 0 1
0.0053971400 0.0311257390 0 1
0.0023267680 0.0311763690 0 1
-0.0009944630 0.0311416060 0 1
-0.0044802500 0.0310832620 0 1
-0.0080226100 0.0310616610 0 1
-0.0115015160 0.0311300780 0 1
-0.0147939740 0.0313313020 0 1
-0.0177827680 0.0316950130 0 1
-0.0203664940 0.0322347210 0 1
-0.0224704150 0.0329443680 0 1
-0.0240550170 0.0337966890 0 1
-0.0251209630 0.0347453120 0 1
-0.0257107570 0.0357301970 0 1
-0.0259051530 0.0366844860 0 1
-0.0258127130 0.0375412770 0 1
-0.0255556920 0.0382397310 0 1
-0.0252570980 0.0387304080 0 1
-0.0250302900 0.0389796470 0 1
-0.0249699800 0.0389726220 0 1
-0.0251442990 0.0387145170 0 1
-0.0255889180 0.0382292300 0 1
-0.0263042610 0.0375560200 0 1
-0.0272558820 0.0367453170 0 1
-0.0283771090 0.0358543450 0 1
-0.0295735750 0.0349425580 0 1
-0.0307311710 0.0340668240 -1 1
-0.0317297710 0.0332764890 -1 1
-0.0324617930 0.0326094490 -1 1
-0.0328497640 0.0320906120 -1 1
-0.0328574120 0.0317325340 -1 1
-0.0324936270 0.0315364820 -1 1
-0.0318105110 0.0314926440 -1 1
-0.0308957730 0.0315799640 -1 1
-0.0298602660 0.0317669350 0 1
-0.0288237000 0.0320138210 0 1
-0.0279023110 0.0322758400 0 1
-0.0272002230 0.0325069420 0 1
-0.0268032930 0.0326642460 0 1
-0.0267732820 0.0327127830 0 1
-0.0271416040 0.0326294340 0 1
-0.0279039430 0.0324051170 0 1
-0.0290181170 0.0320455890 0 1
-0.0304063780 0.0315718920 -1 1
-0.0319616740 0.0310203520 -1 1
-0.0335581940 0.0304408720 -1 1
-0.0350666350 0.0298930320 -1 0
-0.0363708480 0.0294406830 -1 0
-0.0373807330 0.0291456740 -1 0
-0.0380396670 0.0290608060 -1 0
-0.0383277570 0.0292222480 -1 0
-0.0382615380 0.0296427040 -1 0
-0.0378898230 0.0303076030 -1 1
-0.0372863010 0.0311759270 -1 1
-0.0365408400 0.0321853950 -1 1
-0.0357514490 0.0332602200 -1 1
-0.0350172460 0.0343198480 -1 1
-0.0344312040 0.0352881200 -1 1
-0.0340717450 0.0361020390 -1 1
-0.0339938540 0.0367182990 -1 1
-0.0342217010 0.0371159840 -1 1
-0.0347449810 0.0372953540 -1 1
-0.0355205250 0.0372743410 -1 1
-0.0364797630 0.0370846570 -1 1
-0.0375398790 0.0367680440 -1 1
-0.0386130390 0.0363720280 -1 1
-0.0396092050 0.0359454110 -1 1
-0.0404350340 0.0355344420 -1 1
-0.0409969040 0.0351798460 -1 1
-0.0412129750 0.0349138090 -1 1
-0.0410307040 0.0347567840 -1 1
-0.0404414980 0.0347153240 -1 1
-0.0394862350 0.0347821990 -1 1
-0.0382505450 0.0349387820 -1 1
-0.0368532680 0.0351586580 -1 1
-0.0354328680 0.0354111330 -1 1
-0.0341341880 0.0356633920 -1 1
-0.0330947470 0.0358808450 -1 1
-0.0324297840 0.0360271610 -1 1
-0.0322176670 0.0360663750 -1 1
-0.0324884520 0.0359677490 -1 1
-0.0332181260 0.0357122330 -1 1
-0.0343306540 0.0352984190 -1 1
-0.0357086520 0.0347455210 -1 1
-0.0372107360 0.0340920430 -1 1
-0.0386912080 0.0333910930 -1 1
-0.0400175760 0.0327039430 -1 1
-0.0410831160 0.0320924500 -1 1
-0.0418136540 0.0316108780 -1 1
-0.0421689050 0.0312988020 -1 1
-0.0421397690 0.0311770250 -1 1
-0.0417442960 0.0312465760 -1 1
-0.0410249710 0.0314895020 -1 1
-0.0400473780 0.0318712180 -1 1
-0.0388975200 0.0323454010 -1 1
-0.0376757440 0.0328608970 -1 1
-0.0364878010 0.0333675950 -1 1
-0.0354348980 0.0338189950 -1 1
-0.0346048350 0.0341728500 -1 1
-0.0340650640 0.0343928600 -1 1
-0.0338569020 0.0344525890 -1 1
-0.0339910320 0.0343402800 -1 1
-0.0344457290 0.0340617570 -1 1
-0.0351680930 0.0336391610 -1 1
-0.0360780800 0.0331062920 -1 1
-0.0370758710 0.0325042190 -1 1
-0.0380522080 0.0318799520 -1 1
-0.0388995370 0.0312866040 -1 1
-0.0395223980 0.0307808610 -1 1
-0.0398470910 0.0304164680 -1 1
-0.0398303750 0.0302363560 -1 1
-0.0394658610 0.0302662190 -1 1
-0.0387866260 0.0305101680 -1 1
-0.0378624250 0.0309483650 -1 1
-0.0367912580 0.0315370840 -1 1
-0.0356875310 0.0322123510 -1 1
-0.0346685860 0.0328979060 -1 1
-0.0338403020 0.0335161380 -1 1
-0.0332843620 0.0339984000 -1 1
-0.0330505510 0.0342920180 -1 1
-0.0331550340 0.0343647340 -1 1
-0.0335831660 0.0342087960 -1 1
-0.0342942350 0.0338444550 -1 1
-0.0352258700 0.0333199990 -1 1
-0.0362975100 0.0327065200 -1 1
-0.0374139660 0.0320885180 -1 1
-0.0384708260 0.0315524570 -1 1
-0.0393628360 0.0311752190 -1 1
-0.0399948510 0.0310144690 -1 1
-0.0402932970 0.0311028380 -1 1
-0.0402152520 0.0314468540 -1 1
-0.0397534000 0.0320293050 -1 1
-0.0389371350 0.0328122070 -1 1
-0.0378304050 0.0337393250 -1 1
-0.0365257520 0.0347397950 -1 1
-0.0351347790 0.0357339270 -1 1
-0.0337779040 0.0366404960 -1 1
-0.0325755570 0.0373845520 -1 1
-0.0316390850 0.0379056500 -1 1
-0.0310588250 0.0381657040 -1 1
-0.0308901360 0.0381541040 -1 1
-0.0311418340 0.0378877590 -1 1
-0.0317724320 0.0374059120 -1 1
-0.0326963960 0.0367621260 -1 1
-0.0337969050 0.0360170270 -1 1
-0.0349393660 0.0352338110 -1 1
-0.0359837050 0.0344757230 -1 1
-0.0367973960 0.0338034450 -1 1
-0.0372696050 0.0332713100 -1 1
-0.0373235370 0.0329227780 -1 1
-0.0369245790 0.0327864520 -1 1
-0.0360842960 0.0328735400 -1 1
-0.0348612200 0.0331762970 -1 1
-0.0333581470 0.0336666710 -1 1
-0.0317139970 0.0342962030 -1 1
-0.0300886380 0.0349994640 -1 1
-0.0286421560 0.0357016910 0 1
-0.0275136760 0.0363287130 0 1
-0.0268056160 0.0368168660 0 1
-0.0265757360 0.0371216620 0 1
-0.0268357740 0.0372238290 0 1
-0.0275549340 0.0371313900 0 1
-0.0286669780 0.0368779940 0 1
-0.0300789640 0.0365186530 -1 1
-0.0316798000 0.0361232890 -1 1
-0.0333480430 0.0357680570 -1 1
-0.0349587380 0.0355251950 -1 1
-0.0363892680 0.0354533100 -1 1
-0.0375262590 0.0355902150 -1 1
-0.0382772450 0.0359492900 -1 1
-0.0385867410 0.0365193480 -1 1
-0.0384496910 0.0372673890 -1 1
-0.0379147000 0.0381428900 -1 1
-0.0370756410 0.0390822960 -1 1
-0.0360557350 0.0400136620 -1 1
-0.0349893590 0.0408624950 -1 1
-0.0340055360 0.0415591230 -1 1
-0.0332152080 0.0420459060 -1 1
-0.0327022880 0.0422825120 -1 1
-0.0325173900 0.0422495080 -1 1
-0.0326745500 0.0419507320 -1 1
-0.0331522870 0.0414132410 -1 1
-0.0338988200 0.0406841730 -1 1
-0.0348395490 0.0398259270 -1 1
-0.0358850740 0.0389109260 -1 1
-0.0369390580 0.0380157070 -1 1
-0.0379056540 0.0372142570 -1 1
-0.0386965390 0.0365719060 -1 1
-0.0392382400 0.0361406220 -1 1
-0.0394799690 0.0359550470 -1 1
-0.0394003450 0.0360292640 -1 1
-0.0390110090 0.0363553440 -1 1
-0.0383563200 0.0369033640 -1 1
-0.0375093780 0.0376216880 -1 1
-0.0365653230 0.0384383890 -1 1
-0.0356333040 0.0392665540 -1 1
-0.0348275570 0.0400147590 -1 1
-0.0342570100 0.0406006860 -1 1
-0.0340136550 0.0409637120 -1 1
-0.0341617990 0.0410726370 -1 1
-0.0347301430 0.0409268380 -1 1
-0.0357066220 0.0405519180 -1 1
-0.0370361420 0.0399927670 -1 1
-0.0386242490 0.0393064900 -1 1
-0.0403490980 0.0385562230 -1 1
-0.0420784340 0.0378062420 -1 1
-0.0436851370 0.0371180730 -1 1
-0.0450582460 0.0365463110 -1 1
-0.0461107680 0.0361338240 -1 1
-0.0467853240 0.0359082430 -1 1
-0.0470569550 0.0358818680 -1 1
-0.0469332860 0.0360546530 -1 1
-0.0464537380 0.0364176260 -1 1
-0.0456886950 0.0369540510 -1 1
-0.0447369780 0.0376375610 -1 1
-0.0437186370 0.0384295650 -1 1
-0.0427621050 0.0392797420 -1 1
-0.0419880620 0.0401314800 -1 1
-0.0414938200 0.0409305250 -1 1
-0.0413413650 0.0416333800 -1 1
-0.0415501870 0.0422130500 -1 1
-0.0420942860 0.0426614330 -1 1
-0.0429029090 0.0429884200 -1 1
-0.0438658230 0.0432183890 -1 1
-0.0448431040 0.0433855210 -1 1
-0.0456772570 0.0435291610 -1 1
-0.0462057700 0.0436897220 -1 1
-0.0462744210 0.0439052240 -1 1
-0.0457524140 0.0442079850 -1 1
-0.0445484680 0.0446208140 -1 1
-0.0426241630 0.0451530770 -1 1
-0.0400006950 0.0457975110 -1 1
-0.0367574840 0.0465282200 -1 1
-0.0330232660 0.0473004830 -1 1
-0.0289614690 0.0480538470 0 1
-0.0247523580 0.0487195640 0 1
-0.0205749300 0.0492313490 0 1
-0.0165910750 0.0495361960 0 1
-0.0129322260 0.0496017150 0 1
-0.0096871850 0.0494181170 0 1
-0.0068919310 0.0489960140 0 1
-0.0045256130 0.0483632360 0 1
-0.0025163010 0.0475625680 0 1
-0.0007555540 0.0466495070 0 1
0.0008827400 0.0456886690 0 1
0.0025245130 0.0447486360 0 1
0.0042827790 0.0438961580 0 1
0.0062509920 0.0431910400 0 1
0.0084998560 0.0426822420 0 1
0.0110741740 0.0424044110 0 1
0.0139885100 0.0423743820 0 1
0.0172230120 0.0425881650 0 1
0.0207219850 0.0430194350 0 1
0.0243970510 0.0436208720 0 1
0.0281346250 0.0443290270 0 1
0.0318060210 0.0450717770 1 1
0.0352787240 0.0457765270 1 1
0.0384277830 0.0463772030 1 1
0.0411464160 0.0468185810 1 1
0.0433554950 0.0470582670 1 1
0.0450114400 0.0470683090 1 1
0.0461108010 0.0468375530 1 1
0.0466899380 0.0463739530 1 1
0.0468202370 0.0457054490 1 1
0.0466005250 0.0448785980 1 1
0.0461483770 0.0439552850 1 1
0.0455915730 0.0430078720 1 1
0.0450589920 0.0421119210 1 1
0.0446694480 0.0413357810 1 1
0.0445194100 0.0407289440 1 1
0.0446725310 0.0403132440 1 1
0.0451526570 0.0400799760 1 1
0.0459403280 0.0399927300 1 1
0.0469736350 0.0399936730 1 1
0.0481553190 0.0400113980 1 1
0.0493663910 0.0399694800 1 1
0.0504834020 0.0397948560 1 1
0.0513946230 0.0394253220 1 1
0.0520106860 0.0388162410 1 1
0.0522686150 0.0379467310 1 1
0.0521331880 0.0368243220 1 1
0.0516001710 0.0354856970 1 1
0.0507007920 0.0339923940 1 1
0.0495030840 0.0324237130 1 1
0.0481074050 0.0308698070 1 1
0.0466365250 0.0294253590 1 0
0.0452228840 0.0281826610 1 0
0.0439958780 0.0272233930 1 0
0.0430698450 0.0266095930 1 0
0.0425323360 0.0263759570 1 0
0.0424338800 0.0265258190 1 0
0.0427808580 0.0270312800 1 0
0.0435317860 0.0278368780 1 0
0.0445978660 0.0288662050 1 0
0.0458500070 0.0300303240 1 1
0.0471336310 0.0312365320 1 1
0.0482895780 0.0323965200 1 1
0.0491753920 0.0334334720 1 1
0.0496805680 0.0342875580 1 1
0.0497348150 0.0349188930 1 1
0.0493127810 0.0353076260 1 1
0.0484364480 0.0354520230 1 1
0.0471732120 0.0353662960 1 1
0.0456285370 0.0350792600 1 1
0.0439346820 0.0346330580 1 1
0.0422381760 0.0340803410 1 1
0.0406877490 0.0334793600 1 1
0.0394221760 0.0328873490 1 1
0.0385569930 0.0323531870 1 1
0.0381711410 0.0319111900 1 1
0.0382966090 0.0315779730 1 1
0.0389138190 0.0313526700 1 1
0.0399536580 0.0312191510 1 1
0.0413058310 0.0311486950 1 1
0.0428325430 0.0311027340 1 1
0.0443849730 0.0310363250 1 1
0.0458188100 0.0309030530 1 1
0.0470069120 0.0306605750 1 1
0.0478493340 0.0302749300 1 1
0.0482807190 0.0297226370 1 0
0.0482751660 0.0289919110 1 0
0.0478492530 0.0280848470 1 0
0.0470623020 0.0270201300 1 0
0.0460106200 0.0258339660 1 0
0.0448139730 0.0245780990 1 0
0.0435974620 0.0233156720 1 0
0.0424753640 0.0221155480 1 0
0.0415419060 0.0210453630 1 0
0.0408692140 0.0201645360 1 0
0.0405088090 0.0195185230 1 0
0.0404918400 0.0191339580 1 0
0.0408255960 0.0190141510 1 0
0.0414882920 0.0191370070 1 0
0.0424258790 0.0194581460 1 0
0.0435527140 0.0199182590 1 0
0.0447566060 0.0204504820 1 0
0.0459087570 0.0209850770 1 0
0.0468784990 0.0214524730 1 0
0.0475512180 0.0217874640 1 0
0.0478452450 0.0219358430 1 0
0.0477215210 0.0218617290 1 0
0.0471833590 0.0215523470 1 0
0.0462702750 0.0210187390 1 0
0.0450515910 0.0202939490 1 0
0.0436216640 0.0194309120 1 0
0.0420948810 0.0185000350 1 0
0.0405980530 0.0175844770 1 0
0.0392592810 0.0167718660 1 0
0.0381940760 0.0161431720 1 0
0.0374911170 0.0157608520 1 0
0.0372012010 0.0156589580 1 0
0.0373320510 0.0158372660 1 0
0.0378496290 0.0162603710 1 0
0.0386843810 0.0168621010 1 0
0.0397390990 0.0175549900 1 0
0.0408965730 0.0182431180 1 0
0.0420284150 0.0188352540 1 0
0.0430065610 0.0192554280 1 0
0.0437162800 0.0194496340 1 0
0.0440682750 0.0193892240 1 0
0.0440080520 0.0190721390 1 0
0.0435215790 0.0185218340 1 0
0.0426369570 0.0177828600 1 0
0.0414215310 0.0169139820 1 0
0.0399738480 0.0159816800 1 0
0.0384114020 0.0150555350 1 0
0.0368571720 0.0142041110 1 0
0.0354277550 0.0134900240 1 0
0.0342240150 0.0129650390 1 0
0.0333237400 0.0126663260 1 0
0.0327753830 0.0126135060 1 0
0.0325920690 0.0128056400 1 0
0.0327464540 0.0132185960 1 0
0.0331695680 0.0138047140 1 0
0.0337574390 0.0144966290 1 0
0.0343862530 0.0152154710 1 0
0.0349320030 0.0158813150 1 0
0.0352886010 0.0164223050 1 0
0.0353805760 0.0167803240 1 0
0.0351693770 0.0169140860 1 0
0.0346537990 0.0168018460 1 0
0.0338656150 0.0164441390 1 0
0.0328624930 0.0158644370 1 0
0.0317213920 0.0151056380 1 0
0.0305341660 0.0142237990 1 0
0.0294033290 0.0132828070 0 0
0.0284350940 0.0123515010 0 0
0.0277298910 0.0115015190 0 0
0.0273722520 0.0108035280 0 0
0.0274206100 0.0103208580 0 0
0.0278975770 0.0101013540 0 0
0.0287833960 0.0101696720 0 0
0.0300155720 0.0105228920 1 0
0.0314956240 0.0111312420 1 0
0.0331019250 0.0119431820 1 0
0.0347056750 0.0128929350 1 0
0.0361852830 0.0139094630 1 0
0.0374358460 0.0149256540 1 0
0.0383747700 0.0158851320 1 0
0.0389465790 0.0167452680 1 0
0.0391274390 0.0174778140 1 0
0.0389278930 0.0180688940 1 0
0.0383932570 0.0185181600 1 0
0.0376015210 0.0188366920 1 0
0.0366571880 0.0190447090 1 0
0.0356797560 0.0191701230 1 0
0.0347886550 0.0192476650 1 0
0.0340888730 0.0193177730 1 0
0.0336599100 0.0194240850 1 0
0.0335485460 0.0196081530 1 0
0.0337664270 0.0199022120 1 0
0.0342927690 0.0203236380 1 0
0.0350792020 0.0208735760 1 0
0.0360537660 0.0215379290 1 0
0.0371257030 0.0222883810 1 0
0.0381940270 0.0230856210 1 0
0.0391585140 0.0238882220 1 0
0.0399291770 0.0246656270 1 0
0.0404330220 0.0254101220 1 0
0.0406190750 0.0261432210 1 0
0.0404615200 0.0269125520 1 0
0.0399614340 0.0277784030 1 0
0.0391496900 0.0287958110 1 0
0.0380915930 0.0300010490 1 1
0.0368892150 0.0314066890 1 1
0.0356766490 0.0330035110 1 1
0.0346058480 0.0347658280 1 1
0.0338240920 0.0366583850 1 1
0.0334484450 0.0386445910 1 1
0.0335444920 0.0406960970 1 1
0.0341140320 0.0428026410 1 1
0.0350946900 0.0449786330 1 1
0.0363723640 0.0472616370 1 1
0.0378012700 0.0497017030 1 1
0.0392231570 0.0523469790 1 1
0.0404828620 0.0552329490 1 1
0.0414451950 0.0583791380 1 1
0.0420189990 0.0617925160 1 1
0.0421832890 0.0654719850 1 1
0.0419983520 0.0694066210 1 1
0.0415905390 0.0735676660 1 1
0.0411175530 0.0779048710 1 1
0.0407279640 0.0823578830 1 1
0.0405246640 0.0868822620 1 1
0.0405412930 0.0914776260 1 1
0.0407412310 0.0961997520 1 1
0.0410416370 0.1011447030 1 1
0.0413530490 0.1064105920 1 1
0.0416171480 0.1120573860 1 1
0.0418264520 0.1180840880 1 1
0.0420187630 0.1244297260 1 1
0.0422513360 0.1309924170 1 1
0.0425685120 0.1376569800 1 1
0.0429773860 0.1443234690 1 1
0.0434393750 0.1509302340 1 1
0.0438759740 0.1574660720 1 1
0.0441816910 0.1639699410 1 1
0.0442401270 0.1705217790 1 1
0.0439451820 0.1772298100 1 1
0.0432269150 0.1842183050 1 1
0.0420728340 0.1916173220 1 1
0.0405348920 0.1995543720 1 1
0.0387220270 0.2081474490 1 1
0.0367842710 0.2174996510 1 1
0.0348926560 0.2276972450 1 1
0.0332169410 0.2388111840 1 1
0.0319045070 0.2508951570 1 1
0.0310654080 0.2639706370 1 1
0.0307664010 0.2779989400 1 1
0.0310313700 0.2928544070 1 1
0.0318432790 0.3083180430 1 1
0.0331468730 0.3241019530 1 1
0.0348537790 0.3398979980 1 1
0.0368481500 0.3554318330 1 1
0.0389897000 0.3705017480 1 1
0.0411166850 0.3849877520 1 1
0.0430554850 0.3988289120 1 1
0.0446394720 0.4119825190 1 1
0.0457325950 0.4243884830 1 1
0.0462498700 0.4359597200 1 1
0.0461695790 0.4466049720 1 1
0.0455355340 0.4562715000 1 1
0.0444491440 0.4649828790 1 1
0.0430542590 0.4728515720 1 1
0.0415214100 0.4800629510 1 1
0.0400340840 0.4868404410 1 1
0.0387730040 0.4934026800 1 1
0.0378966710 0.4999220880 1 1
0.0375229730 0.5064971230 1 1
0.0377163590 0.5131490490 1 1
0.0384800710 0.5198416710 1 1
0.0397516570 0.5265094360 1 1
0.0414035380 0.5330799670 1 1
0.0432527020 0.5394879570 1 1
0.0450804260 0.5456832040 1 1
0.0466573920 0.5516338960 1 1
0.0477689620 0.5573263750 1 1
0.0482402580 0.5627649700 1 1
0.0479608980 0.5679738940 1 1
0.0469015420 0.5729972980 1 1
0.0451119870 0.5778896730 1 1
0.0427024460 0.5826950370 1 1
0.0398220670 0.5874275900 1 1
0.0366446910 0.5920695720 1 1
0.0333585240 0.5965848920 1 1
0.0301527180 0.6009321130 1 1
0.0272005230 0.6050680550 0 1
0.0246432860 0.6089491770 0 1
0.0225786430 0.6125388760 0 1
0.0210544430 0.6158183870 0 1
0.0200688870 0.6187936250 0 1
0.0195764390 0.6214944910 0 1
0.0194977340 0.6239686720 0 1
0.0197309900 0.6262733390 0 1
0.0201633240 0.6284669960 0 1
0.0206805920 0.6306036450 0 1
0.0211743150 0.6327315850 0 1
0.0215459600 0.6348955790 0 1
0.0217107150 0.6371352970 0 1
0.0216021890 0.6394741780 0 1
0.0211780050 0.6419042370 0 1
0.0204260380 0.6443816370 0 1
0.0193710880 0.6468428460 0 1
0.0180793400 0.6492353050 0 1
0.0166555180 0.6515451640 0 1
0.0152301970 0.6538079460 0 1
0.0139403270 0.6560992860 0 1
0.0129088320 0.6585111690 0 1
0.0122279950 0.6611233530 0 1
0.0119490640 0.6639812530 0 1
0.0120789780 0.6670863120 0 1
0.0125835920 0.6703951660 0 1
0.0133939950 0.6738210430 0 1
0.0144117990 0.6772375420 0 1
0.0155139910 0.6804911060 0 1
0.0165619860 0.6834253530 0 1
0.0174157560 0.6859109800 0 1
0.0179482850 0.6878692170 0 1
0.0180566090 0.6892806720 0 1
0.0176697700 0.6901814660 0 1
0.0167555180 0.6906543190 0 1
0.0153266420 0.6908182090 0 1
0.0134457380 0.6908135520 0 1
0.0112263000 0.6907819270 0 1
0.0088280540 0.6908477020 0 1
0.0064437250 0.6911094390 0 1
0.0042762610 0.6916387490 0 1
0.0025113190 0.6924789980 0 1
0.0012931470 0.6936424630 0 1
0.0007092850 0.6951089350 0 1
0.0007853530 0.6968260800 0 1
0.0014888220 0.6987121200 0 1
0.0027395170 0.7006647460 0 1
0.0044238750 0.7025788740 0 1
0.0064094520 0.7043696490 0 1
0.0085561130 0.7059910890 0 1
0.0107223870 0.7074414640 0 1
0.0127692170 0.7087548060 0 1
0.0145648150 0.7099841940 0 1
0.0159927000 0.7111821270 0 1
0.0169623540 0.7123832270 0 1
0.0174195280 0.7135953600 0 1
0.0173519450 0.7148012400 0 1
0.0167876510 0.7159669410 0 1
0.0157873150 0.7170531440 0 1
0.0144347840 0.7180274510 0 1
0.0128292040 0.7188761010 0 1
0.0110787970 0.7196118940 0 1
0.0092945600 0.7202768630 0 1
0.0075827730 0.7209412440 0 1
0.0060378770 0.7216971900 0 1
0.0047388000 0.7226405960 0 1
0.0037474230 0.7238392780 0 1
0.0031042330 0.7252980350 0 1
0.0028204940 0.7269383260 0 1
0.0028708660 0.7286062050 0 1
0.0031900640 0.7301085660 0 1
0.0036763560 0.7312629880 0 1
0.0042030370 0.7319414940 0 1
0.0046364070 0.7320962520 0 1
0.0048572480 0.7317672770 0 1
0.0047816510 0.7310767480 0 1
0.0043766050 0.7302100530 0 1
0.0036669550 0.7293832040 0 1
0.0027317370 0.7288061950 0 1
0.0016909930 0.7286565860 0 1
0.0006874570 0.7290658250 0 1
-0.0001330270 0.7301097280 0 1
-0.0006407190 0.7317980750 0 1
-0.0007392240 0.7340658050 0 1
-0.0003794560 0.7367722030 0 1
0.0004304130 0.7397158340 0 1
0.0016220410 0.7426672150 0 1
0.0030743340 0.7454099990 0 1
0.0046292130 0.7477763120 0 1
0.0061104960 0.7496669060 0 1
0.0073433760 0.7510556510 0 1
0.0081739890 0.7519836380 0 1
0.0084863830 0.7525466940 0 1
0.0082130740 0.7528739070 0 1
0.0073389250 0.7530945090 0 1
0.0059012610 0.7533019230 0 1
0.0039870490 0.7535327550 0 1
0.0017251530 0.7537709090 0 1
-0.0007260400 0.7539719860 0 1
-0.0031918750 0.7540963520 0 1
-0.0054938960 0.7541386900 0 1
-0.0074642970 0.7541418550 0 1
-0.0089640750 0.7541884110 0 1
-0.0099004860 0.7543746880 0 1
-0.0102372520 0.7547797040 0 1
-0.0099953040 0.7554410640 0 1
-0.0092465980 0.7563462600 0 1
-0.0081044500 0.7574412290 0 1
-0.0067120890 0.7586494260 0 1
-0.0052301210 0.7598905050 0 1
-0.0038245580 0.7610930060 0 1
-0.0026562590 0.7622037530 0 1
-0.0018693830 0.7631952790 0 1
-0.0015764120 0.7640654980 0 1
-0.0018419250 0.7648273750 0 1
-0.0026712100 0.7654970450 0 1
-0.0040082920 0.7660881010 0 1
-0.0057429250 0.7666105760 0 1
-0.0077232470 0.7670721940 0 1
-0.0097716430 0.7674840990 0 1
-0.0117030000 0.7678704880 0 1
-0.0133445720 0.7682746340 0 1
-0.0145551860 0.7687537310 0 1
-0.0152403630 0.7693620120 0 1
-0.0153607530 0.7701297910 0 1
-0.0149342580 0.7710492070 0 1
-0.0140342050 0.7720723140 0 1
-0.0127839920 0.7731199310 0 1
-0.0113459570 0.7740964940 0 1
-0.0099030590 0.7749061210 0 1
-0.0086360240 0.7754665970 0 1
-0.0077016860 0.7757199820 0 1
-0.0072166640 0.7756383510 0 1
-0.0072465800 0.7752238900 0 1
-0.0078003190 0.7745066380 0 1
-0.0088308650 0.7735436970 0 1
-0.0102437880 0.7724181950 0 1
-0.0119108630 0.7712345180 0 1
-0.0136848640 0.7701106330 0 1
-0.0154133270 0.7691696500 0 1
-0.0169508370 0.7685284370 0 1
-0.0181704480 0.7682808640 0 1
-0.0189753840 0.7684803050 0 1
-0.0193100580 0.7691311040 0 1
-0.0191660740 0.7701951840 0 1
-0.0185797190 0.7716106940 0 1
-0.0176226310 0.7733101590 0 1
-0.0163903690 0.7752251390 0 1
-0.0149923770 0.7772762250 0 1
-0.0135438670 0.7793602640 0 1
-0.0121589320 0.7813481770 0 1
-0.0109447270 0.7830971600 0 1
-0.0099954230 0.7844720280 0 1
-0.0093832870 0.7853688180 0 1
-0.0091475070 0.7857340870 0 1
-0.0092867580 0.7855725900 0 1
-0.0097607650 0.7849403390 0 1
-0.0104993330 0.7839291720 0 1
-0.0114130800 0.7826523880 0 1
-0.0124016280 0.7812361030 0 1
-0.0133592720 0.7798145570 0 1
-0.0141814240 0.7785246040 0 1
-0.0147739960 0.7774961610 0 1
-0.0150647290 0.7768385280 0 1
-0.0150152640 0.7766247730 0 1
-0.0146324420 0.7768784020 0 1
-0.0139741850 0.7775683860 0 1
-0.0131456600 0.7786172250 0 1
-0.0122863830 0.7799205880 0 1
-0.0115512960 0.7813700690 0 1
-0.0110887290 0.7828687610 0 1
-0.0110194360 0.7843349510 0 1
-0.0114211980 0.7856985580 0 1
-0.0123215220 0.7868989090 0 1
-0.0136990090 0.7878871760 0 1
-0.0154923660 0.7886308330 0 1
-0.0176130320 0.7891177290 0 1
-0.0199550600 0.7893592460 0 1
-0.0223983270 0.7893914260 0 1
-0.0248079220 0.7892725900 0 1
-0.0270375670 0.7890760960 0 1
-0.0289423680 0.7888765440 0 1
-0.0303981240 0.7887318680 -1 1
-0.0313184170 0.7886711780 -1 1
-0.0316623470 0.7886972610 -1 1
-0.0314336470 0.7888000730 -1 1
-0.0306767250 0.7889686310 -1 1
-0.0294722220 0.7891945240 0 1
-0.0279308520 0.7894705530 0 1
-0.0261854620 0.7897891840 0 1
-0.0243833670 0.7901401630 0 1
-0.0226794340 0.7905055560 0 1
-0.0212268600 0.7908550320 0 1
-0.0201626840 0.7911447510 0 1
-0.0195900460 0.7913194430 0 1
-0.0195626880 0.7913191000 0 1
-0.0200756550 0.7910954560 0 1
-0.0210640560 0.7906359490 0 1
-0.0224107660 0.7899810100 0 1
-0.0239617680 0.7892227780 0 1
-0.0255458890 0.7884871390 0 1
-0.0269961130 0.7879082480 0 1
-0.0281700440 0.7876026230 0 1
-0.0289655370 0.7876492320 0 1
-0.0293279840 0.7880819470 0 1
-0.0292500100 0.7888929860 0 1
-0.0287677760 0.7900383850 0 1
-0.0279564910 0.7914419360 0 1
-0.0269239890 0.7930030350 0 1
-0.0258006280 0.7946109030 0 1
-0.0247261890 0.7961588220 0 1
-0.0238366190 0.7975519950 0 1
-0.0232527250 0.7987100880 0 1
-0.0230701240 0.7995697180 0 1
-0.0233486350 0.8000000000 0 1
-0.0241019880 0.8000000000 0 1
-0.0252920780 0.8000000000 0 1
-0.0268321400 0.7997116220 0 1
-0.0285994180 0.7991411310 0 1
-0.0304530230 0.7985094750 -1 1
-0.0322513040 0.7979315880 -1 1
-0.0338656300 0.7975196880 -1 1
-0.0351905570 0.7973647410 -1 1
-0.0361514360 0.7975217990 -1 1
-0.0367100060 0.7980097500 -1 1
-0.0368675520 0.7988212220 -1 1
-0.0366644100 0.7999304230 -1 1
-0.0361758360 0.8000000000 -1 1
-0.0355065710 0.8000000000 -1 1
-0.0347849490 0.8000000000 -1 1
-0.0341540930 0.8000000000 -1 1
-0.0337592920 0.8000000000 -1 1
-0.0337340730 0.8000000000 -1 1
-0.0341863070 0.8000000000 -1 1
-0.0351842580 0.8000000000 -1 1
-0.0367447070 0.8000000000 -1 1
-0.0388263080 0.8000000000 -1 1
-0.0413298760 0.8000000000 -1 1
-0.0441063500 0.8000000000 -1 1
-0.0469723810 0.8000000000 -1 1
-0.0497313250 0.8000000000 -1 1
-0.0521956620 0.8000000000 -1 1
-0.0542069750 0.8000000000 -1 1
-0.0556509260 0.8000000000 -1 1
-0.0564661320 0.8000000000 -1 1
-0.0566473540 0.8000000000 -1 1
-0.0562440250 0.8000000000 -1 1
-0.0553543020 0.8000000000 -1 1
-0.0541143180 0.8000000000 -1 1
-0.0526830720 0.8000000000 -1 1
-0.0512245580 0.8000000000 -1 1
-0.0498898880 0.8000000000 -1 1
-0.0488026080 0.8000000000 -1 1
-0.0480490980 0.8000000000 -1 1
-0.0476735760 0.8000000000 -1 1
-0.0476758500 0.8000000000 -1 1
-0.0480120260 0.8000000000 -1 1
-0.0486015280 0.8000000000 -1 1
-0.0493415520 0.8000000000 -1 1
-0.0501239470 0.8000000000 -1 1
-0.0508480040 0.8000000000 -1 1
-0.0514271920 0.8000000000 -1 1
-0.0517923630 0.8000000000 -1 1
-0.0518949100 0.8000000000 -1 1
-0.0517110950 0.8000000000 -1 1
-0.0512456000 0.8000000000 -1 1
-0.0505313740 0.8000000000 -1 1
-0.0496251780 0.8000000000 -1 1
-0.0486014690 0.8000000000 -1 1
-0.0475472890 0.8000000000 -1 1
-0.0465570090 0.8000000000 -1 1
-0.0457239800 0.8000000000 -1 1
-0.0451291190 0.8000000000 -1 1
-0.0448298790 0.8000000000 -1 1
-0.0448535000 0.8000000000 -1 1
-0.0451963320 0.8000000000 -1 1
-0.0458275340 0.8000000000 -1 1
-0.0466938040 0.8000000000 -1 1
-0.0477245720 0.8000000000 -1 1
-0.0488402880 0.8000000000 -1 1
-0.0499641730 0.8000000000 -1 1
-0.0510325380 0.8000000000 -1 1
-0.0519984320 0.8000000000 -1 1
-0.0528286600 0.8000000000 -1 1
-0.0534990610 0.8000000000 -1 1
-0.0539931270 0.8000000000 -1 1
-0.0543053580 0.8000000000 -1 1
-0.0544464800 0.8000000000 -1 1
-0.0544464370 0.8000000000 -1 1
-0.0543538740 0.8000000000 -1 1
-0.0542336650 0.8000000000 -1 1
-0.0541627170 0.8000000000 -1 1
-0.0542210800 0.8000000000 -1 1
-0.0544765960 0.8000000000 -1 1
-0.0549672470 0.8000000000 -1 1
-0.0556895760 0.8000000000 -1 1
-0.0565987030 0.8000000000 -1 1
-0.0576184280 0.8000000000 -1 1
-0.0586550510 0.8000000000 -1 1
-0.0596088420 0.8000000000 -1 1
-0.0603820330 0.8000000000 -1 1
-0.0608861590 0.8000000000 -1 1
-0.0610499020 0.8000000000 -1 1
-0.0608262710 0.8000000000 -1 1
-0.0601989120 0.8000000000 -1 1
-0.0591877490 0.8000000000 -1 1
-0.0578519150 0.8000000000 -1 1
-0.0562869850 0.8000000000 -1 1
-0.0546163380 0.8000000000 -1 1
-0.0529798320 0.8000000000 -1 1
-0.0515227790 0.8000000000 -1 1
-0.0503846550 0.8000000000 -1 1
-0.0496849740 0.8000000000 -1 1
-0.0495062680 0.8000000000 -1 1
-0.0498783290 0.8000000000 -1 1
-0.0507696590 0.8000000000 -1 1
-0.0520905110 0.8000000000 -1 1
-0.0537074950 0.8000000000 -1 1
-0.0554653920 0.8000000000 -1 1
-0.0572104730 0.8000000000 -1 1
-0.0588103510 0.8000000000 -1 1
-0.0601668560 0.8000000000 -1 1
-0.0612208180 0.8000000000 -1 1
-0.0619502240 0.8000000000 -1 1
-0.0623646010 0.8000000000 -1 1
-0.0624979810 0.8000000000 -1 1
-0.0624012730 0.8000000000 -1 1
-0.0621346000 0.8000000000 -1 1
-0.0617620360 0.8000000000 -1 1
-0.0613512690 0.8000000000 -1 1
-0.0609758580 0.8000000000 -1 1
-0.0607138910 0.8000000000 -1 1
-0.0606401910 0.8000000000 -1 1
-0.0608149140 0.8000000000 -1 1
-0.0612723690 0.8000000000 -1 1
-0.0620119000 0.8000000000 -1 1
-0.0629925670 0.8000000000 -1 1
-0.0641344510 0.8000000000 -1 1
-0.0653272560 0.8000000000 -1 1
-0.0664427810 0.7996686810 -1 1
-0.0673485130 0.7992322590 -1 1
-0.0679235390 0.7989483500 -1 1
-0.0680761010 0.7988610560 -1 1
-0.0677573620 0.7990067950 -1 1
-0.0669682230 0.7993968750 -1 1
-0.0657604170 0.8000000000 -1 1
-0.0642324280 0.8000000000 -1 1
-0.0625202100 0.8000000000 -1 1
-0.0607842410 0.8000000000 -1 1
-0.0591939990 0.8000000000 -1 1
-0.0579108460 0.8000000000 -1 1
-0.0570722450 0.8000000000 -1 1
-0.0567792740 0.8000000000 -1 1
-0.0570859420 0.8000000000 -1 1
-0.0579893710 0.8000000000 -1 1
-0.0594240670 0.8000000000 -1 1
-0.0612649690 0.7999811580 -1 1
-0.0633406620 0.7994246030 -1 1
-0.0654534640 0.7989906930 -1 1
-0.0674012690 0.7986606550 -1 1
-0.0689983080 0.7984016290 -1 1
-0.0700940560 0.7981910250 -1 1
-0.0705890020 0.7980334240 -1 1
-0.0704454330 0.7979617570 -1 1
-0.0696911130 0.7980225150 -1 1
-0.0684142490 0.7982559030 -1 1
-0.0667512080 0.7986822730 -1 1
-0.0648709630 0.7992947910 -1 1
-0.0629590840 0.8000000000 -1 1
-0.0612026010 0.8000000000 -1 1
-0.0597765900 0.8000000000 -1 1
-0.0588320800 0.8000000000 -1 1
-0.0584837830 0.8000000000 -1 1
-0.0587976690 0.8000000000 -1 1
-0.0597815480 0.8000000000 -1 1
-0.0613828380 0.8000000000 -1 1
-0.0634954830 0.8000000000 -1 1
-0.0659746350 0.8000000000 -1 1
-0.0686555020 0.8000000000 -1 1
-0.0713717940 0.8000000000 -1 1
-0.0739699490 0.8000000000 -1 1
-0.0763179660 0.8000000000 -1 1
-0.0783096730 0.7994774720 -1 1
-0.0798653990 0.7988228460 -1 1
-0.0809311150 0.7981268470 -1 1
-0.0814798840 0.7973975970 -1 1
-0.0815169590 0.7966519590 -1 1
-0.0810841920 0.7959137270 -1 1
-0.0802586670 0.7952164370 -1 1
-0.0791457570 0.7946038050 -1 1
-0.0778701640 0.7941180960 -1 1
-0.0765670520 0.7937777070 -1 1
-0.0753724270 0.7935581070 -1 1
-0.0744122940 0.7933897350 -1 1
-0.0737924240 0.7931744170 -1 1
-0.0735901030 0.7928117800 -1 1
-0.0738473160 0.7922247990 -1 1
-0.0745654420 0.7913756180 -1 1
-0.0757032320 0.7902676240 -1 1
-0.0771796380 0.7889381760 -1 1
-0.0788813350 0.7874503970 -1 1
-0.0806743400 0.7858862280 -1 1
-0.0824193110 0.7843368350 -1 1
-0.0839881370 0.7828892730 -1 1
-0.0852779490 0.7816130940 -1 1
-0.0862211490 0.7805508070 -1 1
-0.0867909760 0.7797155000 -1 1
-0.0869993850 0.7790990580 -1 1
-0.0868861490 0.7786888430 -1 1
-0.0865055880 0.7784815910 -1 1
-0.0859186380 0.7784821820 -1 1
-0.0851900510 0.7786853800 -1 1
-0.0843843660 0.7790529860 -1 1
-0.0835584630 0.7795050260 -1 1
-0.0827561750 0.7799342290 -1 1
-0.0820100290 0.7802358000 -1 1
-0.0813470140 0.7803357990 -1 1
-0.0807901100 0.7802061800 -1 1
-0.0803515090 0.7798651860 -1 1
-0.0800221780 0.7793687390 -1 1
-0.0797667830 0.7787982230 -1 1
-0.0795291360 0.7782464620 -1 1
-0.0792452620 0.7778021270 -1 1
-0.0788571380 0.7775333420 -1 1
-0.0783223970 0.7774720440 -1 1
-0.0776196160 0.7776031740 -1 1
-0.0767506750 0.7778658750 -1 1
-0.0757413150 0.7781697650 -1 1
-0.0746403280 0.7784184820 -1 1
-0.0735167550 0.7785275600 -1 1
-0.0724536550 0.7784316140 -1 1
-0.0715385980 0.7780870190 -1 1
-0.0708537650 0.7774781900 -1 1
-0.0704683610 0.7766279410 -1 1
-0.0704327540 0.7756040000 -1 1
-0.0707719950 0.7745113970 -1 1
-0.0714794360 0.7734682020 -1 1
-0.0725143230 0.7725743740 -1 1
-0.0738052650 0.7718878890 -1 1
-0.0752578350 0.7714163550 -1 1
-0.0767638780 0.7711239500 -1 1
-0.0782106220 0.7709479250 -1 1
-0.0794884480 0.7708172840 -1 1
-0.0804975600 0.7706675300 -1 1
-0.0811547330 0.7704476340 -1 1
-0.0814018660 0.7701196380 -1 1
-0.0812169460 0.7696569590 -1 1
-0.0806244610 0.7690463990 -1 1
-0.0796995570 0.7682906740 -1 1
-0.0785612810 0.7674054210 -1 1
-0.0773546780 0.7664113260 -1 1
-0.0762274820 0.7653284610 -1 1
-0.0753092300 0.7641783850 -1 1
-0.0746965440 0.7629924190 -1 1
-0.0744440130 0.7618184140 -1 1
-0.0745601480 0.7607181680 -1 1
-0.0750092070 0.7597546990 -1 1
-0.0757188660 0.7589769450 -1 1
-0.0765909170 0.7584115930 -1 1
-0.0775111070 0.7580673980 -1 1
-0.0783577700 0.7579487220 -1 1
-0.0790139140 0.7580660360 -1 1
-0.0793860140 0.7584332310 -1 1
-0.0794239350 0.7590562620 -1 1
-0.0791314410 0.7599252390 -1 1
-0.0785630130 0.7610124210 -1 1
-0.0778116630 0.7622686140 -1 1
-0.0769938790 0.7636162550 -1 1
-0.0762341120 0.7649486170 -1 1
-0.0756495960 0.7661430760 -1 1
-0.0753373640 0.7670846330 -1 1
-0.0753655230 0.7676882410 -1 1
-0.0757685770 0.7679100040 -1 1
-0.0765446860 0.7677450560 -1 1
-0.0776542800 0.7672191960 -1 1
-0.0790226570 0.7663836320 -1 1
-0.0805481260 0.7653133800 -1 1
-0.0821124420 0.7641008950 -1 1
-0.0835889870 0.7628413470 -1 1
-0.0848481130 0.7616176480 -1 1
-0.0857628840 0.7604930250 -1 1
-0.0862187590 0.7595091730 -1 1
-0.0861275130 0.7586850110 -1 1
-0.0854412630 0.7580159020 -1 1
-0.0841614270 0.7574763820 -1 1
-0.0823407130 0.7570275560 -1 1
-0.0800787990 0.7566265450 -1 1
-0.0775117550 0.7562346470 -1 1
-0.0747948750 0.7558233110 -1 1
-0.0720822280 0.7553776060 -1 1
-0.0695105400 0.7548955880 -1 1
-0.0671925120 0.7543830470 -1 1
-0.0652161570 0.7538463210 -1 1
-0.0636434450 0.7532865570 -1 1
-0.0625070240 0.7526967370 -1 1
-0.0618078270 0.7520619850 -1 1
-0.0615140280 0.7513630420 -1 1
-0.0615606470 0.7505804430 -1 1
-0.0618517320 0.7496976540 -1 1
-0.0622667170 0.7487051810 -1 1
-0.0626700420 0.7476065840 -1 1
-0.0629236870 0.7464230320 -1 1
-0.0629029580 0.7451935820 -1 1
-0.0625130290 0.7439712830 -1 1
-0.0617021630 0.7428160550 -1 1
-0.0604696670 0.7417862900 -1 1
-0.0588677810 0.7409326730 -1 1
-0.0569958300 0.7402961720 -1 1
-0.0549862650 0.7399073260 -1 1
-0.0529855700 0.7397809680 -1 1
-0.0511349350 0.7399045600 -1 1
-0.0495541950 0.7402260400 -1 1
-0.0483300120 0.7406497000 -1 1
-0.0475089280 0.7410447590 -1 1
-0.0470964560 0.7412658340 -1 1
-0.0470618350 0.7411793920 -1 1
-0.0473453000 0.7406879810 -1 1
-0.0478641930 0.7397476910 -1 1
-0.0485173340 0.7383792800 -1 1
-0.0491905240 0.7366718580 -1 1
-0.0497661790 0.7347738830 -1 1
-0.0501367100 0.7328693330 -1 1
-0.0502180340 0.7311451540 -1 1
-0.0499598350 0.7297593790 -1 1
-0.0493522290 0.7288166270 -1 1
-0.0484298230 0.7283557450 -1 1
-0.0472718040 0.7283526480 -1 1
-0.0459949680 0.7287356460 -1 1
-0.0447391910 0.7294047280 -1 1
-0.0436488280 0.7302475300 -1 1
-0.0428547750 0.7311504220 -1 1
-0.0424607870 0.7320055240 -1 1
-0.0425355970 0.7327138310 -1 1
-0.0431089750 0.7331864690 -1 1
-0.0441681130 0.7333474810 -1 1
-0.0456542920 0.7331388620 -1 1
-0.0474647310 0.7325266290 -1 1
-0.0494630460 0.7315073240 -1 1
-0.0514956150 0.7301132060 -1 1
-0.0534085910 0.7284126000 -1 1
-0.0550620140 0.7265032650 -1 1
-0.0563394810 0.7245004700 -1 1
-0.0571542290 0.7225231370 -1 1
-0.0574542680 0.7206795200 -1 1
-0.0572272790 0.7190525550 -1 1
-0.0565027250 0.7176879350 -1 1
-0.0553491560 0.7165904900 -1 1
-0.0538674540 0.7157298160 -1 1
-0.0521815350 0.7150491480 -1 1
-0.0504273560 0.7144729590 -1 1
-0.0487407320 0.7139166270 -1 1
-0.0472445240 0.7133008690 -1 1
-0.0460364560 0.7125634030 -1 1
-0.0451795570 0.7116584350 -1 1
-0.0446972330 0.7105459600 -1 1
-0.0445742890 0.7091812240 -1 1
-0.0447636090 0.7075121620 -1 1
-0.0451954990 0.7054865040 -1 1
-0.0457853460 0.7030650500 -1 1
-0.0464375210 0.7002354800 -1 1
-0.0470476220 0.6970231710 -1 1
-0.0475081390 0.6934973190 -1 1
-0.0477206820 0.6897695930 -1 1
-0.0476110100 0.6859825130 -1 1
-0.0471383170 0.6822884070 -1 1
-0.0462948930 0.6788242440 -1 1
-0.0451010170 0.6756894240 -1 1
-0.0436014100 0.6729321650 -1 1
-0.0418634540 0.6705465560 -1 1
-0.0399739140 0.6684787380 -1 1
-0.0380336740 0.6666395370 -1 1
-0.0361520700 0.6649210070 -1 1
-0.0344409500 0.6632136120 -1 1
-0.0330071130 0.6614204460 -1 1
-0.0319420450 0.6594663000 -1 1
-0.0313102860 0.6573014040 -1 1
-0.0311402980 0.6549009270 -1 1
-0.0314206450 0.6522616080 -1 1
-0.0321012220 0.6493966390 -1 1
-0.0330981620 0.6463304140 -1 1
-0.0343016450 0.6430947380 -1 1
-0.0355867710 0.6397259620 -1 1
-0.0368271460 0.6362610000 -1 1
-0.0379085120 0.6327320820 -1 1
-0.0387389770 0.6291623250 -1 1
-0.0392551780 0.6255638240 -1 1
-0.0394258390 0.6219380770 -1 1
-0.0392532870 0.6182779900 -1 1
-0.0387722590 0.6145709660 -1 1
-0.0380465040 0.6108016070 -1 1
-0.0371641760 0.6069518310 -1 1
-0.0362304950 0.6029984160 -1 1
-0.0353550230 0.5989109500 -1 1
-0.0346352430 0.5946534990 -1 1
-0.0341421180 0.5901908990 -1 1
-0.0339111310 0.5854970200 -1 1
-0.0339383210 0.5805606530 -1 1
-0.0341810870 0.5753873360 -1 1
-0.0345646680 0.5699988270 -1 1
-0.0349923440 0.5644319250 -1 1
-0.0353555660 0.5587365340 -1 1
-0.0355440540 0.5529721570 -1 1
-0.0354581210 0.5472019660 -1 1
-0.0350215610 0.5414842800 -1 1
-0.0341908210 0.5358629410 -1 1
-0.0329588710 0.5303598360 -1 1
-0.0313559230 0.5249720870 -1 1
-0.0294497030 0.5196734480 0 1
-0.0273447610 0.5144183300 0 1
-0.0251777210 0.5091478420 0 1
-0.0231066700 0.5037969490 0 1
-0.0212947310 0.4983012210 0 1
-0.0198887030 0.4926030290 0 1
-0.0189963420 0.4866580680 0 1
-0.0186694400 0.4804413650 0 1
-0.0188983870 0.4739499740 0 1
-0.0196183830 0.4672009850 0 1
-0.0207233900 0.4602269800 0 1
-0.0220820270 0.4530723930 0 1
-0.0235504610 0.4457919310 0 1
-0.0249820870 0.4384492500 0 1
-0.0262378350 0.4311134700 0 1
-0.0271994240 0.4238529900 0 1
-0.0277835540 0.4167280850 0 1
-0.0279526850 0.4097845510 0 1
-0.0277193290 0.4030501910 0 1
-0.0271437000 0.3965336180 0 1
-0.0263265140 0.3902228950 0 1
-0.0253994320 0.3840829120 0 1
-0.0245147450 0.3780538380 0 1
-0.0238331710 0.3720543880 0 1
-0.0235078260 0.3659911650 0 1
-0.0236656610 0.3597718800 0 1
-0.0243910330 0.3533187440 0 1
-0.0257147540 0.3465787070 0 1
-0.0276087290 0.3395277010 0 1
-0.0299862360 0.3321681480 0 1
-0.0327087970 0.3245227920 -1 1
-0.0355998350 0.3166291630 -1 1
-0.0384639080 0.3085362400 -1 1
-0.0411083070 0.3003021560 -1 1
-0.0433626790 0.2919914000 -1 1
-0.0450934050 0.2836706120 -1 1
-0.0462111470 0.2754023300 -1 1
-0.0466723590 0.2672371060 -1 1
-0.0464789430 0.2592064600 -1 1
-0.0456802840 0.2513192760 -1 1
-0.0443764200 0.2435616470 -1 1
-0.0427160640 0.2358989090 -1 1
-0.0408857550 0.2282801290 -1 1
-0.0390926210 0.2206461170 -1 1
-0.0375437730 0.2129404390 -1 1
-0.0364229590 0.2051207650 -1 1
-0.0358674770 0.1971673060 -1 1
-0.0359518840 0.1890857640 -1 1
-0.0366825620 0.1809044960 -1 1
-0.0380022620 0.1726680250 -1 1
-0.0398013890 0.1644291670 -1 1
-0.0419320430 0.1562412080 -1 1
-0.0442217360 0.1481523280 -1 1
-0.0464862260 0.1402046430 -1 1
-0.0485430350 0.1324374060 -1 1
-0.0502279800 0.1248907090 -1 1
-0.0514148140 0.1176062490 -1 1
-0.0520332810 0.1106247330 -1 1
-0.0520783410 0.1039812760 -1 1
-0.0516065090 0.0976997050 -1 1
-0.0507220760 0.0917861230 -1 1
-0.0495596290 0.0862227870 -1 1
-0.0482668290 0.0809646450 -1 1
-0.0469891150 0.0759411860 -1 1
-0.0458579570 0.0710644780 -1 1
-0.0449827820 0.0662413510 -1 1
-0.0444442740 0.0613864140 -1 1
-0.0442870990 0.0564332860 -1 1
-0.0445134960 0.0513426940 -1 1
-0.0450821000 0.0461072610 -1 1
-0.0459145470 0.0407521980 -1 1
-0.0469081960 0.0353297830 -1 1
-0.0479514600 0.0299074230 -1 0
-0.0489389000 0.0245531640 -1 0
-0.0497841730 0.0193236780 -1 0
-0.0504289200 0.0142576110 -1 0
-0.0508458830 0.0093748870 -1 0
-0.0510364380 0.0046802070 -1 0
-0.0510246040 0.0001671630 -1 0
-0.0508496380 -0.0041797010 -1 0
-0.0505584960 -0.0083845570 -1 0
-0.0501993400 -0.0124793710 -1 0
-0.0498181770 -0.0164998620 -1 0
-0.0494618800 -0.0204772850 -1 0
-0.0491889840 -0.0244287320 -1 0
-0.0490818440 -0.0283521780 -1 0
-0.0492463830 -0.0322306020 -1 -1
-0.0497902200 -0.0360432390 -1 -1
-0.0507850190 -0.0397778720 -1 -1
-0.0522306260 -0.0434387310 -1 -1
-0.0540377850 -0.0470476530 -1 -1
-0.0560358680 -0.0506394340 -1 -1
-0.0580015340 -0.0542543100 -1 -1
-0.0596994370 -0.0579300980 -1 -1
-0.0609238950 -0.0616949900 -1 -1
-0.0615298020 -0.0655610980 -1 -1
-0.0614465760 -0.0695195460 -1 -1
-0.0606782210 -0.0735392630 -1 -1
-0.0592958740 -0.0775713710 -1 -1
-0.0574253530 -0.0815581800 -1 -1
-0.0552291840 -0.0854431700 -1 -1
-0.0528843980 -0.0891789580 -1 -1
-0.0505608770 -0.0927328600 -1 -1
-0.0484051170 -0.0960900650 -1 -1
-0.0465316960 -0.0992532400 -1 -1
-0.0450224940 -0.1022380340 -1 -1
-0.0439306980 -0.1050662980 -1 -1
-0.0432839340 -0.1077598960 -1 -1
-0.0430839480 -0.1103370850 -1 -1
-0.0433051710 -0.1128118970 -1 -1
-0.0438942930 -0.1151949100 -1 -1
-0.0447717890 -0.1174924450 -1 -1
-0.0458373850 -0.1197035080 -1 -1
-0.0469805410 -0.1218178670 -1 -1
-0.0480939380 -0.1238187970 -1 -1
-0.0490854180 -0.1256899420 -1 -1
-0.0498830380 -0.1274218150 -1 -1
-0.0504312700 -0.1290133200 -1 -1
-0.0506835510 -0.1304684820 -1 -1
-0.0505999070 -0.1317935520 -1 -1
-0.0501544220 -0.1329988510 -1 -1
-0.0493496460 -0.1341051730 -1 -1
-0.0482294570 -0.1351510580 -1 -1
-0.0468826670 -0.1361960950 -1 -1
-0.0454351480 -0.1373171650 -1 -1
-0.0440329360 -0.1385984900 -1 -1
-0.0428216670 -0.1401186210 -1 -1
-0.0419278830 -0.1419370080 -1 -1
-0.0414440960 -0.1440826490 -1 -1
-0.0414171050 -0.1465476580 -1 -1
-0.0418410060 -0.1492872540 -1 -1
-0.0426578770 -0.1522251670 -1 -1
-0.0437668520 -0.1552626640 -1 -1
-0.0450391960 -0.1582895510 -1 -1
-0.0463364030 -0.1611952110 -1 -1
-0.0475279350 -0.1638786430 -1 -1
-0.0485054200 -0.1662583010 -1 -1
-0.0491926080 -0.1682821350 -1 -1
-0.0495516900 -0.1699355910 -1 -1
-0.0495850490 -0.1712446840 -1 -1
-0.0493312800 -0.1722731820 -1 -1
-0.0488564470 -0.1731145200 -1 -1
-0.0482441950 -0.1738794830 -1 -1
-0.0475886410 -0.1746809740 -1 -1
-0.0469898340 -0.1756179580 -1 -1
-0.0465476850 -0.1767619930 -1 -1
-0.0463521410 -0.1781502540 -1 -1
-0.0464715770 -0.1797862590 -1 -1
-0.0469421970 -0.1816459190 -1 -1
-0.0477596350 -0.1836853140 -1 -1
-0.0488743380 -0.1858474640 -1 -1
-0.0501948780 -0.1880673740 -1 -1
-0.0516015790 -0.1902768350 -1 -1
-0.0529661540 -0.1924101710 -1 -1
-0.0541688460 -0.1944097770 -1 -1
-0.0551078250 -0.1962300140 -1 -1
-0.0557024900 -0.1978398510 -1 -1
-0.0558962120 -0.1992249300 -1 -1
-0.0556625560 -0.2003887360 -1 -1
-0.0550143880 -0.2013523040 -1 -1
-0.0540104320 -0.2021522420 -1 -1
-0.0527524770 -0.2028370700 -1 -1
-0.0513717650 -0.2034622590 -1 -1
-0.0500104000 -0.2040850550 -1 -1
-0.0488047700 -0.2047598330 -1 -1
-0.0478731880 -0.2055336190 -1 -1
-0.0473068250 -0.2064417630 -1 -1
-0.0471634060 -0.2075049230 -1 -1
-0.0474635620 -0.2087282720 -1 -1
-0.0481888550 -0.2101027040 -1 -1
-0.0492802730 -0.2116072240 -1 -1
-0.0506382730 -0.2132115260 -1 -1
-0.0521280970 -0.2148776560 -1 -1
-0.0535923640 -0.2165601190 -1 -1
-0.0548679410 -0.2182056730 -1 -1
-0.0558037810 -0.2197560500 -1 -1
-0.0562799860 -0.2211554590 -1 -1
-0.0562266660 -0.2223605310 -1 -1
-0.0556361830 -0.2233482990 -1 -1
-0.0545641570 -0.2241195660 -1 -1
-0.0531203390 -0.2246976920 -1 -1
-0.0514528330 -0.2251238360 -1 -1
-0.0497289200 -0.2254501000 -1 -1
-0.0481154490 -0.2257329830 -1 -1
-0.0467614920 -0.2260294280 -1 -1
-0.0457850720 -0.2263952300 -1 -1
-0.0452643030 -0.2268829620 -1 -1
-0.0452319480 -0.2275369720 -1 -1
-0.0456726470 -0.2283862030 -1 -1
-0.0465233010 -0.2294386720 -1 -1
-0.0476783570 -0.2306808870 -1 -1
-0.0490020960 -0.2320815930 -1 -1
-0.0503470600 -0.2335964070 -1 -1
-0.0515728050 -0.2351709080 -1 -1
-0.0525590240 -0.2367428500 -1 -1
-0.0532126510 -0.2382461950 -1 -1
-0.0534724080 -0.2396189610 -1 -1
-0.0533124510 -0.2408136050 -1 -1
-0.0527440800 -0.2418058090 -1 -1
-0.0518145920 -0.2425978560 -1 -1
-0.0506028300 -0.2432156210 -1 -1
-0.0492109600 -0.2437006890 -1 -1
-0.0477538690 -0.2441002880 -1 -1
-0.0463491820 -0.2444581810 -1 -1
-0.0451087290 -0.2448088020 -1 -1
-0.0441295190 -0.2451746840 -1 -1
-0.0434836800 -0.2455659050 -1 -1
-0.0432103360 -0.2459810870 -1 -1
-0.0433129450 -0.2464105480 -1 -1
-0.0437618970 -0.2468408400 -1 -1
-0.0444984390 -0.2472577300 -1 -1
-0.0454372070 -0.2476455940 -1 -1
-0.0464698140 -0.2479850070 -1 -1
-0.0474741170 -0.2482525750 -1 -1
-0.0483297440 -0.2484249280 -1 -1
-0.0489351000 -0.2484844530 -1 -1
-0.0492201560 -0.2484234110 -1 -1
-0.0491527770 -0.2482460930 -1 -1
-0.0487398810 -0.2479703330 -1 -1
-0.0480252910 -0.2476274290 -1 -1
-0.0470849770 -0.2472575580 -1 -1
-0.0460196160 -0.2469003650 -1 -1
-0.0449437730 -0.2465854410 -1 -1
-0.0439719580 -0.2463289110 -1 -1
-0.0432048180 -0.2461384960 -1 -1
-0.0427195730 -0.2460240560 -1 -1
-0.0425658990 -0.2460065140 -1 -1
-0.0427651310 -0.2461175660 -1 -1
-0.0433098040 -0.2463881380 -1 -1
-0.0441625970 -0.2468321670 -1 -1
-0.0452561580 -0.2474355680 -1 -1
-0.0464951180 -0.2481555510 -1 -1
-0.0477599950 -0.2489283080 -1 -1
-0.0489130290 -0.2496795090 -1 -1
-0.0498084210 -0.2503330910 -1 -1
-0.0503096580 -0.2508176510 -1 -1
-0.0503113790 -0.2510725780 -1 -1
-0.0497579980 -0.2510551560 -1 -1
-0.0486536720 -0.2507472890 -1 -1
-0.0470643930 -0.2501595150 -1 -1
-0.0451146140 -0.2493301980 -1 -1
-0.0429772470 -0.2483189970 -1 -1
-0.0408540400 -0.2471959760 -1 -1
-0.0389466030 -0.2460293360 -1 -1
-0.0374244190 -0.2448744300 -1 -1
-0.0363998360 -0.2437660300 -1 -1
-0.0359172640 -0.2427153760 -1 -1
-0.0359569740 -0.2417123000 -1 -1
-0.0364496380 -0.2407308380 -1 -1
-0.0372962490 -0.2397353570 -1 -1
-0.0383864940 -0.2386847330 -1 -1
-0.0396098610 -0.2375338850 -1 -1
-0.0408595180 -0.2362340230 -1 -1
-0.0420337040 -0.2347349390 -1 -1
-0.0430390100 -0.2329926380 -1 -1
-0.0437968670 -0.2309821980 -1 -1
-0.0442513710 -0.2287103920 -1 -1
-0.0443747100 -0.2262199370 -1 -1
-0.0441677130 -0.2235810590 -1 -1
-0.0436569860 -0.2208744190 -1 -1
-0.0428920450 -0.2181749150 -1 -1
-0.0419434880 -0.2155425120 -1 -1
-0.0409003770 -0.2130181490 -1 -1
-0.0398654400 -0.2106201220 -1 -1
-0.0389479510 -0.2083407270 -1 -1
-0.0382540820 -0.2061456910 -1 -1
-0.0378750910 -0.2039769540 -1 -1
-0.0378753120 -0.2017577980 -1 -1
-0.0382830220 -0.1993999720 -1 -1
-0.0390866430 -0.1968135580 -1 -1
-0.0402362290 -0.1939201570 -1 -1
-0.0416485430 -0.1906664740 -1 -1
-0.0432150140 -0.1870312000 -1 -1
-0.0448128680 -0.1830202220 -1 -1
-0.0463188540 -0.1786535770 -1 -1
-0.0476233960 -0.1739525650 -1 -1
-0.0486423090 -0.1689328480 -1 -1
-0.0493241010 -0.1636049720 -1 -1
-0.0496533840 -0.1579809080 -1 -1
-0.0496527020 -0.1520825820 -1 -1
-0.0493828140 -0.1459472050 -1 -1
-0.0489377000 -0.1396264070 -1 -1
-0.0484312640 -0.1331804260 -1 -1
-0.0479776760 -0.1266709390 -1 -1
-0.0476716160 -0.1201550250 -1 -1
-0.0475748910 -0.1136806190 -1 -1
-0.0477121870 -0.1072834790 -1 -1
-0.0480742440 -0.1009858240 -1 -1
-0.0486244830 -0.0947962700 -1 -1
-0.0493054270 -0.0887105090 -1 -1
-0.0500439990 -0.0827121360 -1 -1
-0.0507575540 -0.0767730700 -1 -1
-0.0513623420 -0.0708540490 -1 -1
-0.0517838200 -0.0649065990 -1 -1
-0.0519669640 -0.0588780320 -1 -1
-0.0518852230 -0.0527208530 -1 -1
-0.0515459360 -0.0464062780 -1 -1
-0.0509887070 -0.0399379650 -1 -1
-0.0502770240 -0.0333593400 -1 -1
-0.0494895840 -0.0267495740 -1 0
-0.0487161070 -0.0202096220 -1 0
-0.0480556410 -0.0138456210 -1 0
-0.0476133880 -0.0077566280 -1 0
-0.0474941510 -0.0020282940 -1 0
-0.0477916890 0.0032697390 -1 0
-0.0485750170 0.0080845410 -1 0
-0.0498758110 0.0123792210 -1 0
-0.0516813200 0.0161319670 -1 0
-0.0539333360 0.0193360350 -1 0
-0.0565313820 0.0220000180 -1 0
-0.0593391850 0.0241464770 -1 0
-0.0621945070 0.0258084460 -1 0
-0.0649223510 0.0270252340 -1 0
-0.0673508190 0.0278392920 -1 0
-0.0693264640 0.0282945700 -1 0
-0.0707248810 0.0284353460 -1 0
-0.0714561460 0.0283038470 -1 0
-0.0714695140 0.0279360250 -1 0
-0.0707614960 0.0273563600 -1 0
-0.0693863210 0.0265733130 -1 0
-0.0674623160 0.0255770060 -1 0
-0.0651669670 0.0243401700 -1 0
-0.0627188190 0.0228223360 -1 0
-0.0603510520 0.0209761650 -1 0
-0.0582837350 0.0187543900 -1 0
-0.0566995790 0.0161163190 -1 0
-0.0557261660 0.0130334910 -1 0
-0.0554269270 0.0094942740 -1 0
-0.0558008770 0.0055070040 -1 0
-0.0567887240 0.0011015160 -1 0
-0.0582831370 -0.0036708150 -1 0
-0.0601419650 -0.0087386690 -1 0
-0.0622028600 -0.0140143870 -1 0
-0.0642971420 -0.0194001110 -1 0
-0.0662625680 -0.0247967830 -1 0
-0.0679564870 -0.0301149690 -1 -1
-0.0692692140 -0.0352850880 -1 -1
-0.0701347160 -0.0402649710 -1 -1
-0.0705358030 -0.0450436900 -1 -1
-0.0705034930 -0.0496411000 -1 -1
-0.0701122830 -0.0541030240 -1 -1
-0.0694721450 -0.0584930400 -1 -1
-0.0687160360 -0.0628822280 -1 -1
-0.0679832210 -0.0673378710 -1 -1
-0.0674018540 -0.0719119720 -1 -1
-0.0670743130 -0.0766318410 -1 -1
-0.0670668700 -0.0814959230 -1 -1
-0.0674048600 -0.0864762360 -1 -1
-0.0680744830 -0.0915255520 -1 -1
-0.0690302190 -0.0965865610 -1 -1
-0.0702043800 -0.1016011040 -1 -1
-0.0715151490 -0.1065178670 -1 -1
-0.0728718060 -0.1112966470 -1 -1
-0.0741787650 -0.1159081770 -1 -1
-0.0753405280 -0.1203304590 -1 -1
-0.0762682410 -0.1245446690 -1 -1
-0.0768879720 -0.1285341480 -1 -1
-0.0771506130 -0.1322875780 -1 -1
-0.0770420030 -0.1358038020 -1 -1
-0.0765906560 -0.1390951890 -1 -1
-0.0758700760 -0.1421887900 -1 -1
-0.0749931360 -0.1451260560 -1 -1
-0.0740989060 -0.1479612200 -1 -1
-0.0733356740 -0.1507577710 -1 -1
-0.0728434460 -0.1535822650 -1 -1
-0.0727371300 -0.1564950830 -1 -1
-0.0730924840 -0.1595394570 -1 -1
-0.0739384730 -0.1627326920 -1 -1
-0.0752577840 -0.1660635530 -1 -1
-0.0769945990 -0.1694961020 -1 -1
-0.0790669410 -0.1729765960 -1 -1
-0.0813789970 -0.1764401070 -1 -1
-0.0838292350 -0.1798159860 -1 -1
-0.0863143020 -0.1830330640 -1 -1
-0.0887317130 -0.1860252740 -1 -1
-0.0909842180 -0.1887373500 -1 -1
-0.0929872220 -0.1911300940 -1 -1
-0.0946784540 -0.1931848790 -1 -1
-0.0960269300 -0.1949068980 -1 -1
-0.0970371050 -0.1963265280 -1 -1
-0.0977447130 -0.1974982740 -1 -1
-0.0982051460 -0.1984966490 -1 -1
-0.0984805480 -0.1994090440 -1 -1
-0.0986312870 -0.2003268290 -1 -1
-0.0987122700 -0.2013366780 -1 -1
-0.0987717400 -0.2025135960 -1 -1
-0.0988513220 -0.2039158690 -1 -1
-0.0989868290 -0.2055810270 -1 -1
-0.0992077910 -0.2075221900 -1 -1
-0.0995330510 -0.2097252250 -1 -1
-0.0999627460 -0.2121481810 -1 -1
-0.1004711250 -0.2147246320 -1 -1
-0.1010051490 -0.2173713840 -1 -1
-0.1014900750 -0.2199988010 -1 -1
-0.1018402230 -0.2225204410 -1 -1
-0.1019725030 -0.2248599670 -1 -1
-0.1018202060 -0.2269559920 -1 -1
-0.1013448050 -0.2287663950 -1 -1
-0.1005437710 -0.2302724310 -1 -1
-0.0994524530 -0.2314817840 -1 -1
-0.0981394250 -0.2324293020 -1 -1
-0.0966972780 -0.2331742450 -1 -1
-0.0952319790 -0.2337933120 -1 -1
-0.0938530910 -0.2343700980 -1 -1
-0.0926659350 -0.2349834680 -1 -1
-0.0917643410 -0.2356977090 -1 -1
-0.0912208980 -0.2365560580 -1 -1
-0.0910749470 -0.2375780030 -1 -1
-0.0913236810 -0.2387594840 -1 -1
-0.0919202960 -0.2400737130 -1 -1
-0.0927770510 -0.2414720060 -1 -1
-0.0937700440 -0.2428881720 -1 -1
-0.0947474320 -0.2442497060 -1 -1
-0.0955441670 -0.2454930890 -1 -1
-0.0960022760 -0.2465767280 -1 -1
-0.0959928520 -0.2474871190 -1 -1
-0.0954352680 -0.2482375840 -1 -1
-0.0943093470 -0.2488612490 -1 -1
-0.0926586460 -0.2494015280 -1 -1
-0.0905855990 -0.2499035350 -1 -1
-0.0882400100 -0.2504081320 -1 -1
-0.0858024060 -0.2509488200 -1 -1
-0.0834636470 -0.2515510960 -1 -1
-0.0814025210 -0.2522334560 -1 -1
-0.0797651440 -0.2530089060 -1 -1
-0.0786513900 -0.2538860550 -1 -1
-0.0781104710 -0.2548689330 -1 -1
-0.0781432620 -0.2559546170 -1 -1
-0.0787085840 -0.2571290660 -1 -1
-0.0797321760 -0.2583639600 -1 -1
-0.0811162940 -0.2596178180 -1 -1
-0.0827469750 -0.2608421490 -1 -1
-0.0844985280 -0.2619903100 -1 -1
-0.0862382860 -0.2630255680 -1 -1
-0.0878347530 -0.2639250750 -1 -1
-0.0891692550 -0.2646780850 -1 -1
-0.0901478040 -0.2652804120 -1 -1
-0.0907083850 -0.2657299620 -1 -1
-0.0908210840 -0.2660264680 -1 -1
-0.0904837150 -0.2661744540 -1 -1
-0.0897184410 -0.2661865540 -1 -1
-0.0885715920 -0.2660859470 -1 -1
-0.0871139680 -0.2659084580 -1 -1
-0.0854387850 -0.2657045000 -1 -1
-0.0836577130 -0.2655394520 -1 -1
-0.0818962020 -0.2654900050 -1 -1
-0.0802866120 -0.2656350630 -1 -1
-0.0789567400 -0.2660427640 -1 -1
-0.0780148240 -0.2667574640 -1 -1
-0.0775353440 -0.2677900870 -1 -1
-0.0775491500 -0.2691131930 -1 -1
-0.0780387830 -0.2706612690 -1 -1
-0.0789386680 -0.2723368210 -1 -1
-0.0801401920 -0.2740216150 -1 -1
-0.0815025860 -0.2755907940 -1 -1
-0.0828704510 -0.2769283290 -1 -1
-0.0840956410 -0.2779429330 -1 -1
-0.0850576020 -0.2785817030 -1 -1
-0.0856766830 -0.2788368880 -1 -1
-0.0859186090 -0.2787428810 -1 -1
-0.0857911280 -0.2783647110 -1 -1
-0.0853357240 -0.2777826070 -1 -1
-0.0846187730 -0.2770782540 -1 -1
-0.0837251070 -0.2763265050 -1 -1
-0.0827526440 -0.2755926580 -1 -1
-0.0818047910 -0.2749328950 -1 -1
-0.0809797060 -0.2743948340 -1 -1
-0.0803580440 -0.2740159490 -1 -1
-0.0799911060 -0.2738194000 -1 -1
-0.0798917800 -0.2738088170 -1 -1
-0.0800322000 -0.2739648580 -1 -1
-0.0803505330 -0.2742460050 -1 -1
-0.0807645710 -0.2745939520 -1 -1
-0.0811872240 -0.2749424760 -1 -1
-0.0815398110 -0.2752281520 -1 -1
-0.0817613330 -0.2754003950 -1 -1
-0.0818136050 -0.2754283030 -1 -1
-0.0816825940 -0.2753035170 -1 -1
-0.0813766770 -0.2750398220 -1 -1
-0.0809230730 -0.2746702510 -1 -1
-0.0803636330 -0.2742417370 -1 -1
-0.0797510850 -0.2738070740 -1 -1
-0.0791465420 -0.2734152900 -1 -1
-0.0786173560 -0.2731035320 -1 -1
-0.0782331330 -0.2728926920 -1 -1
-0.0780590520 -0.2727858920 -1 -1
-0.0781476890 -0.2727679430 -1 -1
-0.0785312280 -0.2728056300 -1 -1
-0.0792153470 -0.2728504600 -1 -1
-0.0801753690 -0.2728459420 -1 -1
-0.0813548880 -0.2727402440 -1 -1
-0.0826671100 -0.2725009850 -1 -1
-0.0839994670 -0.2721253930 -1 -1
-0.0852224180 -0.2716410610 -1 -1
-0.0862028650 -0.2710976460 -1 -1
-0.0868215270 -0.2705535220 -1 -1
-0.0869911530 -0.2700621730 -1 -1
-0.0866699440 -0.2696621620 -1 -1
-0.0858655600 -0.2693728540 -1 -1
-0.0846304590 -0.2691959970 -1 -1
-0.0830535260 -0.2691209310 -1 -1
-0.0812514590 -0.2691303100 -1 -1
-0.0793602600 -0.2692047720 -1 -1
-0.0775261360 -0.2693271550 -1 -1
-0.0758947470 -0.2694866420 -1 -1
-0.0745980600 -0.2696812860 -1 -1
-0.0737405000 -0.2699166230 -1 -1
-0.0733868340 -0.2702002470 -1 -1
-0.0735533810 -0.2705346110 -1 -1
-0.0742046410 -0.2709106950 -1 -1
-0.0752567970 -0.2713046890 -1 -1
-0.0765873300 -0.2716794190 -1 -1
-0.0780497350 -0.2719906830 -1 -1
-0.0794923740 -0.2721959850 -1 -1
-0.0807783860 -0.2722622780 -1 -1
-0.0818023400 -0.2721709790 -1 -1
-0.0825002260 -0.2719202490 -1 -1
-0.0828509490 -0.2715246770 -1 -1
-0.0828706330 -0.2710122810 -1 -1
-0.0826037540 -0.2704193930 -1 -1
-0.0821150070 -0.2697849860 -1 -1
-0.0814837100 -0.2691463550 -1 -1
-0.0808000890 -0.2685372270 -1 -1
-0.0801609040 -0.2679876840 -1 -1
-0.0796620730 -0.2675242610 -1 -1
-0.0793888160 -0.2671689220 -1 -1
-0.0794068320 -0.2669363070 -1 -1
-0.0797573350 -0.2668297450 -1 -1
-0.0804550280 -0.2668374040 -1 -1
-0.0814863630 -0.2669304500 -1 -1
-0.0828080550 -0.2670653710 -1 -1
-0.0843490470 -0.2671915210 -1 -1
-0.0860177560 -0.2672616530 -1 -1
-0.0877121030 -0.2672407340 -1 -1
-0.0893280860 -0.2671093870 -1 -1
-0.0907650120 -0.2668623050 -1 -1
-0.0919287490 -0.2665051830 -1 -1
-0.0927358340 -0.2660533170 -1 -1
-0.0931207780 -0.2655323700 -1 -1
-0.0930466330 -0.2649799360 -1 -1
-0.0925160280 -0.2644461120 -1 -1
-0.0915781820 -0.2639911170 -1 -1
-0.0903278400 -0.2636785190 -1 -1
-0.0888947640 -0.2635646110 -1 -1
-0.0874265110 -0.2636870530 -1 -1
-0.0860695580 -0.2640572280 -1 -1
-0.0849523660 -0.2646590130 -1 -1
-0.0841711940 -0.2654534060 -1 -1
-0.0837787240 -0.2663864170 -1 -1
-0.0837765460 -0.2673974800 -1 -1
-0.0841135420 -0.2684260910 -1 -1
-0.0846924560 -0.2694156310 -1 -1
-0.0853856840 -0.2703146850 -1 -1
-0.0860591260 -0.2710769170 -1 -1
-0.0865996660 -0.2716604680 -1 -1
-0.0869372220 -0.2720275140 -1 -1
-0.0870518810 -0.2721450770 -1 -1
-0.0869646530 -0.2719889330 -1 -1
-0.0867197850 -0.2715513990 -1 -1
-0.0863683170 -0.2708507240 -1 -1
-0.0859575360 -0.2699372490 -1 -1
-0.0855263720 -0.2688917740 -1 -1
-0.0851055610 -0.2678151290 -1 -1
-0.0847210000 -0.2668123790 -1 -1
-0.0843978800 -0.2659765990 -1 -1
-0.0841628900 -0.2653759020 -1 -1
-0.0840425790 -0.2650458930 -1 -1
-0.0840584730 -0.2649886010 -1 -1
-0.0842218060 -0.2651771370 -1 -1
-0.0845299620 -0.2655639030 -1 -1
-0.0849648590 -0.2660895690 -1 -1
-0.0854933970 -0.2666904580 -1 -1
-0.0860695880 -0.2673038590 -1 -1
-0.0866368420 -0.2678725810 -1 -1
-0.0871303160 -0.2683495450 -1 -1
-0.0874823220 -0.2687013240 -1 -1
-0.0876331680 -0.2689090640 -1 -1
-0.0875447400 -0.2689664020 -1 -1
-0.0872106150 -0.2688761280 -1 -1
-0.0866585500 -0.2686484180 -1 -1
-0.0859457910 -0.2683018320 -1 -1
-0.0851499690 -0.2678656410 -1 -1
-0.0843582980 -0.2673805050 -1 -1
-0.0836571940 -0.2668954300 -1 -1
-0.0831241680 -0.2664613370 -1 -1
-0.0828229490 -0.2661234500 -1 -1
-0.0828007060 -0.2659148570 -1 -1
-0.0830847180 -0.2658527800 -1 -1
-0.0836769920 -0.2659379580 -1 -1
-0.0845481220 -0.2661564040 -1 -1
-0.0856336040 -0.2664824450 -1 -1
-0.0868360260 -0.2668820430 -1 -1
-0.0880347960 -0.2673156060 -1 -1
-0.0891017230 -0.2677402230 -1 -1
-0.0899191550 -0.2681123210 -1 -1
-0.0903973540 -0.2683917270 -1 -1
-0.0904868050 -0.2685465790 -1 -1
-0.0901814620 -0.2685572140 -1 -1
-0.0895131660 -0.2684180230 -1 -1
-0.0885420570 -0.2681378110 -1 -1
-0.0873483650 -0.2677389450 -1 -1
-0.0860274170 -0.2672549340 -1 -1
-0.0846855470 -0.2667268970 -1 -1
-0.0834329840 -0.2661999600 -1 -1
-0.0823727850 -0.2657195710 -1 -1
-0.0815895940 -0.2653266440 -1 -1
-0.0811430630 -0.2650510780 -1 -1
-0.0810665790 -0.2649050270 -1 -1
-0.0813672230 -0.2648791670 -1 -1
-0.0820233500 -0.2649445980 -1 -1
-0.0829814440 -0.2650595030 -1 -1
-0.0841569040 -0.2651768090 -1 -1
-0.0854412030 -0.2652502100 -1 -1
-0.0867143350 -0.2652384630 -1 -1
-0.0878598630 -0.2651085400 -1 -1
-0.0887792850 -0.2648376730 -1 -1
-0.0894028610 -0.2644145040 -1 -1
-0.0896959600 -0.2638402280 -1 -1
-0.0896611820 -0.2631300200 -1 -1
-0.0893359650 -0.2623136000 -1 -1
-0.0887856900 -0.2614338210 -1 -1
-0.0880945260 -0.2605428740 -1 -1
-0.0873570590 -0.2596956120 -1 -1
-0.0866716380 -0.2589403910 -1 -1
-0.0861337840 -0.2583103710 -1 -1
-0.0858275020 -0.2578188050 -1 -1
-0.0858143340 -0.2574597160 -1 -1
-0.0861216590 -0.2572128950 -1 -1
-0.0867320310 -0.2570510290 -1 -1
-0.0875768220 -0.2569466090 -1 -1
-0.0885397570 -0.2568767900 -1 -1
-0.0894734010 -0.2568252010 -1 -1
-0.0902245210 -0.2567804010 -1 -1
-0.0906602540 -0.2567319050 -1 -1
-0.0906881520 -0.2566659230 -1 -1
-0.0902658520 -0.2565630570 -1 -1
-0.0893994940 -0.2563995920 -1 -1
-0.0881339570 -0.2561529420 -1 -1
-0.0865404710 -0.2558096160 -1 -1
-0.0847071100 -0.2553719590 -1 -1
-0.0827344290 -0.2548603880 -1 -1
-0.0807330620 -0.2543102130 -1 -1
-0.0788183930 -0.2537647530 -1 -1
-0.0771008770 -0.2532678200 -1 -1
-0.0756741730 -0.2528580410 -1 -1
-0.0746038300 -0.2525656390 -1 -1
-0.0739184310 -0.2524110420 -1 -1
-0.0736063410 -0.2524045430 -1 -1
-0.0736213400 -0.2525462760 -1 -1
-0.0738946670 -0.2528257690 -1 -1
-0.0743463840 -0.2532209580 -1 -1
-0.0748924120 -0.2536975230 -1 -1
-0.0754483270 -0.2542095400 -1 -1
-0.0759317220 -0.2547020660 -1 -1
-0.0762646010 -0.2551159060 -1 -1
-0.0763770970 -0.2553942110 -1 -1
-0.0762130450 -0.2554896810 -1 -1
-0.0757372480 -0.2553707960 -1 -1
-0.0749430020 -0.2550261510 -1 -1
-0.0738569310 -0.2544666850 -1 -1
-0.0725387090 -0.2537255040 -1 -1
-0.0710753350 -0.2528548710 -1 -1
-0.0695703850 -0.2519204820 -1 -1
-0.0681302870 -0.2509936880 -1 -1
-0.0668525770 -0.2501428750 -1 -1
-0.0658200880 -0.2494254700 -1 -1
-0.0650992100 -0.2488818510 -1 -1
-0.0647372130 -0.2485319800 -1 -1
-0.0647560720 -0.2483745530 -1 -1
-0.0651446060 -0.2483879840 -1 -1
-0.0658539430 -0.2485331570 -1 -1
-0.0668004440 -0.2487575580 -1 -1
-0.0678753500 -0.2489998770 -1 -1
-0.0689570270 -0.2491955470 -1 -1
-0.0699228980 -0.2492844540 -1 -1
-0.0706602900 -0.2492197520 -1 -1
-0.0710758540 -0.2489744850 -1 -1
-0.0711035620 -0.2485438390 -1 -1
-0.0707119280 -0.2479434360 -1 -1
-0.0699093820 -0.2472055660 -1 -1
-0.0687445780 -0.2463750230 -1 -1
-0.0673004830 -0.2455053070 -1 -1
-0.0656853090 -0.2446550520 -1 -1
-0.0640230780 -0.2438837490 -1 -1
-0.0624434330 -0.2432460040 -1 -1
-0.0610701570 -0.2427849070 -1 -1
-0.0600089830 -0.2425264950 -1 -1
-0.0593346080 -0.2424769370 -1 -1
-0.0590783210 -0.2426224280 -1 -1
-0.0592214320 -0.2429310400 -1 -1
-0.0596986590 -0.2433561800 -1 -1
-0.0604098030 -0.2438413780 -1 -1
-0.0612358200 -0.2443262010 -1 -1
-0.0620561440 -0.2447529800 -1 -1
-0.0627638510 -0.2450730960 -1 -1
-0.0632768560 -0.2452511530 -1 -1
-0.0635455540 -0.2452665020 -1 -1
-0.0635562090 -0.2451126560 -1 -1
-0.0633284010 -0.2447953360 -1 -1
-0.0629074380 -0.2443303700 -1 -1
-0.0623553100 -0.2437433110 -1 -1
-0.0617430980 -0.2430712770 -1 -1
-0.0611445480 -0.2423645710 -1 -1
-0.0606291300 -0.2416846460 -1 -1
-0.0602552520 -0.2410972330 -1 -1
-0.0600662680 -0.2406621100 -1 -1
-0.0600897420 -0.2404229930 -1 -1
-0.0603370580 -0.2404015170 -1 -1
-0.0608008800 -0.2405967360 -1 -1
-0.0614517760 -0.2409875790 -1 -1
-0.0622381120 -0.2415351010 -1 -1
-0.0630926310 -0.2421838800 -1 -1
-0.0639445110 -0.2428641810 -1 -1
-0.0647307930 -0.2434969410 -1 -1
-0.0654017530 -0.2440023440 -1 -1
-0.0659201390 -0.2443102030 -1 -1
-0.0662586120 -0.2443687960 -1 -1
-0.0663989480 -0.2441500110 -1 -1
-0.0663320600 -0.2436513570 -1 -1
-0.0660564180 -0.2428964880 -1 -1
-0.0655765340 -0.2419341130 -1 -1
-0.0649060270 -0.2408340500 -1 -1
-0.0640753660 -0.2396804500 -1 -1
-0.0631376060 -0.2385632180 -1 -1
-0.0621661470 -0.2375683690 -1 -1
-0.0612463240 -0.2367682700 -1 -1
-0.0604664640 -0.2362134270 -1 -1
-0.0599095820 -0.2359272220 -1 -1
-0.0596428660 -0.2359041080 -1 -1
-0.0597047520 -0.2361110470 -1 -1
-0.0600950760 -0.2364916700 -1 -1
-0.0607743600 -0.2369724090 -1 -1
-0.0616725960 -0.2374701080 -1 -1
-0.0627028090 -0.2379010200 -1 -1
-0.0637746760 -0.2381908260 -1 -1
-0.0648053950 -0.2382844160 -1 -1
-0.0657262710 -0.2381533800 -1 -1
-0.0664846790 -0.2377989900 -1 -1
-0.0670422140 -0.2372494680 -1 -1
-0.0673708600 -0.2365522180 -1 -1
-0.0674501270 -0.2357636650 -1 -1
-0.0672684970 -0.2349404080 -1 -1
-0.0668294440 -0.2341342940 -1 -1
-0.0661574110 -0.2333910140 -1 -1
-0.0652981440 -0.2327497130 -1 -1
-0.0643125730 -0.2322415260 -1 -1
-0.0632679670 -0.2318865300 -1 -1
-0.0622285900 -0.2316900550 -1 -1
-0.0612448670 -0.2316403750 -1 -1
-0.0603415000 -0.2317092300 -1 -1
-0.0595088680 -0.2318544790 -1 -1
-0.0587021330 -0.2320231840 -1 -1
-0.0578490750 -0.2321551570 -1 -1
-0.0568642460 -0.2321880730 -1 -1
-0.0556650640 -0.2320637790 -1 -1
-0.0541849310 -0.2317341140 -1 -1
-0.0523801330 -0.2311652620 -1 -1
-0.0502308270 -0.2303411240 -1 -1
-0.0477392460 -0.2292665970 -1 -1
-0.0449285060 -0.2279704270 -1 -1
-0.0418432350 -0.2265056660 -1 -1
-0.0385502690 -0.2249460240 -1 -1
-0.0351369790 -0.2233778630 -1 -1
-0.0317061510 -0.2218888590 -1 -1
-0.0283669570 -0.2205553840 0 -1
-0.0252225620 -0.2194317860 0 -1
-0.0223574720 -0.2185445290 0 -1
-0.0198287430 -0.2178922670 0 -1
-0.0176628320 -0.2174506910 0 -1
-0.0158571440 -0.2171801430 0 -1
-0.0143845240 -0.2170342680 0 -1
-0.0131994630 -0.2169678400 0 -1
-0.0122445550 -0.2169419370 0 -1
-0.0114549180 -0.2169256610 0 -1
-0.0107598760 -0.2168947950 0 -1
-0.0100855180 -0.2168285580 0 -1
-0.0093624190 -0.2167066330 0 -1
-0.0085371690 -0.2165092900 0 -1
-0.0075819150 -0.2162219170 0 -1
-0.0064985820 -0.2158420900 0 -1
-0.0053182350 -0.2153852470 0 -1
-0.0040966080 -0.2148859240 0 -1
-0.0029069050 -0.2143937400 0 -1
-0.0018316420 -0.2139648790 0 -1
-0.0009543880 -0.2136510670 0 -1
-0.0003511520 -0.2134897650 0 -1
-0.0000818240 -0.2134993340 0 -1
-0.0001824760 -0.2136795860 0 -1
-0.0006592020 -0.2140147940 0 -1
-0.0014850160 -0.2144766550 0 -1
-0.0026016850 -0.2150268630 0 -1
-0.0039263870 -0.2156195520 0 -1
-0.0053608280 -0.2162035920 0 -1
-0.0068003410 -0.2167250720 0 -1
-0.0081424500 -0.2171304940 0 -1
-0.0092953660 -0.2173711990 0 -1
-0.0101848590 -0.2174091750 0 -1
-0.0107561660 -0.2172235810 0 -1
-0.0109702130 -0.2168158700 0 -1
-0.0107986690 -0.2162109230 0 -1
-0.0102250500 -0.2154535710 0 -1
-0.0092558090 -0.2146024320 0 -1
-0.0079371960 -0.2137229660 0 -1
-0.0063668140 -0.2128801370 0 -1
-0.0046894000 -0.2121308350 0 -1
-0.0030751310 -0.2115172490 0 -1
-0.0016891610 -0.2110627900 0 -1
-0.0006644000 -0.2107712260 0 -1
-0.0000840606 -0.2106282520 0 -1
0.0000260398 -0.2106041870 0 -1
-0.0003028360 -0.2106572560 0 -1
-0.0009895630 -0.2107377730 0 -1
-0.0019166150 -0.2107937820 0 -1
-0.0029486010 -0.2107777520 0 -1
-0.0039523630 -0.2106526240 0 -1
-0.0048135120 -0.2103955800 0 -1
-0.0054467550 -0.2099997660 0 -1
-0.0058009210 -0.2094748830 0 -1
-0.0058605400 -0.2088464440 0 -1
-0.0056447090 -0.2081532680 0 -1
-0.0052027800 -0.2074434220 0 -1
-0.0046059300 -0.2067685820 0 -1
-0.0039346330 -0.2061769290 0 -1
-0.0032646610 -0.2057067700 0 -1
-0.0026561040 -0.2053841250 0 -1
-0.0021482620 -0.2052244090 0 -1
-0.0017594550 -0.2052344600 0 -1
-0.0014891960 -0.2054123560 0 -1
-0.0013216000 -0.2057462410 0 -1
-0.0012299980 -0.2062139130 0 -1
-0.0011817740 -0.2067826470 0 -1
-0.0011419240 -0.2074083950 0 -1
-0.0010745720 -0.2080355520 0 -1
-0.0009435210 -0.2085997170 0 -1
-0.0007149040 -0.2090343520 0 -1
-0.0003632090 -0.2092796700 0 -1
0.0001227930 -0.2092913530 0 -1
0.0007385980 -0.2090474030 0 -1
0.0014665300 -0.2085515370 0 -1
0.0022787680 -0.2078322350 0 -1
0.0031398950 -0.2069384800 0 -1
0.0040102730 -0.2059344070 0 -1
0.0048497110 -0.2048936540 0 -1
0.0056198310 -0.2038929680 0 -1
0.0062855310 -0.2030053890 0 -1
0.0068167090 -0.2022942160 0 -1
0.0071899650 -0.2018075740 0 -1
0.0073896960 -0.2015726790 0 -1
0.0074096430 -0.2015912560 0 -1
0.0072567570 -0.2018390360 0 -1
0.0069570800 -0.2022699050 0 -1
0.0065599490 -0.2028228540 0 -1
0.0061362110 -0.2034298630 0 -1
0.0057694550 -0.2040237760 0 -1
0.0055431670 -0.2045453160 0 -1
0.0055278060 -0.2049482460 0 -1
0.0057710000 -0.2052020750 0 -1
0.0062922810 -0.2052928000 0 -1
0.0070811260 -0.2052230440 0 -1
0.0080963630 -0.2050117720 0 -1
0.0092673830 -0.2046922590 0 -1
0.0104991130 -0.2043071540 0 -1
0.0116820190 -0.2039010200 0 -1
0.0127071800 -0.2035125090 0 -1
0.0134830170 -0.2031692950 0 -1
0.0139473400 -0.2028873200 0 -1
0.0140713270 -0.2026727210 0 -1
0.0138571980 -0.2025238710 0 -1
0.0133326420 -0.2024331820 0 -1
0.0125445050 -0.2023894660 0 -1
0.0115543860 -0.2023801380 0 -1
0.0104374010 -0.2023922150 0 -1
0.0092817580 -0.2024124200 0 -1
0.0081845660 -0.2024268620 0 -1
0.0072417460 -0.2024200900 0 -1
0.0065347190 -0.2023741950 0 -1
0.0061189400 -0.2022700830 0 -1
0.0060187550 -0.2020918680 0 -1
0.0062293650 -0.2018322310 0 -1
0.0067215560 -0.2014959030 0 -1
0.0074448780 -0.2011004320 0 -1
0.0083303710 -0.2006745810 0 -1
0.0092958700 -0.2002546610 0 -1
0.0102532320 -0.1998794810 0 -1
0.0111152290 -0.1995848360 0 -1
0.0118021410 -0.1993980360 0 -1
0.0122493400 -0.1993333120 0 -1
0.0124155050 -0.1993895620 0 -1
0.0122890010 -0.1995509440 0 -1
0.0118896040 -0.1997893630 0 -1
0.0112647870 -0.2000675440 0 -1
0.0104823970 -0.2003420740 0 -1
0.0096220620 -0.2005663070 0 -1
0.0087672130 -0.2006932140 0 -1
0.0079991320 -0.2006787250 0 -1
0.0073931390 -0.2004856970 0 -1
0.0070151630 -0.2000871770 0 -1
0.0069160760 -0.1994676730 0 -1
0.0071233380 -0.1986234330 0 -1
0.0076345610 -0.1975637050 0 -1
0.0084190090 -0.1963135900 0 -1
0.0094275970 -0.1949170150 0 -1
0.0106058820 -0.1934376240 0 -1
0.0119034810 -0.1919562110 0 -1
0.0132761020 -0.1905639360 0 -1
0.0146805740 -0.1893507470 0 -1
0.0160671090 -0.1883901060 0 -1
0.0173737970 -0.1877240220 0 -1
0.0185261460 -0.1873538590 0 -1
0.0194426240 -0.1872401590 0 -1
0.0200453930 -0.1873101430 0 -1
0.0202727680 -0.1874687740 0 -1
0.0200893480 -0.1876104900 0 -1
0.0194919390 -0.1876303890 0 -1
0.0185103490 -0.1874335860 0 -1
0.0172017380 -0.1869415730 0 -1
0.0156392220 -0.1860960750 0 -1
0.0138996410 -0.1848623230 0 -1
0.0120554830 -0.1832330600 0 -1
0.0101708100 -0.1812325600 0 -1
0.0082976040 -0.1789175740 0 -1
0.0064707890 -0.1763719260 0 -1
0.0047037020 -0.1736948840 0 -1
0.0029869870 -0.1709874930 0 -1
0.0012918060 -0.1683412170 0 -1
-0.0004241280 -0.1658305200 0 -1
-0.0022088680 -0.1635091740 0 -1
-0.0041071070 -0.1614095720 0 -1
-0.0061505900 -0.1595440680 0 -1
-0.0083510670 -0.1579077590 0 -1
-0.0106980730 -0.1564817650 0 -1
-0.0131594070 -0.1552349860 0 -1
-0.0156810330 -0.1541235820 0 -1
-0.0181874610 -0.1530908790 0 -1
-0.0205866770 -0.1520711270 0 -1
-0.0227821980 -0.1509973920 0 -1
-0.0246905030 -0.1498106250 0 -1
-0.0262574180 -0.1484665830 0 -1
-0.0274664600 -0.1469391670 0 -1
-0.0283372100 -0.1452211090 0 -1
-0.0289167730 -0.1433237640 0 -1
-0.0292684870 -0.1412770910 0 -1
-0.0294608930 -0.1391302700 0 -1
-0.0295581060 -0.1369528330 0 -1
-0.0296116850 -0.1348347110 0 -1
-0.0296557650 -0.1328820550 0 -1
-0.0297078810 -0.1312064350 0 -1
-0.0297747130 -0.1299087850 0 -1
-0.0298587100 -0.1290629960 0 -1
-0.0299613150 -0.1287039130 0 -1
-0.0300810570 -0.1288221310 -1 -1
-0.0302088290 -0.1293661150 -1 -1
-0.0303245630 -0.1302505540 -1 -1
-0.0303975220 -0.1313687340 -1 -1
-0.0303898310 -0.1326065530 -1 -1
-0.0302621380 -0.1338555610 -1 -1
-0.0299800130 -0.1350226190 0 -1
-0.0295198690 -0.1360356290 0 -1
-0.0288740240 -0.1368468820 0 -1
-0.0280548710 -0.1374346940 0 -1
-0.0270973380 -0.1378018820 0 -1
-0.0260581210 -0.1379706250 0 -1
-0.0250103060 -0.1379766350 0 -1
-0.0240329790 -0.1378654920 0 -1
-0.0231982370 -0.1376901590 0 -1
-0.0225608800 -0.1375065980 0 -1
-0.0221545870 -0.1373666380 0 -1
-0.0219934940 -0.1373108200 0 -1
-0.0220751990 -0.1373640980 0 -1
-0.0223819850 -0.1375342910 0 -1
-0.0228802090 -0.1378112080 0 -1
-0.0235198450 -0.1381655000 0 -1
-0.0242357590 -0.1385487350 0 -1
-0.0249520150 -0.1388973370 0 -1
-0.0255899730 -0.1391417390 0 -1
-0.0260789410 -0.1392193340 0 -1
-0.0263662560 -0.1390877570 0 -1
-0.0264236530 -0.1387349900 0 -1
-0.0262488240 -0.1381834650 0 -1
-0.0258641090 -0.1374866780 0 -1
-0.0253153820 -0.1367197970 0 -1
-0.0246710350 -0.1359682530 0 -1
-0.0240175680 -0.1353174490 0 -1
-0.0234496380 -0.1348441360 0 -1
-0.0230561370 -0.1346087400 0 -1
-0.0229061410 -0.1346488270 0 -1
-0.0230384810 -0.1349748280 0 -1
-0.0234565240 -0.1355687950 0 -1
-0.0241274830 -0.1363861990 0 -1
-0.0249856810 -0.1373607170 0 -1
-0.0259403780 -0.1384110540 0 -1
-0.0268879270 -0.1394474330 0 -1
-0.0277252390 -0.1403761320 0 -1
-0.0283607410 -0.1411036030 0 -1
-0.0287219730 -0.1415434290 0 -1
-0.0287620430 -0.1416275510 0 -1
-0.0284657380 -0.1413195470 0 -1
-0.0278525180 -0.1406253130 0 -1
-0.0269733620 -0.1395962300 0 -1
-0.0259018700 -0.1383223520 0 -1
-0.0247229380 -0.1369179380 0 -1
-0.0235220590 -0.1355047630 0 -1
-0.0223757440 -0.1341978710 0 -1
-0.0213424330 -0.1330955850 0 -1
-0.0204547710 -0.1322726180 0 -1
-0.0197161050 -0.1317741650 0 -1
-0.0191044100 -0.1316112370 0 -1
-0.0185843630 -0.1317603730 0 -1
-0.0181235580 -0.1321700230 0 -1
-0.0177056700 -0.1327719610 0 -1
-0.0173344740 -0.1334936720 0 -1
-0.0170277220 -0.1342683120 0 -1
-0.0168059990 -0.1350402070 0 -1
-0.0166833860 -0.1357655100 0 -1
-0.0166629050 -0.1364100000 0 -1
-0.0167356680 -0.1369467240 0 -1
-0.0168816290 -0.1373546610 0 -1
-0.0170711120 -0.1376185510 0 -1
-0.0172677590 -0.1377301210 0 -1
-0.0174331620 -0.1376904540 0 -1
-0.0175322320 -0.1375121070 0 -1
-0.0175381000 -0.1372193950 0 -1
-0.0174362950 -0.1368462620 0 -1
-0.0172288080 -0.1364322910 0 -1
-0.0169380040 -0.1360179330 0 -1
-0.0166084080 -0.1356402610 0 -1
-0.0163034030 -0.1353308080 0 -1
-0.0160957850 -0.1351162110 0 -1
-0.0160546340 -0.1350199940 0 -1
-0.0162327690 -0.1350623400 0 -1
-0.0166579350 -0.1352564900 0 -1
-0.0173278690 -0.1356035110 0 -1
-0.0182080520 -0.1360878370 0 -1
-0.0192331460 -0.1366747750 0 -1
-0.0203136990 -0.1373109760 0 -1
-0.0213469230 -0.1379291230 0 -1
-0.0222288840 -0.1384566310 0 -1
-0.0228663870 -0.1388254940 0 -1
-0.0231879180 -0.1389801030 0 -1
-0.0231533770 -0.1388827500 0 -1
-0.0227614000 -0.1385186050 0 -1
-0.0220514520 -0.1379006380 0 -1
-0.0210981590 -0.1370720720 0 -1
-0.0199989760 -0.1361032670 0 -1
-0.0188598360 -0.1350824030 0 -1
-0.0177830780 -0.1341020990 0 -1
-0.0168584580 -0.1332452510 0 -1
-0.0161556120 -0.1325734460 0 -1
-0.0157168620 -0.1321204730 0 -1
-0.0155516710 -0.1318915510 0 -1
-0.0156350540 -0.1318666310 0 -1
-0.0159110690 -0.1320053130 0 -1
-0.0163007100 -0.1322524130 0 -1
-0.0167126470 -0.1325445230 0 -1
-0.0170557980 -0.1328170760 0 -1
-0.0172530360 -0.1330107230 0 -1
-0.0172536080 -0.1330763160 0 -1
-0.0170406780 -0.1329783290 0 -1
-0.0166321240 -0.1326969490 0 -1
-0.0160742330 -0.1322291900 0 -1
-0.0154287230 -0.1315890390 0 -1
-0.0147564900 -0.1308067010 0 -1
-0.0141048400 -0.1299272560 0 -1
-0.0135038820 -0.1290085310 0 -1
-0.0129717140 -0.1281172440 0 -1
-0.0125224990 -0.1273230890 0 -1
-0.0121714210 -0.1266915180 0 -1
-0.0119348180 -0.1262762410 0 -1
-0.0118278090 -0.1261125690 0 -1
-0.0118627040 -0.1262130930 0 -1
-0.0120499120 -0.1265664130 0 -1
-0.0123982210 -0.1271372190 0 -1
-0.0129082740 -0.1278657150 0 -1
-0.0135594160 -0.1286680120 0 -1
-0.0142994460 -0.1294425570 0 -1
-0.0150462480 -0.1300856210 0 -1
-0.0157018840 -0.1305130160 0 -1
-0.0161737370 -0.1306806190 0 -1
-0.0163954130 -0.1305954330 0 -1
-0.0163405170 -0.1303127550 0 -1
-0.0160259280 -0.1299216520 0 -1
-0.0155059190 -0.1295253560 0 -1
-0.0148605740 -0.1292226570 0 -1
-0.0141824520 -0.1290936100 0 -1
-0.0135649200 -0.1291901230 0 -1
-0.0130920630 -0.1295308370 0 -1
-0.0128279640 -0.1301003980 0 -1
-0.0128070850 -0.1308536470 0 -1
-0.0130305670 -0.1317239740 0 -1
-0.0134703970 -0.1326334070 0 -1
-0.0140785980 -0.1335025220 0 -1
-0.0147963430 -0.1342594700 0 -1
-0.0155590680 -0.1348471290 0 -1
-0.0162978930 -0.1352268290 0 -1
-0.0169415680 -0.1353777220 0 -1
-0.0174226450 -0.1352927760 0 -1
-0.0176871240 -0.1349745500 0 -1
-0.0177034980 -0.1344340660 0 -1
-0.0174679860 -0.1336935940 0 -1
-0.0170053810 -0.1327911610 0 -1
-0.0163668220 -0.1317830870 0 -1
-0.0156262770 -0.1307415490 0 -1
-0.0148763690 -0.1297466170 0 -1
-0.0142219650 -0.1288748130 0 -1
-0.0137687810 -0.1281876030 0 -1
-0.0136068950 -0.1277232300 0 -1
-0.0137935880 -0.1274939090 0 -1
-0.0143410740 -0.1274880080 0 -1
-0.0152126410 -0.1276749540 0 -1
-0.0163287380 -0.1280102440 0 -1
-0.0175816490 -0.1284392190 0 -1
-0.0188540230 -0.1289007780 0 -1
-0.0200356500 -0.1293328480 0 -1
-0.0210349500 -0.1296788320 0 -1
-0.0217843730 -0.1298921150 0 -1
-0.0222411080 -0.1299373850 0 -1
-0.0223858180 -0.1297904630 0 -1
-0.0222218910 -0.1294388560 0 -1
-0.0217758030 -0.1288835150 0 -1
-0.0210974450 -0.1281409100 0 -1
-0.0202591460 -0.1272445900 0 -1
-0.0193519780 -0.1262455490 0 -1
-0.0184771950 -0.1252104010 0 -1
-0.0177324390 -0.1242165500 0 -1
-0.0171969590 -0.1233446420 0 -1
-0.0169220960 -0.1226694150 0 -1
-0.0169299050 -0.1222504010 0 -1
-0.0172164080 -0.1221238380 0 -1
-0.0177536820 -0.1222967460 0 -1
-0.0184898940 -0.1227438510 0 -1
-0.0193514460 -0.1234082150 0 -1
