-0.0268307820 -0.3713516000 0 -1
-0.0249788730 -0.3703594400 0 -1
-0.0229693120 -0.3694141160 0 -1
-0.0211365860 -0.3685833320 0 -1
-0.0197494270 -0.3679164580 0 -1
-0.0189814560 -0.3674347610 0 -1
-0.0188955720 -0.3671303770 0 -1
-0.0194433300 -0.3669765150 0 -1
-0.0204872920 -0.3669413260 0 -1
-0.0218287810 -0.3669941180 0 -1
-0.0232225380 -0.3670981520 0 -1
-0.0243856520 -0.3671963920 0 -1
-0.0250187730 -0.3672063300 0 -1
-0.0248482900 -0.3670352570 0 -1
-0.0236849470 -0.3666105220 0 -1
-0.0214833050 -0.3659058910 0 -1
-0.0183822030 -0.3649477300 0 -1
-0.0147097470 -0.3638004970 0 -1
-0.0109430900 -0.3625428950 0 -1
-0.0076230280 -0.3612461780 0 -1
-0.0052413690 -0.3599618460 0 -1
-0.0041397170 -0.3587210280 0 -1
-0.0044556900 -0.3575412240 0 -1
-0.0061204000 -0.3564332850 0 -1
-0.0088891700 -0.3554055040 0 -1
-0.0123976930 -0.3544655720 0 -1
-0.0162395400 -0.3536209690 0 -1
-0.0200372280 -0.3528778930 0 -1
-0.0234719360 -0.3522399960 0 -1
-0.0262737630 -0.3517078720 0 -1
-0.0282133630 -0.3512786540 0 -1
-0.0291293970 -0.3509449010 0 -1
-0.0289817730 -0.3506930170 0 -1
-0.0278869570 -0.3505021490 0 -1
-0.0261016070 -0.3503447340 0 -1
-0.0239584740 -0.3501895850 0 -1
-0.0217836710 -0.3500076900 0 -1
-0.0198241920 -0.3497798130 0 -1
-0.0182065780 -0.3495029240 0 -1
-0.0169375840 -0.3491911670 0 -1
-0.0159387060 -0.3488703470 0 -1
-0.0150916970 -0.3485707870 0 -1
-0.0142764490 -0.3483243360 0 -1
-0.0133940810 -0.3481660050 0 -1
-0.0123743660 -0.3481356940 0 -1
-0.0111726260 -0.3482753550 0 -1
-0.0097666420 -0.3486205080 0 -1
-0.0081569460 -0.3491896160 0 -1
-0.0063627180 -0.3499769530 0 -1
-0.0044086750 -0.3509517000 0 -1
-0.0023067060 -0.3520621090 0 -1
-0.0000395900 -0.3532429070 0 -1
0.0024413830 -0.3544246250 0 -1
0.0051966180 -0.3555429340 0 -1
0.0082646950 -0.3565459050 0 -1
0.0116318260 -0.3573981470 0 -1
0.0152137610 -0.3580816630 0 -1
0.0188566470 -0.3585947050 0 -1
0.0223653640 -0.3589500880 0 -1
0.0255533440 -0.3591715650 0 -1
0.0282854260 -0.3592863580 0 -1
0.0304919700 -0.3593167040 1 -1
0.0321648480 -0.3592758700 1 -1
0.0333573660 -0.3591698460 1 -1
0.0341879600 -0.3590006830 1 -1
0.0348287950 -0.3587675550 1 -1
0.0354715540 -0.3584661850 1 -1
0.0362861390 -0.3580897000 1 -1
0.0373924820 -0.3576309060 1 -1
0.0388493780 -0.3570827610 1 -1
0.0406523980 -0.3564363800 1 -1
0.0427377310 -0.3556800090 1 -1
0.0449953110 -0.3548018840 1 -1
0.0472883460 -0.3537960800 1 -1
0.0494689700 -0.3526678750 1 -1
0.0513863830 -0.3514349590 1 -1
0.0528955850 -0.3501237520 1 -1
0.0538738310 -0.3487642190 1 -1
0.0542390860 -0.3473873020 1 -1
0.0539578290 -0.3460256180 1 -1
0.0530402230 -0.3447147740 1 -1
0.0515355020 -0.3434927230 1 -1
0.0495360720 -0.3423965920 1 -1
0.0471808990 -0.3414578500 1 -1
0.0446455810 -0.3406973050 1 -1
0.0421207440 -0.3401219120 1 -1
0.0397883000 -0.3397249790 1 -1
0.0378010710 -0.3394898380 1 -1
0.0362688220 -0.3393954470 1 -1
0.0352535250 -0.3394210490 1 -1
0.0347717340 -0.3395469640 1 -1
0.0347979700 -0.3397507020 1 -1
0.0352672530 -0.3400011180 1 -1
0.0360811400 -0.3402558370 1 -1
0.0371200450 -0.3404650470 1 -1
0.0382568850 -0.3405788960 1 -1
0.0393655750 -0.3405534310 1 -1
0.0403255010 -0.3403545140 1 -1
0.0410278570 -0.3399629530 1 -1
0.0413867130 -0.3393810540 1 -1
0.0413520510 -0.3386361180 1 -1
0.0409183410 -0.3377769330 1 -1
0.0401241450 -0.3368636870 1 -1
0.0390443860 -0.3359555390 1 -1
0.0377804570 -0.3351003990 1 -1
0.0364513680 -0.3343288390 1 -1
0.0351856720 -0.3336511120 1 -1
0.0341131300 -0.3330559770 1 -1
0.0333554900 -0.3325117410 1 -1
0.0330156370 -0.3319709980 1 -1
0.0331654010 -0.3313791340 1 -1
0.0338338080 -0.3306849670 1 -1
0.0349985800 -0.3298520160 1 -1
0.0365839640 -0.3288693420 1 -1
0.0384650950 -0.3277590420 1 -1
0.0404757160 -0.3265763580 1 -1
0.0424190690 -0.3254014670 1 -1
0.0440879620 -0.3243268750 1 -1
0.0452958360 -0.3234454940 1 -1
0.0459078580 -0.3228412100 1 -1
0.0458598200 -0.3225803110 1 -1
0.0451644820 -0.3227021680 1 -1
0.0439088570 -0.3232105780 1 -1
0.0422410060 -0.3240693000 1 -1
0.0403469250 -0.3252044330 1 -1
0.0384236370 -0.3265134860 1 -1
0.0366541570 -0.3278781060 1 -1
0.0351876720 -0.3291762880 1 -1
0.0341268010 -0.3302922700 1 -1
0.0335221010 -0.3311254760 1 -1
0.0333732270 -0.3315997430 1 -1
0.0336355790 -0.3316713380 1 -1
0.0342306400 -0.3313328640 1 -1
0.0350582430 -0.3306119320 1 -1
0.0360088310 -0.3295658250 1 -1
0.0369748420 -0.3282737310 1 -1
0.0378629490 -0.3268276210 1 -1
0.0386069120 -0.3253230270 1 -1
0.0391757550 -0.3238508160 1 -1
0.0395734390 -0.3224903890 1 -1
0.0398311610 -0.3213048160 1 -1
0.0399940590 -0.3203385510 1 -1
0.0401049140 -0.3196169710 1 -1
0.0401928800 -0.3191459210 1 -1
0.0402752170 -0.3189113390 1 -1
0.0403687450 -0.3188807310 1 -1
0.0404995190 -0.3190075170 1 -1
0.0407042280 -0.3192381880 1 -1
0.0410248440 -0.3195213050 1 -1
0.0414997310 -0.3198155450 1 -1
0.0421531090 -0.3200932180 1 -1
0.0429846160 -0.3203378730 1 -1
0.0439628720 -0.3205380820 1 -1
0.0450278410 -0.3206810920 1 -1
0.0461013440 -0.3207491700 1 -1
0.0470984920 -0.3207194550 1 -1
0.0479350650 -0.3205666790 1 -1
0.0485332680 -0.3202671940 1 -1
0.0488296770 -0.3198030880 1 -1
0.0487841250 -0.3191665270 1 -1
0.0483860360 -0.3183646770 1 -1
0.0476573610 -0.3174239790 1 -1
0.0466532090 -0.3163915450 1 -1
0.0454609750 -0.3153319320 1 -1
0.0441974470 -0.3143189770 1 -1
0.0430012120 -0.3134245260 1 -1
0.0420174490 -0.3127071160 1 -1
0.0413764420 -0.3122022860 1 -1
0.0411719480 -0.3119149900 1 -1
0.0414455650 -0.3118164830 1 -1
0.0421801560 -0.3118491960 1 -1
0.0433025130 -0.3119392580 1 -1
0.0446937260 -0.3120108430 1 -1
0.0462061790 -0.3119965760 1 -1
0.0476860730 -0.3118435820 1 -1
0.0489956890 -0.3115176520 1 -1
0.0500260800 -0.3110057370 1 -1
0.0506971050 -0.3103151340 1 -1
0.0509515790 -0.3094703630 1 -1
0.0507523920 -0.3085108100 1 -1
0.0500858260 -0.3074894970 1 -1
0.0489679900 -0.3064697000 1 -1
0.0474483700 -0.3055172480 1 -1
0.0456068260 -0.3046900850 1 -1
0.0435460360 -0.3040281390 1 -1
0.0413847680 -0.3035463370 1 -1
0.0392543300 -0.3032332500 1 -1
0.0372944390 -0.3030557840 1 -1
0.0356428660 -0.3029672990 1 -1
0.0344184230 -0.3029166350 1 -1
0.0337030040 -0.3028574530 1 -1
0.0335287670 -0.3027560210 1 -1
0.0338735100 -0.3025933920 1 -1
0.0346655680 -0.3023610980 1 -1
0.0357976310 -0.3020551230 1 -1
0.0371452950 -0.3016734960 1 -1
0.0385843780 -0.3012181290 1 -1
0.0400026680 -0.3006975910 1 -1
0.0413043660 -0.3001277330 1 -1
0.0424080450 -0.2995297860 1 -1
0.0432423160 -0.2989274120 1 -1
0.0437450570 -0.2983441770 1 -1
0.0438696420 -0.2978019080 1 -1
0.0435973190 -0.2973192680 1 -1
0.0429511120 -0.2969098070 1 -1
0.0420038650 -0.2965796730 1 -1
0.0408742350 -0.2963258540 1 -1
0.0397105660 -0.2961361430 1 -1
0.0386686340 -0.2959913740 1 -1
0.0378902950 -0.2958690610 1 -1
0.0374874400 -0.2957471250 1 -1
0.0375323540 -0.2956071370 1 -1
0.0380533450 -0.2954365170 1 -1
0.0390341780 -0.2952290440 1 -1
0.0404170890 -0.2949837570 1 -1
0.0421089310 -0.2947032140 1 -1
0.0439890880 -0.2943919360 1 -1
0.0459181370 -0.2940554250 1 -1
0.0477478470 -0.2936999660 1 -1
0.0493338290 -0.2933328600 1 -1
0.0505503320 -0.2929621220 1 -1
0.0513043360 -0.2925949640 1 -1
0.0515469240 -0.2922356470 1 -1
0.0512809130 -0.2918842090 1 -1
0.0505621810 -0.2915368550 1 -1
0.0494930060 -0.2911873870 1 -1
0.0482097630 -0.2908286450 1 -1
0.0468680740 -0.2904532650 1 -1
0.0456255150 -0.2900537560 1 -1
0.0446219300 -0.2896223170 1 -1
0.0439605850 -0.2891506220 1 -1
0.0436951700 -0.2886292460 1 -1
0.0438261250 -0.2880471340 1 -1
0.0443065340 -0.2873930010 1 -1
0.0450544560 -0.2866596510 1 -1
0.0459665330 -0.2858488630 1 -1
0.0469294790 -0.2849736640 1 -1
0.0478302600 -0.2840574770 1 -1
0.0485671090 -0.2831316180 1 -1
0.0490612480 -0.2822322470 1 -1
0.0492660510 -0.2813966330 1 -1
0.0491691620 -0.2806581560 1 -1
0.0487868710 -0.2800405790 1 -1
0.0481564320 -0.2795536070 1 -1
0.0473317470 -0.2791916670 1 -1
0.0463813910 -0.2789363460 1 -1
0.0453860560 -0.2787616760 1 -1
0.0444350600 -0.2786406280 1 -1
0.0436205720 -0.2785503060 1 -1
0.0430264300 -0.2784737550 1 -1
0.0427131520 -0.2783986040 1 -1
0.0427061150 -0.2783145490 1 -1
0.0429918920 -0.2782117640 1 -1
0.0435223560 -0.2780807530 1 -1
0.0442237860 -0.2779126710 1 -1
0.0450082000 -0.2776994750 1 -1
0.0457846210 -0.2774345750 1 -1
0.0464684680 -0.2771143630 1 -1
0.0469871700 -0.2767397500 1 -1
0.0472817690 -0.2763165990 1 -1
0.0473080190 -0.2758546940 1 -1
0.0470412160 -0.2753655480 1 -1
0.0464848480 -0.2748594980 1 -1
0.0456785910 -0.2743427980 1 -1
0.0446999630 -0.2738162380 1 -1
0.0436571800 -0.2732773470 1 -1
0.0426749400 -0.2727259190 1 -1
0.0418761110 -0.2721692470 1 -1
0.0413629070 -0.2716233420 1 -1
0.0412029400 -0.2711091290 1 -1
0.0414246530 -0.2706452310 1 -1
0.0420218160 -0.2702402580 1 -1
0.0429617570 -0.2698876420 1 -1
0.0441913060 -0.2695651270 1 -1
0.0456380950 -0.2692393190 1 -1
0.0472088790 -0.2688736180 1 -1
0.0487889970 -0.2684366800 1 -1
0.0502481500 -0.2679091440 1 -1
0.0514543900 -0.2672872070 1 -1
0.0522926070 -0.2665825210 1 -1
0.0526828780 -0.2658191260 1 -1
0.0525952380 -0.2650294620 1 -1
0.0520559550 -0.2642514720 1 -1
0.0511415010 -0.2635266040 1 -1
0.0499634440 -0.2628959300 1 -1
0.0486520950 -0.2623923830 1 -1
0.0473435110 -0.2620315790 1 -1
0.0461692780 -0.2618066720 1 -1
0.0452469740 -0.2616904380 1 -1
0.0446703900 -0.2616429250 1 -1
0.0445003220 -0.2616208890 1 -1
0.0447577200 -0.2615864690 1 -1
0.0454203320 -0.2615139570 1 -1
0.0464222150 -0.2613935570 1 -1
0.0476557190 -0.2612309900 1 -1
0.0489795960 -0.2610425830 1 -1
0.0502379480 -0.2608472930 1 -1
0.0512872120 -0.2606593970 1 -1
0.0520204200 -0.2604857940 1 -1
0.0523794510 -0.2603282180 1 -1
0.0523539430 -0.2601863670 1 -1
0.0519721070 -0.2600583460 1 -1
0.0512896610 -0.2599389330 1 -1
0.0503802110 -0.2598181380 1 -1
0.0493281420 -0.2596805690 1 -1
0.0482246410 -0.2595049760 1 -1
0.0471663630 -0.2592647760 1 -1
0.0462539950 -0.2589311580 1 -1
0.0455869760 -0.2584785920 1 -1
0.0452530180 -0.2578907000 1 -1
0.0453146980 -0.2571641840 1 -1
0.0457967370 -0.2563096160 1 -1
0.0466774490 -0.2553493300 1 -1
0.0478882250 -0.2543137180 1 -1
0.0493238890 -0.2532370260 1 -1
0.0508624270 -0.2521532250 1 -1
0.0523866420 -0.2510925220 1 -1
0.0537974750 -0.2500792460 1 -1
0.0550138620 -0.2491312700 1 -1
0.0559657190 -0.2482602550 1 -1
0.0565932320 -0.2474718470 1 -1
0.0568578520 -0.2467653820 1 -1
0.0567562270 -0.2461331290 1 -1
0.0563246030 -0.2455598050 1 -1
0.0556306310 -0.2450232140 1 -1
0.0547597350 -0.2444954250 1 -1
0.0538047070 -0.2439437710 1 -1
0.0528609360 -0.2433334870 1 -1
0.0520226130 -0.2426338590 1 -1
0.0513751210 -0.2418259540 1 -1
0.0509849580 -0.2409077420 1 -1
0.0508917140 -0.2398947460 1 -1
0.0511037400 -0.2388177620 1 -1
0.0515965670 -0.2377198360 1 -1
0.0523140840 -0.2366523890 1 -1
0.0531735940 -0.2356687200 1 -1
0.0540748870 -0.2348149100 1 -1
0.0549124660 -0.2341211510 1 -1
0.0555901000 -0.2335971190 1 -1
0.0560350420 -0.2332327140 1 -1
0.0562065750 -0.2330023500 1 -1
0.0560961010 -0.2328695240 1 -1
0.0557228540 -0.2327900980 1 -1
0.0551305770 -0.2327150980 1 -1
0.0543840820 -0.2325940840 1 -1
0.0535619540 -0.2323794510 1 -1
0.0527473760 -0.2320317540 1 -1
0.0520227110 -0.2315250280 1 -1
0.0514679170 -0.2308496170 1 -1
0.0511571510 -0.2300104770 1 -1
0.0511510720 -0.2290219460 1 -1
0.0514873200 -0.2279020510 1 -1
0.0521707800 -0.2266683820 1 -1
0.0531648970 -0.2253358000 1 -1
0.0543889410 -0.2239162680 1 -1
0.0557263610 -0.2224209830 1 -1
0.0570434040 -0.2208639490 1 -1
0.0582110040 -0.2192660060 1 -1
0.0591225090 -0.2176583360 1 -1
0.0597041020 -0.2160837930 1 -1
0.0599189650 -0.2145942720 1 -1
0.0597676410 -0.2132436340 1 -1
0.0592861450 -0.2120776890 1 -1
0.0585414770 -0.2111242550 1 -1
0.0576246680 -0.2103865990 1 -1
0.0566429420 -0.2098418140 1 -1
0.0557110210 -0.2094436080 1 -1
0.0549397160 -0.2091284580 1 -1
0.0544217290 -0.2088245160 1 -1
0.0542181750 -0.2084620410 1 -1
0.0543516130 -0.2079823440 1 -1
0.0548086980 -0.2073419180 1 -1
0.0555478870 -0.2065110010 1 -1
0.0565042320 -0.2054684980 1 -1
0.0575898540 -0.2041961280 1 -1
0.0586964170 -0.2026751960 1 -1
0.0597044400 -0.2008885600 1 -1
0.0604975390 -0.1988274400 1 -1
0.0609768990 -0.1964997430 1 -1
0.0610730600 -0.1939349300 1 -1
0.0607539420 -0.1911813140 1 -1
0.0600284990 -0.1882960400 1 -1
0.0589457080 -0.1853325620 1 -1
0.0575901980 -0.1823316210 1 -1
0.0560757600 -0.1793190050 1 -1
0.0545358830 -0.1763090880 1 -1
0.0531111490 -0.1733108050 1 -1
0.0519348850 -0.1703328240 1 -1
0.0511179100 -0.1673860460 1 -1
0.0507347340 -0.1644832140 1 -1
0.0508165440 -0.1616363250 1 -1
0.0513539430 -0.1588528020 1 -1
0.0523059780 -0.1561319540 1 -1
0.0536091570 -0.1534634630 1 -1
0.0551822710 -0.1508284140 1 -1
0.0569270100 -0.1482021330 1 -1
0.0587275210 -0.1455577190 1 -1
0.0604524470 -0.1428692240 1 -1
0.0619617250 -0.1401136210 1 -1
0.0631192210 -0.1372714830 1 -1
0.0638097860 -0.1343276430 1 -1
0.0639564230 -0.1312728710 1 -1
0.0635333800 -0.1281060190 1 -1
0.0625729700 -0.1248353060 1 -1
0.0611647330 -0.1214777160 1 -1
0.0594460540 -0.1180563770 1 -1
0.0575848500 -0.1145973840 1 -1
0.0557574520 -0.1111279470 1 -1
0.0541261610 -0.1076763350 1 -1
0.0528205790 -0.1042726540 1 -1
0.0519262640 -0.1009492730 1 -1
0.0514824040 -0.0977401970 1 -1
0.0514860350 -0.0946792160 1 -1
0.0518979370 -0.0917968010 1 -1
0.0526474110 -0.0891160990 1 -1
0.0536360950 -0.0866499430 1 -1
0.0547427780 -0.0844012520 1 -1
0.0558325090 -0.0823670370 1 -1
0.0567722070 -0.0805436400 1 -1
0.0574496830 -0.0789302320 1 -1
0.0577885750 -0.0775292850 1 -1
0.0577538390 -0.0763451610 1 -1
0.0573489150 -0.0753818570 1 -1
0.0566099950 -0.0746394920 1 -1
0.0556028030 -0.0741102950 1 -1
0.0544223800 -0.0737774280 1 -1
0.0531908320 -0.0736185810 1 -1
0.0520489520 -0.0736116630 1 -1
0.0511428580 -0.0737380890 1 -1
0.0506078570 -0.0739818080 1 -1
0.0505501760 -0.0743254920 1 -1
0.0510281400 -0.0747467410 1 -1
0.0520369000 -0.0752171350 1 -1
0.0535018050 -0.0757051020 1 -1
0.0552833920 -0.0761811520 1 -1
0.0571944360 -0.0766236690 1 -1
0.0590275260 -0.0770242850 1 -1
0.0605874200 -0.0773914090 1 -1
0.0617189650 -0.0777495880 1 -1
0.0623237040 -0.0781335870 1 -1
0.0623640650 -0.0785791990 1 -1
0.0618584020 -0.0791154650 1 -1
0.0608718780 -0.0797619620 1 -1
0.0595062650 -0.0805304300 1 -1
0.0578876570 -0.0814259900 1 -1
0.0561507910 -0.0824436080 1 -1
0.0544240580 -0.0835604750 1 -1
0.0528217350 -0.0847303550 1 -1
0.0514440900 -0.0858860400 1 -1
0.0503794470 -0.0869506750 1 -1
0.0497012680 -0.0878533840 1 -1
0.0494571670 -0.0885431340 1 -1
0.0496536250 -0.0889962740 1 -1
0.0502461370 -0.0892157880 1 -1
0.0511429960 -0.0892241100 1 -1
0.0522219190 -0.0890547460 1 -1
0.0533500350 -0.0887471770 1 -1
0.0543978270 -0.0883453480 1 -1
0.0552472600 -0.0878972020 1 -1
0.0558014720 -0.0874534240 1 -1
0.0559973340 -0.0870652960 1 -1
0.0558136020 -0.0867820640 1 -1
0.0552699890 -0.0866476330 1 -1
0.0544194900 -0.0866960550 1 -1
0.0533384170 -0.0869460690 1 -1
0.0521184740 -0.0873966660 1 -1
0.0508637030 -0.0880266880 1 -1
0.0496904670 -0.0887998250 1 -1
0.0487241740 -0.0896729660 1 -1
0.0480865350 -0.0906040530 1 -1
0.0478731270 -0.0915571750 1 -1
0.0481298840 -0.0925047120 1 -1
0.0488405820 -0.0934269370 1 -1
0.0499315870 -0.0943095510 1 -1
0.0512897720 -0.0951402240 1 -1
0.0527826850 -0.0959064630 1 -1
0.0542725510 -0.0965966480 1 -1
0.0556246940 -0.0972033380 1 -1
0.0567157660 -0.0977260490 1 -1
0.0574432740 -0.0981721690 1 -1
0.0577327770 -0.0985570680 1 -1
0.0575409730 -0.0989046320 1 -1
0.0568587180 -0.0992470850 1 -1
0.0557172690 -0.0996213930 1 -1
0.0541933030 -0.1000620900 1 -1
0.0524048430 -0.1005937980 1 -1
0.0504963550 -0.1012262430 1 -1
0.0486194250 -0.1019522380 1 -1
0.0469162630 -0.1027482340 1 -1
0.0455073400 -0.1035773960 1 -1
0.0444811770 -0.1043949050 1 -1
0.0438872050 -0.1051547060 1 -1
0.0437343970 -0.1058165970 1 -1
0.0439949580 -0.1063521350 1 -1
0.0446097720 -0.1067479570 1 -1
0.0454945900 -0.1070063230 1 -1
0.0465484550 -0.1071438890 1 -1
0.0476639640 -0.1071896660 1 -1
0.0487367880 -0.1071824690 1 -1
0.0496733750 -0.1071677060 1 -1
0.0503974350 -0.1071924590 1 -1
0.0508551310 -0.1072979150 1 -1
0.0510192540 -0.1075103230 1 -1
0.0508934380 -0.1078338590 1 -1
0.0505152550 -0.1082488240 1 -1
0.0499540320 -0.1087160060 1 -1
0.0493008900 -0.1091849580 1 -1
0.0486543300 -0.1096030790 1 -1
0.0481076610 -0.1099235960 1 -1
0.0477416760 -0.1101117670 1 -1
0.0476209570 -0.1101486280 1 -1
0.0477898180 -0.1100309150 1 -1
0.0482651810 -0.1097666310 1 -1
0.0490272810 -0.1093681710 1 -1
0.0500120860 -0.1088459050 1 -1
0.0511099290 -0.1082036860 1 -1
0.0521748490 -0.1074369100 1 -1
0.0530480020 -0.1065346070 1 -1
0.0535912270 -0.1054867510 1 -1
0.0537169200 -0.1042948520 1 -1
0.0534005270 -0.1029809470 1 -1
0.0526740060 -0.1015910090 1 -1
0.0516093910 -0.1001911320 1 -1
0.0503017510 -0.0988560840 1 -1
0.0488548070 -0.0976522160 1 -1
0.0473689430 -0.0966209690 1 -1
0.0459318860 -0.0957703680 1 -1
0.0446139580 -0.0950773240 1 -1
0.0434695690 -0.0944971340 1 -1
0.0425439000 -0.0939734970 1 -1
0.0418805000 -0.0934454120 1 -1
0.0415238810 -0.0928523140 1 -1
0.0415133830 -0.0921393490 1 -1
0.0418703320 -0.0912617810 1 -1
0.0425851540 -0.0901875720 1 -1
0.0436109000 -0.0888993680 1 -1
0.0448650910 -0.0873964900 1 -1
0.0462369650 -0.0856952810 1 -1
0.0475967330 -0.0838261720 1 -1
0.0488076970 -0.0818275990 1 -1
0.0497437640 -0.0797382640 1 -1
0.0503103160 -0.0775905620 1 -1
0.0504620620 -0.0754081040 1 -1
0.0502126230 -0.0732074940 1 -1
0.0496338190 -0.0710014890 1 -1
0.0488452600 -0.0688010280 1 -1
0.0479972810 -0.0666155060 1 -1
0.0472507500 -0.0644508120 1 -1
0.0467556120 -0.0623044710 1 -1
0.0466298100 -0.0601594670 1 -1
0.0469421580 -0.0579799090 1 -1
0.0477036940 -0.0557099040 1 -1
0.0488702950 -0.0532760080 1 -1
0.0503551040 -0.0505947940 1 -1
0.0520444820 -0.0475862200 1 -1
0.0538109140 -0.0441901890 1 -1
0.0555217340 -0.0403812560 1 -1
0.0570465980 -0.0361763070 1 -1
0.0582650380 -0.0316322530 1 -1
0.0590742980 -0.0268339510 1 0
0.0593987570 -0.0218754340 1 0
0.0591999760 -0.0168407580 1 0
0.0584832820 -0.0117916280 1 0
0.0572992800 -0.0067644710 1 0
0.0557413800 -0.0017739210 1 0
0.0539389260 0.0031819220 1 0
0.0520448700 0.0081169440 1 0
0.0502199140 0.0130530110 1 0
0.0486166400 0.0180153000 1 0
0.0473649580 0.0230275540 1 0
0.0465578110 0.0281097990 1 0
0.0462376840 0.0332794080 1 1
0.0463883440 0.0385530970 1 1
0.0469363220 0.0439465540 1 1
0.0477618360 0.0494708150 1 1
0.0487158520 0.0551278460 1 1
0.0496409180 0.0609081870 1 1
0.0503921810 0.0667907470 1 1
0.0508519770 0.0727436340 1 1
0.0509337770 0.0787268490 1 1
0.0505793880 0.0846978990 1 1
0.0497583600 0.0906184620 1 1
0.0484737620 0.0964582010 1 1
0.0467696990 0.1021936370 1 1
0.0447335490 0.1078039900 1 1
0.0424899140 0.1132682680 1 1
0.0401870750 0.1185667730 1 1
0.0379788880 0.1236867550 1 1
0.0360071140 0.1286285790 1 1
0.0343893360 0.1334077370 1 1
0.0332130740 0.1380494930 1 1
0.0325314570 0.1425766210 1 1
0.0323569230 0.1469948440 1 1
0.0326554040 0.1512821900 1 1
0.0333469990 0.1553864230 1 1
0.0343166340 0.1592311210 1 1
0.0354318640 0.1627279320 1 1
0.0365609320 0.1657907200 1 1
0.0375855380 0.1683473810 1 1
0.0384072550 0.1703474130 1 1
0.0389515760 0.1717655720 1 1
0.0391740170 0.1726021680 1 1
0.0390668260 0.1728801640 1 1
0.0386612660 0.1726396620 1 1
0.0380239270 0.1719312380 1 1
0.0372486780 0.1708102440 1 1
0.0364439550 0.1693340390 1 1
0.0357150750 0.1675622770 1 1
0.0351470050 0.1655580040 1 1
0.0347947280 0.1633865870 1 1
0.0346818580 0.1611113360 1 1
0.0348037070 0.1587868710 1 1
0.0351322970 0.1564522010 1 1
0.0356218280 0.1541253220 1 1
0.0362138840 0.1518006500 1 1
0.0368435150 0.1494499550 1 1
0.0374460540 0.1470265900 1 1
0.0379610210 0.1444720420 1 1
0.0383311850 0.1417239190 1 1
0.0385014740 0.1387251410 1 1
0.0384246750 0.1354340440 1 1
0.0380750290 0.1318333280 1 1
0.0374632830 0.1279338590 1 1
0.0366441510 0.1237704390 1 1
0.0357111210 0.1193916460 1 1
0.0347803600 0.1148498380 1 1
0.0339698390 0.1101960480 1 1
0.0333798190 0.1054799620 1 1
0.0330790470 0.1007517580 1 1
0.0331002780 0.0960620160 1 1
0.0334465500 0.0914582960 1 1
0.0341033090 0.0869799410 1 1
0.0350472820 0.0826531730 1 1
0.0362465620 0.0784871580 1 1
0.0376534360 0.0744711900 1 1
0.0391966720 0.0705744090 1 1
0.0407804300 0.0667494670 1 1
0.0422916970 0.0629395100 1 1
0.0436125530 0.0590866700 1 1
0.0446328470 0.0551405610 1 1
0.0452611400 0.0510653510 1 1
0.0454348350 0.0468436170 1 1
0.0451311850 0.0424759940 1 1
0.0443761390 0.0379775650 1 1
0.0432451370 0.0333734980 1 1
0.0418554140 0.0286960100 1 0
0.0403546880 0.0239824370 1 0
0.0389084230 0.0192729270 1 0
0.0376823230 0.0146075900 1 0
0.0368176970 0.0100242570 1 0
0.0364060530 0.0055577800 1 0
0.0364739330 0.0012408080 1 0
0.0369825160 -0.0028952850 1 0
0.0378396170 -0.0068216630 1 0
0.0389209270 -0.0105168680 1 0
0.0400942830 -0.0139735310 1 0
0.0412370100 -0.0172027630 1 0
0.0422417430 -0.0202330450 1 0
0.0430163400 -0.0231046210 1 0
0.0434867440 -0.0258630760 1 0
0.0436056850 -0.0285543590 1 0
0.0433620400 -0.0312212300 1 -1
0.0427833580 -0.0339007770 1 -1
0.0419294100 -0.0366226200 1 -1
0.0408816760 -0.0394068050 1 -1
0.0397348130 -0.0422610640 1 -1
0.0385909690 -0.0451787600 1 -1
0.0375531200 -0.0481395780 1 -1
0.0367140540 -0.0511142160 1 -1
0.0361432610 -0.0540715680 1 -1
0.0358801660 -0.0569841960 1 -1
0.0359391680 -0.0598294450 1 -1
0.0363199740 -0.0625885000 1 -1
0.0370114850 -0.0652473360 1 -1
0.0379857460 -0.0677995220 1 -1
0.0391880850 -0.0702472280 1 -1
0.0405312980 -0.0725987690 1 -1
0.0418974680 -0.0748649050 1 -1
0.0431463430 -0.0770566410 1 -1
0.0441288920 -0.0791848170 1 -1
0.0447066550 -0.0812594010 1 -1
0.0447749700 -0.0832869830 1 -1
0.0442830700 -0.0852682270 1 -1
0.0432439890 -0.0871979380 1 -1
0.0417315630 -0.0890671670 1 -1
0.0398651740 -0.0908642400 1 -1
0.0377869690 -0.0925737290 1 -1
0.0356410100 -0.0941753660 1 -1
0.0335603550 -0.0956448550 1 -1
0.0316581490 -0.0969569630 1 -1
0.0300177010 -0.0980904040 1 -1
0.0286856390 -0.0990334110 0 -1
0.0276742350 -0.0997877320 0 -1
0.0269687980 -0.1003685270 0 -1
0.0265326270 -0.1008000820 0 -1
0.0263124130 -0.1011110310 0 -1
0.0262514050 -0.1013340350 0 -1
0.0263063680 -0.1015114160 0 -1
0.0264559170 -0.1017025610 0 -1
0.0266953820 -0.1019859640 0 -1
0.0270251840 -0.1024512830 0 -1
0.0274408090 -0.1031837080 0 -1
0.0279258470 -0.1042479880 0 -1
0.0284490460 -0.1056775420 0 -1
0.0289717490 -0.1074691320 0 -1
0.0294677560 -0.1095824230 0 -1
0.0299424140 -0.1119454310 0 -1
0.0304342640 -0.1144655390 1 -1
0.0309984110 -0.1170423330 1 -1
0.0316855630 -0.1195783640 1 -1
0.0325287330 -0.1219868110 1 -1
0.0335376390 -0.1241968640 1 -1
0.0346947030 -0.1261572860 1 -1
0.0359509790 -0.1278379760 1 -1
0.0372249750 -0.1292294850 1 -1
0.0384056250 -0.1303402040 1 -1
0.0393606710 -0.1311907590 1 -1
0.0399553090 -0.1318073050 1 -1
0.0400814580 -0.1322179890 1 -1
0.0396854620 -0.1324553010 1 -1
0.0387777970 -0.1325618640 1 -1
0.0374201860 -0.1325933840 1 -1
0.0357022190 -0.1326129950 1 -1
0.0337238260 -0.1326773810 1 -1
0.0315881250 -0.1328222220 1 -1
0.0293972830 -0.1330545680 0 -1
0.0272464560 -0.1333532570 0 -1
0.0252192270 -0.1336744650 0 -1
0.0233882740 -0.1339601640 0 -1
0.0218187640 -0.1341482510 0 -1
0.0205678440 -0.1341827430 0 -1
0.0196762440 -0.1340226140 0 -1
0.0191579580 -0.1336485640 0 -1
0.0189992700 -0.1330672830 0 -1
0.0191686400 -0.1323126680 0 -1
0.0196261040 -0.1314442820 0 -1
0.0203216760 -0.1305439970 0 -1
0.0211852990 -0.1297099590 0 -1
0.0221222160 -0.1290459920 0 -1
0.0230250140 -0.1286477830 0 -1
0.0237991150 -0.1285903610 0 -1
0.0243870630 -0.1289196490 0 -1
0.0247783390 -0.1296482010 0 -1
0.0250018070 -0.1307551390 0 -1
0.0251088600 -0.1321902060 0 -1
0.0251598420 -0.1338806840 0 -1
0.0252191760 -0.1357396810 0 -1
0.0253520200 -0.1376752470 0 -1
0.0256139690 -0.1395995510 0 -1
0.0260384980 -0.1414362630 0 -1
0.0266343230 -0.1431246930 0 -1
0.0273940170 -0.1446214940 0 -1
0.0283033980 -0.1459021900 0 -1
0.0293437080 -0.1469633340 0 -1
0.0304871940 -0.1478234980 1 -1
0.0316909990 -0.1485210080 1 -1
0.0328936850 -0.1491080360 1 -1
0.0340158110 -0.1496416830 1 -1
0.0349651480 -0.1501734680 1 -1
0.0356481560 -0.1507396830 1 -1
0.0359860270 -0.1513553220 1 -1
0.0359284390 -0.1520136080 1 -1
0.0354600900 -0.1526910620 1 -1
0.0346011820 -0.1533549260 1 -1
0.0334053880 -0.1539696710 1 -1
0.0319566890 -0.1545030740 1 -1
0.0303634540 -0.1549326000 1 -1
0.0287474550 -0.1552487250 0 -1
0.0272288470 -0.1554521690 0 -1
0.0259130560 -0.1555474630 0 -1
0.0248867400 -0.1555383730 0 -1
0.0242221020 -0.1554286150 0 -1
0.0239773960 -0.1552260340 0 -1
0.0241824820 -0.1549447160 0 -1
0.0248139780 -0.1546014080 0 -1
0.0257767560 -0.1542085850 0 -1
0.0269063540 -0.1537703210 0 -1
0.0279957660 -0.1532846650 0 -1
0.0288384020 -0.1527504910 0 -1
0.0292732990 -0.1521744360 0 -1
0.0292194790 -0.1515757820 0 -1
0.0286897850 -0.1509885430 0 -1
0.0277808420 -0.1504593310 0 -1
0.0266445560 -0.1500403370 0 -1
0.0254520600 -0.1497797640 0 -1
0.0243616590 -0.1497144110 0 -1
0.0234998030 -0.1498678010 0 -1
0.0229576090 -0.1502517660 0 -1
0.0227969030 -0.1508656010 0 -1
0.0230564310 -0.1516907760 0 -1
0.0237529530 -0.1526861600 0 -1
0.0248772870 -0.1537887320 0 -1
0.0263863560 -0.1549195140 0 -1
0.0281931580 -0.1559928340 0 -1
0.0301621390 -0.1569285260 1 -1
0.0321190920 -0.1576645570 1 -1
0.0338752350 -0.1581645200 1 -1
0.0352555550 -0.1584166990 1 -1
0.0361237270 -0.1584270940 1 -1
0.0364023140 -0.1582117660 1 -1
0.0360848710 -0.1577930760 1 -1
0.0352322960 -0.1572017750 1 -1
0.0339542920 -0.1564831630 1 -1
0.0323886340 -0.1557021460 1 -1
0.0306871170 -0.1549418180 1 -1
0.0290071910 -0.1542933550 0 -1
0.0275071900 -0.1538391370 0 -1
0.0263410510 -0.1536349650 0 -1
0.0256434030 -0.1536995890 0 -1
0.0255029730 -0.1540168090 0 -1
0.0259368240 -0.1545467340 0 -1
0.0268809080 -0.1552372160 0 -1
0.0282018140 -0.1560309600 0 -1
0.0297237810 -0.1568709200 0 -1
0.0312604090 -0.1577067150 1 -1
0.0326405410 -0.1585004400 1 -1
0.0337222960 -0.1592287190 1 -1
0.0343975200 -0.1598803510 1 -1
0.0345937510 -0.1604516600 1 -1
0.0342774250 -0.1609423700 1 -1
0.0334565240 -0.1613542410 1 -1
0.0321808750 -0.1616930960 1 -1
0.0305404880 -0.1619718550 1 -1
0.0286609900 -0.1622109090 0 -1
0.0266940880 -0.1624347540 0 -1
0.0248054000 -0.1626666590 0 -1
0.0231652150 -0.1629231240 0 -1
0.0219411720 -0.1632093770 0 -1
0.0212830640 -0.1635179580 0 -1
0.0212953850 -0.1638318510 0 -1
0.0220090530 -0.1641303940 0 -1
0.0233670460 -0.1643936240 0 -1
0.0252280570 -0.1646019320 0 -1
0.0273871590 -0.1647331300 0 -1
0.0296105760 -0.1647627190 0 -1
0.0316733590 -0.1646701280 1 -1
0.0333874480 -0.1644482460 1 -1
0.0346184070 -0.1641121150 1 -1
0.0352947820 -0.1637032700 1 -1
0.0354091910 -0.1632865270 1 -1
0.0350072160 -0.1629383070 1 -1
0.0341661000 -0.1627291960 1 -1
0.0329753650 -0.1627059920 1 -1
0.0315318170 -0.1628797700 1 -1
0.0299462200 -0.1632253790 0 -1
0.0283444940 -0.1636923540 0 -1
0.0268506760 -0.1642207560 0 -1
0.0255584790 -0.1647539350 0 -1
0.0245140290 -0.1652445890 0 -1
0.0237242600 -0.1656564330 0 -1
0.0231791750 -0.1659653210 0 -1
0.0228658010 -0.1661606710 0 -1
0.0227684230 -0.1662455790 0 -1
0.0228637860 -0.1662344790 0 -1
0.0231165790 -0.1661486870 0 -1
0.0234773030 -0.1660114230 0 -1
0.0238862360 -0.1658445450 0 -1
0.0242808850 -0.1656682340 0 -1
0.0245973500 -0.1655029830 0 -1
0.0247634620 -0.1653716980 0 -1
0.0246973910 -0.1652995260 0 -1
0.0243280270 -0.1653106560 0 -1
0.0236311790 -0.1654239130 0 -1
0.0226519130 -0.1656488310 0 -1
0.0214935690 -0.1659813830 0 -1
0.0202868310 -0.1663987660 0 -1
0.0191649310 -0.1668566220 0 -1
0.0182536140 -0.1672935230 0 -1
0.0176647520 -0.1676434220 0 -1
0.0174832000 -0.1678516480 0 -1
0.0177502480 -0.1678881610 0 -1
0.0184543050 -0.1677538910 0 -1
0.0195347510 -0.1674794020 0 -1
0.0208968080 -0.1671168380 0 -1
0.0224300620 -0.1667268720 0 -1
0.0240211610 -0.1663644710 0 -1
0.0255560720 -0.1660688980 0 -1
0.0269189620 -0.1658611390 0 -1
0.0280004070 -0.1657468360 0 -1
0.0287179950 -0.1657198580 0 -1
0.0290383040 -0.1657642550 0 -1
0.0289848630 -0.1658562800 0 -1
0.0286235760 -0.1659681060 0 -1
0.0280318460 -0.1660726020 0 -1
0.0272721040 -0.1661477520 0 -1
0.0263872560 -0.1661800260 0 -1
0.0254153730 -0.1661662520 0 -1
0.0244095180 -0.1661130220 0 -1
0.0234516660 -0.1660332660 0 -1
0.0226508260 -0.1659417510 0 -1
0.0221166170 -0.1658524420 0 -1
0.0219144050 -0.1657786430 0 -1
0.0220273340 -0.1657332970 0 -1
0.0223509180 -0.1657260990 0 -1
0.0227249180 -0.1657577200 0 -1
0.0229849460 -0.1658157150 0 -1
0.0230078820 -0.1658775250 0 -1
0.0227332690 -0.1659216230 0 -1
0.0221587540 -0.1659404180 0 -1
0.0213207740 -0.1659458860 0 -1
0.0202770800 -0.1659652720 0 -1
0.0191011950 -0.1660317410 0 -1
0.0178830000 -0.1661755140 0 -1
0.0167219500 -0.1664171690 0 -1
0.0157113650 -0.1667623590 0 -1
0.0149262400 -0.1671979790 0 -1
0.0144213080 -0.1676928640 0 -1
0.0142327500 -0.1682060670 0 -1
0.0143791650 -0.1686992870 0 -1
0.0148649790 -0.1691450770 0 -1
0.0156845770 -0.1695272900 0 -1
0.0168204510 -0.1698379320 0 -1
0.0182359270 -0.1700750610 0 -1
0.0198690840 -0.1702422040 0 -1
0.0216307810 -0.1703476950 0 -1
0.0234073300 -0.1704029480 0 -1
0.0250703300 -0.1704198100 0 -1
0.0264923000 -0.1704073320 0 -1
0.0275599050 -0.1703680770 0 -1
0.0281818100 -0.1702955090 0 -1
0.0282979370 -0.1701754310 0 -1
0.0278923410 -0.1699922870 0 -1
0.0270021460 -0.1697372490 0 -1
0.0257164970 -0.1694138870 0 -1
0.0241650510 -0.1690386640 0 -1
0.0224984270 -0.1686359760 0 -1
0.0208678800 -0.1682306190 0 -1
0.0194122390 -0.1678424220 0 -1
0.0182491210 -0.1674860620 0 -1
0.0174613570 -0.1671749460 0 -1
0.0170831220 -0.1669251940 0 -1
0.0171020420 -0.1667568020 0 -1
0.0174779170 -0.1666923790 0 -1
0.0181557220 -0.1667547750 0 -1
0.0190583190 -0.1669625430 0 -1
0.0200745610 -0.1673215010 0 -1
0.0210664700 -0.1678147250 0 -1
0.0218952830 -0.1683972330 0 -1
0.0224474310 -0.1690002760 0 -1
0.0226483730 -0.1695452330 0 -1
0.0224649810 -0.1699626440 0 -1
0.0219009020 -0.1702094730 0 -1
0.0209901070 -0.1702784730 0 -1
0.0197947600 -0.1701969730 0 -1
0.0184094070 -0.1700161690 0 -1
0.0169654030 -0.1697955290 0 -1
0.0156267790 -0.1695887210 0 -1
0.0145736400 -0.1694356700 0 -1
0.0139741290 -0.1693608750 0 -1
0.0139510150 -0.1693741100 0 -1
0.0145556520 -0.1694698840 0 -1
0.0157615000 -0.1696262410 0 -1
0.0174780870 -0.1698063590 0 -1
0.0195749980 -0.1699647450 0 -1
0.0219031250 -0.1700572200 0 -1
0.0243063750 -0.1700523620 0 -1
0.0266249520 -0.1699400190 0 -1
0.0286957210 -0.1697324720 0 -1
0.0303568820 -0.1694584260 1 -1
0.0314628870 -0.1691542420 1 -1
0.0319076700 -0.1688561860 1 -1
0.0316471060 -0.1685947630 1 -1
0.0307127330 -0.1683906740 1 -1
0.0292123140 -0.1682520430 0 -1
0.0273139890 -0.1681733460 0 -1
0.0252163090 -0.1681365380 0 -1
0.0231163750 -0.1681143170 0 -1
0.0211892150 -0.1680750560 0 -1
0.0195795930 -0.1679883220 0 -1
0.0183979180 -0.1678295820 0 -1
0.0177151130 -0.1675831530 0 -1
0.0175586810 -0.1672430340 0 -1
0.0179140540 -0.1668123530 0 -1
0.0187312970 -0.1663030760 0 -1
0.0199327000 -0.1657365250 0 -1
0.0214165850 -0.1651436850 0 -1
0.0230573340 -0.1645642570 0 -1
0.0247088750 -0.1640441900 0 -1
0.0262208270 -0.1636321930 0 -1
0.0274643190 -0.1633761910 0 -1
0.0283508130 -0.1633198910 0 -1
0.0288330320 -0.1634981570 0 -1
0.0288952430 -0.1639297920 0 -1
0.0285461140 -0.1646091950 0 -1
0.0278182260 -0.1655021130 0 -1
0.0267720220 -0.1665496750 0 -1
0.0255018670 -0.1676779240 0 -1
0.0241380640 -0.1688063110 0 -1
0.0228375440 -0.1698529810 0 -1
0.0217638820 -0.1707394970 0 -1
0.0210626990 -0.1713970520 0 -1
0.0208372170 -0.1717736590 0 -1
0.0211299190 -0.1718408030 0 -1
0.0219191850 -0.1715984180 0 -1
0.0231319060 -0.1710776470 0 -1
0.0246591200 -0.1703404730 0 -1
0.0263637630 -0.1694735880 0 -1
0.0280855240 -0.1685750850 0 -1
0.0296524730 -0.1677375780 0 -1
0.0309004030 -0.1670343900 1 -1
0.0316958270 -0.1665128530 1 -1
0.0319576180 -0.1661944840 1 -1
0.0316689250 -0.1660788030 1 -1
0.0308756040 -0.1661468150 1 -1
0.0296786550 -0.1663626050 0 -1
0.0282249630 -0.1666751040 0 -1
0.0266889740 -0.1670231190 0 -1
0.0252429720 -0.1673446840 0 -1
0.0240279540 -0.1675884090 0 -1
0.0231385600 -0.1677220150 0 -1
0.0226245040 -0.1677337930 0 -1
0.0225004830 -0.1676264140 0 -1
0.0227542810 -0.1674071160 0 -1
0.0233477580 -0.1670803470 0 -1
0.0242119950 -0.1666466320 0 -1
0.0252432240 -0.1661069470 0 -1
0.0263076070 -0.1654691210 0 -1
0.0272581360 -0.1647530490 0 -1
0.0279598770 -0.1639931140 0 -1
0.0283139810 -0.1632373460 0 -1
0.0282701730 -0.1625435710 0 -1
0.0278273660 -0.1619733330 0 -1
0.0270318070 -0.1615837240 0 -1
0.0259753000 -0.1614176950 0 -1
0.0247846570 -0.1614957120 0 -1
0.0235976420 -0.1618124700 0 -1
0.0225330280 -0.1623401080 0 -1
0.0216686520 -0.1630352280 0 -1
0.0210389410 -0.1638448610 0 -1
0.0206524820 -0.1647094740 0 -1
0.0205164340 -0.1655654920 0 -1
0.0206498820 -0.1663501020 0 -1
0.0210772860 -0.1670085140 0 -1
0.0218087250 -0.1675013620 0 -1
0.0228212070 -0.1678093670 0 -1
0.0240496570 -0.1679341410 0 -1
0.0253898000 -0.1678958210 0 -1
0.0267140200 -0.1677289610 0 -1
0.0278951730 -0.1674785580 0 -1
0.0288265380 -0.1671971130 0 -1
0.0294323830 -0.1669409300 0 -1
0.0296736720 -0.1667635620 0 -1
0.0295527250 -0.1667072080 0 -1
0.0291157410 -0.1667944920 0 -1
0.0284513020 -0.1670227460 0 -1
0.0276821810 -0.1673628220 0 -1
0.0269479540 -0.1677639650 0 -1
0.0263817040 -0.1681639120 0 -1
0.0260881200 -0.1685012830 0 -1
0.0261274240 -0.1687270520 0 -1
0.0265071810 -0.1688120370 0 -1
0.0271820340 -0.1687477000 0 -1
0.0280577780 -0.1685407660 0 -1
0.0290011000 -0.1682069030 0 -1
0.0298643200 -0.1677682220 0 -1
0.0305226870 -0.1672530740 1 -1
0.0309009120 -0.1666934250 1 -1
0.0309709310 -0.1661185260 1 -1
0.0307309260 -0.1655479480 1 -1
0.0301894700 -0.1649880910 1 -1
0.0293648390 -0.1644343180 0 -1
0.0282911380 -0.1638777100 0 -1
0.0270215130 -0.1633130730 0 -1
0.0256278290 -0.1627442180 0 -1
0.0241989800 -0.1621845550 0 -1
0.0228363070 -0.1616544670 0 -1
0.0216444070 -0.1611778910 0 -1
0.0207186240 -0.1607781740 0 -1
0.0201311430 -0.1604725910 0 -1
0.0199186040 -0.1602676350 0 -1
0.0200769060 -0.1601578780 0 -1
0.0205677390 -0.1601280420 0 -1
0.0213339640 -0.1601561360 0 -1
0.0223147520 -0.1602170680 0 -1
0.0234535460 -0.1602872450 0 -1
0.0246985200 -0.1603493760 0 -1
0.0259971570 -0.1603952900 0 -1
0.0272849240 -0.1604253150 0 -1
0.0284726600 -0.1604456460 0 -1
0.0294458210 -0.1604664320 0 -1
0.0300840830 -0.1605006450 1 -1
0.0302922120 -0.1605612000 1 -1
0.0300246310 -0.1606563980 1 -1
0.0292940180 -0.1607868620 0 -1
0.0281653460 -0.1609452120 0 -1
0.0267421140 -0.1611167430 0 -1
0.0251520890 -0.1612796930 0 -1
0.0235363500 -0.1614058920 0 -1
0.0220403960 -0.1614636050 0 -1
0.0208039510 -0.1614231240 0 -1
0.0199476050 -0.1612633570 0 -1
0.0195587720 -0.1609768230 0 -1
0.0196816080 -0.1605712340 0 -1
0.0203102460 -0.1600671700 0 -1
0.0213830010 -0.1594931440 0 -1
0.0227838730 -0.1588801630 0 -1
0.0243590160 -0.1582569420 0 -1
0.0259436960 -0.1576460760 0 -1
0.0273882610 -0.1570618700 0 -1
0.0285753190 -0.1565106350 0 -1
0.0294253650 -0.1559935660 0 -1
0.0298943420 -0.1555117430 0 -1
0.0299719910 -0.1550720300 0 -1
0.0296865170 -0.1546913360 0 -1
0.0291110230 -0.1543968560 0 -1
0.0283599930 -0.1542220400 0 -1
0.0275685150 -0.1541993660 0 -1
0.0268622860 -0.1543510200 0 -1
0.0263354190 -0.1546788680 0 -1
0.0260444680 -0.1551568170 0 -1
0.0260138400 -0.1557302670 0 -1
0.0262438830 -0.1563253790 0 -1
0.0267153580 -0.1568651500 0 -1
0.0273886950 -0.1572849030 0 -1
0.0282028420 -0.1575410900 0 -1
0.0290795090 -0.1576124550 0 -1
0.0299308370 -0.1574971830 0 -1
0.0306640260 -0.1572094380 1 -1
0.0311838050 -0.1567754660 1 -1
0.0314003830 -0.1562287260 1 -1
0.0312447850 -0.1556057300 1 -1
0.0306837210 -0.1549438540 1 -1
0.0297260650 -0.1542796240 0 -1
0.0284215600 -0.1536458210 0 -1
0.0268581860 -0.1530679520 0 -1
0.0251594420 -0.1525612960 0 -1
0.0234739780 -0.1521293590 0 -1
0.0219529590 -0.1517643830 0 -1
0.0207238890 -0.1514497310 0 -1
0.0198740650 -0.1511629820 0 -1
0.0194458280 -0.1508795170 0 -1
0.0194359100 -0.1505776840 0 -1
0.0197947910 -0.1502454170 0 -1
0.0204311810 -0.1498853220 0 -1
0.0212278220 -0.1495142730 0 -1
0.0220672380 -0.1491566150 0 -1
0.0228586890 -0.1488349430 0 -1
0.0235538800 -0.1485632870 0 -1
0.0241413940 -0.1483437030 0 -1
0.0246232280 -0.1481650570 0 -1
0.0249910390 -0.1480044980 0 -1
0.0252176240 -0.1478333800 0 -1
0.0252652210 -0.1476273290 0 -1
0.0251030180 -0.1473766440 0 -1
0.0247247440 -0.1470922520 0 -1
0.0241586910 -0.1468044140 0 -1
0.0234676130 -0.1465543210 0 -1
0.0227419050 -0.1463815510 0 -1
0.0220888150 -0.1463121870 0 -1
0.0216167080 -0.1463517090 0 -1
0.0214158040 -0.1464834600 0 -1
0.0215419010 -0.1466709840 0 -1
0.0220078270 -0.1468635040 0 -1
0.0227824730 -0.1470052530 0 -1
0.0237961180 -0.1470474170 0 -1
0.0249493710 -0.1469586460 0 -1
0.0261216310 -0.1467309460 0 -1
0.0271797630 -0.1463801910 0 -1
0.0279920110 -0.1459417000 0 -1
0.0284470710 -0.1454623760 0 -1
0.0284716200 -0.1449920570 0 -1
0.0280415790 -0.1445761860 0 -1
0.0271862560 -0.1442505110 0 -1
0.0259841760 -0.1440378290 0 -1
0.0245511270 -0.1439467170 0 -1
0.0230248030 -0.1439721140 0 -1
0.0215482910 -0.1440972470 0 -1
0.0202511700 -0.1442961490 0 -1
0.0192316630 -0.1445367090 0 -1
0.0185485890 -0.1447848750 0 -1
0.0182252130 -0.1450097620 0 -1
0.0182560370 -0.1451873040 0 -1
0.0186085480 -0.1453001890 0 -1
0.0192219560 -0.1453352340 0 -1
0.0200096150 -0.1452818710 0 -1
0.0208688010 -0.1451342880 0 -1
0.0216967580 -0.1448965440 0 -1
0.0224073210 -0.1445872310 0 -1
0.0229404710 -0.1442399450 0 -1
0.0232619500 -0.1438984310 0 -1
0.0233576800 -0.1436082240 0 -1
0.0232298040 -0.1434078990 0 -1
0.0228967230 -0.1433230880 0 -1
0.0223945770 -0.1433649380 0 -1
0.0217770030 -0.1435317600 0 -1
0.0211118420 -0.1438114070 0 -1
0.0204744370 -0.1441833220 0 -1
0.0199381010 -0.1446202330 0 -1
0.0195652410 -0.1450891900 0 -1
0.0194026890 -0.1455518640 0 -1
0.0194800950 -0.1459653830 0 -1
0.0198076660 -0.1462855180 0 -1
0.0203714290 -0.1464722350 0 -1
0.0211271210 -0.1464950940 0 -1
0.0219977250 -0.1463363570 0 -1
0.0228812270 -0.1459922670 0 -1
0.0236677440 -0.1454733900 0 -1
0.0242562160 -0.1448035410 0 -1
0.0245634550 -0.1440170360 0 -1
0.0245278110 -0.1431555160 0 -1
0.0241141280 -0.1422652980 0 -1
0.0233236410 -0.1413947430 0 -1
0.0222045750 -0.1405908060 0 -1
0.0208534490 -0.1398949840 0 -1
0.0194023680 -0.1393399860 0 -1
0.0179987310 -0.1389482790 0 -1
0.0167862330 -0.1387319440 0 -1
0.0158900920 -0.1386922360 0 -1
0.0154058460 -0.1388182730 0 -1
0.0153911960 -0.1390860920 0 -1
0.0158600760 -0.1394597230 0 -1
0.0167786500 -0.1398951570 0 -1
0.0180646830 -0.1403463210 0 -1
0.0195937480 -0.1407704430 0 -1
0.0212161860 -0.1411308710 0 -1
0.0227821230 -0.1413985370 0 -1
0.0241618970 -0.1415552170 0 -1
0.0252510250 -0.1415984790 0 -1
0.0259625690 -0.1415437000 0 -1
0.0262201980 -0.1414196750 0 -1
0.0259635480 -0.1412596910 0 -1
0.0251655170 -0.1410925870 0 -1
0.0238498500 -0.1409367100 0 -1
0.0220977130 -0.1407979090 0 -1
0.0200409130 -0.1406717970 0 -1
0.0178462290 -0.1405490960 0 -1
0.0156957360 -0.1404212190 0 -1
0.0137657890 -0.1402834660 0 -1
0.0122081980 -0.1401352630 0 -1
0.0111386650 -0.1399785700 0 -1
0.0106341640 -0.1398160640 0 -1
0.0107340480 -0.1396504710 0 -1
0.0114359030 -0.1394852380 0 -1
0.0126828230 -0.1393253700 0 -1
0.0143503440 -0.1391777410 0 -1
0.0162462690 -0.1390509400 0 -1
0.0181291770 -0.1389546730 0 -1
0.0197414570 -0.1388985970 0 -1
0.0208494290 -0.1388904210 0 -1
0.0212839240 -0.1389329290 0 -1
0.0209732680 -0.1390206770 0 -1
0.0199580970 -0.1391386710 0 -1
0.0183806960 -0.1392647850 0 -1
0.0164526940 -0.1393747250 0 -1
0.0144149910 -0.1394464880 0 -1
0.0125027940 -0.1394629910 0 -1
0.0109202910 -0.1394137520 0 -1
0.0098249680 -0.1392960440 0 -1
0.0093216290 -0.1391146910 0 -1
0.0094629050 -0.1388803090 0 -1
0.0102494420 -0.1386071580 0 -1
0.0116278990 -0.1383118220 0 -1
0.0134922200 -0.1380126820 0 -1
0.0156933310 -0.1377290970 0 -1
0.0180567920 -0.1374792850 0 -1
0.0204038280 -0.1372767870 0 -1
0.0225694150 -0.1371266650 0 -1
0.0244122590 -0.1370236700 0 -1
0.0258171480 -0.1369538580 0 -1
0.0266960040 -0.1368985160 0 -1
0.0269929730 -0.1368377610 0 -1
0.0266932820 -0.1367522680 0 -1
0.0258310450 -0.1366241520 0 -1
0.0244898350 -0.1364399290 0 -1
0.0227936010 -0.1361969970 0 -1
0.0208922100 -0.1359107730 0 -1
0.0189474840 -0.1356168610 0 -1
0.0171209940 -0.1353652110 0 -1
0.0155614090 -0.1352084040 0 -1
0.0143895860 -0.1351888390 0 -1
0.0136825480 -0.1353290820 0 -1
0.0134623160 -0.1356279890 0 -1
0.0136967060 -0.1360630250 0 -1
0.0143122660 -0.1365968200 0 -1
0.0152120930 -0.1371848680 0 -1
0.0162910810 -0.1377826840 0 -1
0.0174450780 -0.1383527310 0 -1
0.0185739150 -0.1388715530 0 -1
0.0195809520 -0.1393354450 0 -1
0.0203730410 -0.1397610500 0 -1
0.0208646940 -0.1401785550 0 -1
0.0209877380 -0.1406194350 0 -1
0.0207037460 -0.1411044380 0 -1
0.0200161170 -0.1416374240 0 -1
0.0189799820 -0.1422067080 0 -1
0.0177047090 -0.1427914820 0 -1
0.0163421480 -0.1433694210 0 -1
0.0150608270 -0.1439214010 0 -1
0.0140157410 -0.1444307420 0 -1
0.0133251670 -0.1448787930 0 -1
0.0130583570 -0.1452420570 0 -1
0.0132293290 -0.1454942070 0 -1
0.0137926600 -0.1456118280 0 -1
0.0146457980 -0.1455803080 0 -1
0.0156452100 -0.1453965810 0 -1
0.0166337460 -0.1450673210 0 -1
0.0174664150 -0.1446043990 0 -1
0.0180258070 -0.1440212760 0 -1
0.0182281940 -0.1433323260 0 -1
0.0180251920 -0.1425546790 0 -1
0.0174057680 -0.1417119020 0 -1
0.0164010360 -0.1408380020 0 -1
0.0150892490 -0.1399783550 0 -1
0.0135952540 -0.1391855540 0 -1
0.0120800660 -0.1385119060 0 -1
0.0107205920 -0.1380010330 0 -1
0.0096834420 -0.1376797520 0 -1
0.0090991080 -0.1375523580 0 -1
0.0090442030 -0.1375998310 0 -1
0.0095373640 -0.1377834180 0 -1
0.0105467380 -0.1380497890 0 -1
0.0120009840 -0.1383365460 0 -1
0.0137975750 -0.1385790540 0 -1
0.0158078390 -0.1387195860 0 -1
0.0178832450 -0.1387180840 0 -1
0.0198684140 -0.1385614280 0 -1
0.0216198470 -0.1382673430 0 -1
0.0230222200 -0.1378813630 0 -1
0.0239969040 -0.1374679870 0 -1
0.0245051740 -0.1370978720 0 -1
0.0245505740 -0.1368335160 0 -1
0.0241802370 -0.1367173290 0 -1
0.0234809790 -0.1367658520 0 -1
0.0225691390 -0.1369712360 0 -1
0.0215788290 -0.1373077880 0 -1
0.0206522570 -0.1377398990 0 -1
0.0199296850 -0.1382289950 0 -1
0.0195346940 -0.1387392260 0 -1
0.0195555120 -0.1392416290 0 -1
0.0200296840 -0.1397155170 0 -1
0.0209389810 -0.1401468330 0 -1
0.0222127860 -0.1405250910 0 -1
0.0237329200 -0.1408407190 0 -1
0.0253395000 -0.1410834150 0 -1
0.0268461960 -0.1412414550 0 -1
0.0280704010 -0.1413019580 0 -1
0.0288704750 -0.1412516980 0 -1
0.0291731560 -0.1410789110 0 -1
0.0289790390 -0.1407779420 0 -1
0.0283459830 -0.1403561120 0 -1
0.0273609280 -0.1398378400 0 -1
0.0261157150 -0.1392619180 0 -1
0.0246956600 -0.1386733930 0 -1
0.0231763220 -0.1381143940 0 -1
0.0216221530 -0.1376164760 0 -1
0.0200899010 -0.1371948990 0 -1
0.0186400130 -0.1368457300 0 -1
0.0173487720 -0.1365473290 0 -1
0.0163107110 -0.1362661600 0 -1
0.0156289830 -0.1359643410 0 -1
0.0153969860 -0.1356062360 0 -1
0.0156738330 -0.1351639220 0 -1
0.0164594830 -0.1346222030 0 -1
0.0176814120 -0.1339816860 0 -1
0.0192020900 -0.1332580490 0 -1
0.0208452980 -0.1324778250 0 -1
0.0224290240 -0.1316722680 0 -1
0.0237919350 -0.1308713380 0 -1
0.0248094220 -0.1300998880 0 -1
0.0254023430 -0.1293768090 0 -1
0.0255407920 -0.1287161630 0 -1
0.0252432930 -0.1281288780 0 -1
0.0245714490 -0.1276243700 0 -1
0.0236200380 -0.1272116980 0 -1
0.0225048560 -0.1268987140 0 -1
0.0213510550 -0.1266882160 0 -1
0.0202807210 -0.1265735620 0 -1
0.0194001080 -0.1265379820 0 -1
0.0187933910 -0.1265585120 0 -1
0.0185248060 -0.1266115030 0 -1
0.0186396720 -0.1266771030 0 -1
0.0191555740 -0.1267418890 0 -1
0.0200470360 -0.1267985960 0 -1
0.0212364410 -0.1268427810 0 -1
0.0226021020 -0.1268693170 0 -1
0.0240021490 -0.1268722730 0 -1
0.0253026240 -0.1268480250 0 -1
0.0263984400 -0.1267978100 0 -1
0.0272217800 -0.1267274640 0 -1
0.0277386350 -0.1266462830 0 -1
0.0279407220 -0.1265670630 0 -1
0.0278418060 -0.1265062950 0 -1
0.0274784770 -0.1264825420 0 -1
0.0269055290 -0.1265127550 0 -1
0.0261815650 -0.1266079330 0 -1
0.0253554480 -0.1267699000 0 -1
0.0244658250 -0.1269898790 0 -1
0.0235515330 -0.1272482810 0 -1
0.0226611220 -0.1275151940 0 -1
0.0218538250 -0.1277521450 0 -1
0.0211928190 -0.1279160330 0 -1
0.0207358900 -0.1279649230 0 -1
0.0205267560 -0.1278642910 0 -1
0.0205870820 -0.1275928730 0 -1
0.0209097040 -0.1271472800 0 -1
0.0214549090 -0.1265436310 0 -1
0.0221508830 -0.1258152620 0 -1
0.0228993460 -0.1250082330 0 -1
0.0235869410 -0.1241770510 0 -1
0.0240998370 -0.1233803910 0 -1
0.0243391390 -0.1226751640 0 -1
0.0242378750 -0.1221097010 0 -1
0.0237771630 -0.1217190320 0 -1
0.0229934660 -0.1215237350 0 -1
0.0219727580 -0.1215309540 0 -1
0.0208367690 -0.1217352700 0 -1
0.0197281740 -0.1221184750 0 -1
0.0187944830 -0.1226494820 0 -1
0.0181657540 -0.1232861560 0 -1
0.0179271240 -0.1239793870 0 -1
0.0180973410 -0.1246779690 0 -1
0.0186262970 -0.1253333010 0 -1
0.0194136480 -0.1259044660 0 -1
0.0203368130 -0.1263631100 0 -1
0.0212738260 -0.1266950120 0 -1
0.0221157050 -0.1268972140 0 -1
0.0227728130 -0.1269738240 0 -1
0.0231811230 -0.1269337290 0 -1
0.0233094080 -0.1267902110 0 -1
0.0231639000 -0.1265606190 0 -1
0.0227861630 -0.1262651690 0 -1
0.0222429450 -0.1259255530 0 -1
0.0216116500 -0.1255638840 0 -1
0.0209675620 -0.1252008930 0 -1
0.0203772270 -0.1248522670 0 -1
0.0198988630 -0.1245247750 0 -1
0.0195874420 -0.1242155950 0 -1
0.0195001430 -0.1239157940 0 -1
0.0196978800 -0.1236154700 0 -1
0.0202386340 -0.1233077040 0 -1
0.0211600150 -0.1229903790 0 -1
0.0224562820 -0.1226657200 0 -1
0.0240627210 -0.1223372920 0 -1
0.0258574800 -0.1220055860 0 -1
0.0276809530 -0.1216651550 0 -1
0.0293647810 -0.1213048600 0 -1
0.0307597220 -0.1209104110 1 -1
0.0317536900 -0.1204687870 1 -1
0.0322774110 -0.1199749510 1 -1
0.0323017800 -0.1194393070 1 -1
0.0318326680 -0.1188916810 1 -1
0.0309043800 -0.1183785540 1 -1
0.0295714820 -0.1179545530 0 -1
0.0279051720 -0.1176721130 0 -1
0.0260003080 -0.1175721060 0 -1
0.0239845240 -0.1176753330 0 -1
0.0220129650 -0.1179745270 0 -1
0.0202477300 -0.1184297630 0 -1
0.0188366270 -0.1189720780 0 -1
0.0178971290 -0.1195163750 0 -1
0.0174990160 -0.1199786830 0 -1
0.0176468740 -0.1202913300 0 -1
0.0182748810 -0.1204128630 0 -1
0.0192595920 -0.1203325670 0 -1
0.0204443580 -0.1200702970 0 -1
0.0216689910 -0.1196727070 0 -1
0.0228008470 -0.1192065680 0 -1
0.0237570740 -0.1187485600 0 -1
0.0245059660 -0.1183719260 0 -1
0.0250496520 -0.1181336060 0 -1
0.0254039050 -0.1180665130 0 -1
0.0255866030 -0.1181783590 0 -1
0.0256144310 -0.1184546200 0 -1
0.0255037860 -0.1188629520 0 -1
0.0252751130 -0.1193581840 0 -1
0.0249609780 -0.1198872920 0 -1
0.0246144400 -0.1203938110 0 -1
0.0243097720 -0.1208231760 0 -1
0.0241290610 -0.1211300670 0 -1
0.0241383220 -0.1212844620 0 -1
0.0243660400 -0.1212721780 0 -1
0.0247936990 -0.1210908340 0 -1
0.0253575350 -0.1207458010 0 -1
0.0259580690 -0.1202489670 0 -1
0.0264782600 -0.1196199230 0 -1
0.0268091600 -0.1188874050 0 -1
0.0268742160 -0.1180886680 0 -1
0.0266416550 -0.1172662080 0 -1
0.0261205030 -0.1164638370 0 -1
0.0253445920 -0.1157239530 0 -1
0.0243562720 -0.1150852490 0 -1
0.0231988220 -0.1145794270 0 -1
0.0219149430 -0.1142272830 0 -1
0.0205448090 -0.1140360340 0 -1
0.0191272840 -0.1139989410 0 -1
0.0177137190 -0.1140958330 0 -1
0.0163894780 -0.1142928190 0 -1
0.0152796640 -0.1145432070 0 -1
0.0145234050 -0.1147931290 0 -1
0.0142309090 -0.1149910660 0 -1
0.0144505130 -0.1150969690 0 -1
0.0151569660 -0.1150885030 0 -1
0.0162551510 -0.1149642110 0 -1
0.0175935020 -0.1147430870 0 -1
0.0189871410 -0.1144599620 0 -1
0.0202489990 -0.1141578580 0 -1
0.0212215330 -0.1138795650 0 -1
0.0218017040 -0.1136607100 0 -1
0.0219543890 -0.1135265800 0 -1
0.0217097220 -0.1134938730 0 -1
0.0211444310 -0.1135747260 0 -1
0.0203558090 -0.1137778460 0 -1
0.0194393930 -0.1141043160 0 -1
0.0184780190 -0.1145408720 0 -1
0.0175465860 -0.1150563160 0 -1
0.0167296260 -0.1156058070 0 -1
0.0161345090 -0.1161440750 0 -1
0.0158779120 -0.1166429640 0 -1
0.0160454610 -0.1171039200 0 -1
0.0166558620 -0.1175570530 0 -1
0.0176583370 -0.1180458990 0 -1
0.0189570950 -0.1186048710 0 -1
0.0204373790 -0.1192398560 0 -1
0.0219805570 -0.1199201680 0 -1
0.0234711230 -0.1205829270 0 -1
0.0248014350 -0.1211451300 0 -1
0.0258791160 -0.1215194170 0 -1
0.0266374250 -0.1216316510 0 -1
0.0270403090 -0.1214361000 0 -1
0.0270755050 -0.1209221920 0 -1
0.0267431130 -0.1201110430 0 -1
0.0260509540 -0.1190449110 0 -1
0.0250162130 -0.1177735770 0 -1
0.0236671990 -0.1163421390 0 -1
0.0220439060 -0.1147859010 0 -1
0.0201991780 -0.1131342130 0 -1
0.0182046730 -0.1114172320 0 -1
0.0161646460 -0.1096679100 0 -1
0.0142281320 -0.1079191260 0 -1
0.0125817220 -0.1062023000 0 -1
0.0114159390 -0.1045511640 0 -1
0.0108772390 -0.1030072090 0 -1
0.0110289270 -0.1016214810 0 -1
0.0118377700 -0.1004518310 0 -1
0.0131836640 -0.0995568690 0 -1
0.0148809820 -0.0989855930 0 -1
0.0167087640 -0.0987624810 0 -1
0.0184506600 -0.0988741880 0 -1
0.0199339670 -0.0992676030 0 -1
0.0210478320 -0.0998625140 0 -1
0.0217338240 -0.1005716430 0 -1
0.0219667860 -0.1013179380 0 -1
0.0217470800 -0.1020434580 0 -1
0.0211059510 -0.1027095410 0 -1
0.0201141990 -0.1032927970 0 -1
0.0188868390 -0.1037828070 0 -1
0.0175773960 -0.1041828710 0 -1
0.0163579410 -0.1045098620 0 -1
0.0153899690 -0.1047892620 0 -1
0.0147969780 -0.1050457390 0 -1
0.0146476050 -0.1052933530 0 -1
0.0149510720 -0.1055293900 0 -1
0.0156610590 -0.1057332300 0 -1
0.0166870320 -0.1058700970 0 -1
0.0179151150 -0.1058997860 0 -1
0.0192328470 -0.1057893600 0 -1
0.0205433320 -0.1055250380 0 -1
0.0217611820 -0.1051165340 0 -1
0.0228010260 -0.1045914120 0 -1
0.0235747240 -0.1039842450 0 -1
0.0239987330 -0.1033288130 0 -1
0.0240014080 -0.1026579140 0 -1
0.0235239400 -0.1020076640 0 -1
0.0225176050 -0.1014194970 0 -1
0.0209462630 -0.1009365320 0 -1
0.0188032230 -0.1005949020 0 -1
0.0161401830 -0.1004131040 0 -1
0.0130930470 -0.1003862020 0 -1
0.0098911700 -0.1004902640 0 -1
0.0068448160 -0.1006938830 0 -1
0.0043065510 -0.1009688300 0 -1
0.0026056650 -0.1012953500 0 -1
0.0019714460 -0.1016628540 0 -1
0.0024763680 -0.1020690900 0 -1
0.0040224470 -0.1025198130 0 -1
0.0063698510 -0.1030280170 0 -1
0.0091917300 -0.1036106790 0 -1
0.0121381940 -0.1042825480 0 -1
0.0148930160 -0.1050484490 0 -1
0.0172105060 -0.1058969250 0 -1
0.0189310740 -0.1067984750 0 -1
0.0199833050 -0.1077097560 0 -1
0.0203808100 -0.1085810980 0 -1
0.0202164760 -0.1093618070 0 -1
0.0196497300 -0.1099998730 0 -1
0.0188815270 -0.1104393700 0 -1
0.0181198950 -0.1106221170 0 -1
0.0175444610 -0.1104962300 0 -1
0.0172757570 -0.1100291050 0 -1
0.0173566920 -0.1092207110 0 -1
0.0177576620 -0.1081128790 0 -1
0.0184054000 -0.1067899240 0 -1
0.0192165870 -0.1053676280 0 -1
0.0201186110 -0.1039727050 0 -1
0.0210577930 -0.1027205700 0 -1
0.0219989610 -0.1016996040 0 -1
0.0229103830 -0.1009648340 0 -1
0.0237346290 -0.1005390390 0 -1
0.0243659390 -0.1004178420 0 -1
0.0246573650 -0.1005757250 0 -1
0.0244607960 -0.1009694920 0 -1
0.0236827240 -0.1015379140 0 -1
0.0223336000 -0.1022032250 0 -1
0.0205508560 -0.1028821090 0 -1
0.0185781870 -0.1035043740 0 -1
0.0167008310 -0.1040273710 0 -1
0.0151679140 -0.1044367700 0 -1
0.0141415520 -0.1047372810 0 -1
0.0136849030 -0.1049448950 0 -1
0.0137752970 -0.1050849800 0 -1
0.0143285500 -0.1051894040 0 -1
0.0152286090 -0.1052873790 0 -1
0.0163563020 -0.1053942080 0 -1
0.0176081820 -0.1055053020 0 -1
0.0189009830 -0.1055983610 0 -1
0.0201668940 -0.1056421290 0 -1
0.0213484270 -0.1056085410 0 -1
0.0223972070 -0.1054841340 0 -1
0.0232763450 -0.1052758260 0 -1
0.0239628020 -0.1050082740 0 -1
0.0244445310 -0.1047147110 0 -1
0.0247121170 -0.1044258910 0 -1
0.0247525620 -0.1041615740 0 -1
0.0245535660 -0.1039276180 0 -1
0.0241201280 -0.1037194560 0 -1
0.0234967230 -0.1035293260 0 -1
0.0227789480 -0.1033525210 0 -1
0.0220985610 -0.1031894920 0 -1
0.0215849620 -0.1030442420 0 -1
0.0213271620 -0.1029214920 0 -1
0.0213591650 -0.1028245560 0 -1
0.0216699630 -0.1027540240 0 -1
0.0222179130 -0.1027056510 0 -1
0.0229327260 -0.1026660950 0 -1
0.0237140710 -0.1026091320 0 -1
0.0244453530 -0.1024980250 0 -1
0.0250197160 -0.1022959680 0 -1
0.0253579810 -0.1019796680 0 -1
0.0254088360 -0.1015487360 0 -1
0.0251393850 -0.1010269800 0 -1
0.0245271270 -0.1004563390 0 -1
0.0235593570 -0.0998861200 0 -1
0.0222428120 -0.0993599500 0 -1
0.0206196110 -0.0989043390 0 -1
0.0187769910 -0.0985241450 0 -1
0.0168421450 -0.0982065630 0 -1
0.0149671770 -0.0979294630 0 -1
0.0133135430 -0.0976689290 0 -1
0.0120365050 -0.0974047710 0 -1
0.0112660220 -0.0971261500 0 -1
0.0110881480 -0.0968374880 0 -1
0.0115336160 -0.0965599220 0 -1
0.0125730630 -0.0963242000 0 -1
0.0141169210 -0.0961584270 0 -1
0.0160225150 -0.0960784970 0 -1
0.0181102620 -0.0960852830 0 -1
0.0201869300 -0.0961670610 0 -1
0.0220718000 -0.0963042140 0 -1
0.0236199100 -0.0964740680 0 -1
0.0247368050 -0.0966543540 0 -1
0.0253829580 -0.0968247470 0 -1
0.0255683190 -0.0969663810 0 -1
0.0253363370 -0.0970582800 0 -1
0.0247406080 -0.0970714050 0 -1
0.0238267530 -0.0969658000 0 -1
0.0226320920 -0.0966960950 0 -1
0.0212019560 -0.0962231670 0 -1
0.0196091870 -0.0955243490 0 -1
0.0179630220 -0.0945973570 0 -1
0.0164025600 -0.0934589160 0 -1
0.0150784680 -0.0921416080 0 -1
0.0141276500 -0.0906914560 0 -1
0.0136467350 -0.0891669170 0 -1
0.0136731260 -0.0876383020 0 -1
0.0141778850 -0.0861853660 0 -1
0.0150687860 -0.0848914540 0 -1
0.0162039870 -0.0838362420 0 -1
0.0174181370 -0.0830909550 0 -1
0.0185552980 -0.0827159570 0 -1
0.0194966070 -0.0827566060 0 -1
0.0201738950 -0.0832356420 0 -1
0.0205686350 -0.0841455040 0 -1
0.0207014500 -0.0854444790 0 -1
0.0206189800 -0.0870574440 0 -1
0.0203828130 -0.0888804130 0 -1
0.0200620750 -0.0907886170 0 -1
0.0197283180 -0.0926481010 0 -1
0.0194481070 -0.0943301060 0 -1
0.0192698010 -0.0957260990 0 -1
0.0192099480 -0.0967600520 0 -1
0.0192510130 -0.0973943040 0 -1
0.0193544690 -0.0976261060 0 -1
0.0194802970 -0.0974757330 0 -1
0.0196017240 -0.0969730490 0 -1
0.0197102000 -0.0961504010 0 -1
0.0198108580 -0.0950430430 0 -1
0.0199109820 -0.0936927760 0 -1
0.0200048100 -0.0921519960 0 -1
0.0200609720 -0.0904876340 0 -1
0.0200212790 -0.0887831160 0 -1
0.0198131620 -0.0871355640 0 -1
0.0193682410 -0.0856478360 0 -1
0.0186389510 -0.0844171990 0 -1
0.0176110710 -0.0835220720 0 -1
0.0163125360 -0.0830078910 0 -1
0.0148168150 -0.0828753400 0 -1
0.0132367460 -0.0830758600 0 -1
0.0117067220 -0.0835167490 0 -1
0.0103590300 -0.0840744660 0 -1
0.0093065690 -0.0846134690 0 -1
0.0086387110 -0.0850076150 0 -1
0.0084238200 -0.0851600840 0 -1
0.0087062410 -0.0850173530 0 -1
0.0094932130 -0.0845741140 0 -1
0.0107383630 -0.0838689270 0 -1
0.0123322590 -0.0829730740 0 -1
0.0141068880 -0.0819757120 0 -1
0.0158564060 -0.0809678240 0 -1
0.0173711590 -0.0800279230 0 -1
0.0184746000 -0.0792127950 0 -1
0.0190514810 -0.0785548620 0 -1
0.0190631160 -0.0780653900 0 -1
0.0185500970 -0.0777415580 0 -1
0.0176216300 -0.0775742070 0 -1
0.0164333780 -0.0775524540 0 -1
0.0151613930 -0.0776633440 0 -1
0.0139784950 -0.0778886700 0 -1
0.0130332560 -0.0782017200 0 -1
0.0124319660 -0.0785640860 0 -1
0.0122288350 -0.0789228380 0 -1
0.0124297030 -0.0792116000 0 -1
0.0130066130 -0.0793592530 0 -1
0.0139093760 -0.0793056030 0 -1
0.0150627880 -0.0790181430 0 -1
0.0163591680 -0.0785022070 0 -1
0.0176645410 -0.0778004120 0 -1
0.0188391990 -0.0769828480 0 -1
0.0197600290 -0.0761325420 0 -1
0.0203363770 -0.0753306380 0 -1
0.0205161840 -0.0746440430 0 -1
0.0202826390 -0.0741168110 0 -1
0.0196475260 -0.0737667190 0 -1
0.0186475150 -0.0735876900 0 -1
0.0173451450 -0.0735557260 0 -1
0.0158348930 -0.0736348880 0 -1
0.0142500540 -0.0737821580 0 -1
0.0127584380 -0.0739519560 0 -1
0.0115394130 -0.0741004760 0 -1
0.0107508420 -0.0741895470 0 -1
0.0105022980 -0.0741906370 0 -1
0.0108401590 -0.0740895840 0 -1
0.0117358380 -0.0738907900 0 -1
0.0130747090 -0.0736175390 0 -1
0.0146617240 -0.0733055740 0 -1
0.0162549320 -0.0729914350 0 -1
0.0176133460 -0.0727010290 0 -1
0.0185383150 -0.0724435820 0 -1
0.0189010600 -0.0722128920 0 -1
0.0186566190 -0.0719947620 0 -1
0.0178425800 -0.0717774630 0 -1
0.0165644180 -0.0715615280 0 -1
0.0149738460 -0.0713665440 0 -1
0.0132439290 -0.0712342050 0 -1
0.0115447150 -0.0712254590 0 -1
0.0100278710 -0.0714070200 0 -1
0.0088234140 -0.0718272190 0 -1
0.0080402850 -0.0724925670 0 -1
0.0077625250 -0.0733589090 0 -1
0.0080386190 -0.0743390970 0 -1
0.0088647020 -0.0753188610 0 -1
0.0101720210 -0.0761740860 0 -1
0.0118364350 -0.0767881070 0 -1
0.0137116410 -0.0770699250 0 -1
0.0156635020 -0.0769736840 0 -1
0.0175817580 -0.0765144840 0 -1
0.0193666470 -0.0757688670 0 -1
0.0209096020 -0.0748524480 0 -1
0.0220931250 -0.0738841870 0 -1
0.0228167620 -0.0729586390 0 -1
0.0230253990 -0.0721392880 0 -1
0.0227093370 -0.0714673130 0 -1
0.0218765590 -0.0709707520 0 -1
0.0205288870 -0.0706651380 0 -1
0.0186678900 -0.0705481540 0 -1
0.0163267800 -0.0705955410 0 -1
0.0136050680 -0.0707618250 0 -1
0.0106832580 -0.0709859970 0 -1
0.0078075000 -0.0712029840 0 -1
0.0052490940 -0.0713591820 0 -1
0.0032513140 -0.0714242120 0 -1
0.0019782910 -0.0713920610 0 -1
0.0014843040 -0.0712733100 0 -1
0.0017177890 -0.0710854490 0 -1
0.0025542130 -0.0708467380 0 -1
0.0038345120 -0.0705745450 0 -1
0.0053910550 -0.0702859810 0 -1
0.0070596350 -0.0699986210 0 -1
0.0086845670 -0.0697303980 0 -1
0.0101245890 -0.0694980460 0 -1
0.0112641290 -0.0693141690 0 -1
0.0120292290 -0.0691851600 0 -1
0.0124028730 -0.0691131480 0 -1
0.0124329550 -0.0691021520 0 -1
0.0122249550 -0.0691636500 0 -1
0.0119098450 -0.0693151310 0 -1
0.0115911580 -0.0695687580 0 -1
0.0113051260 -0.0699140870 0 -1
0.0110292960 -0.0703051500 0 -1
0.0107316970 -0.0706621690 0 -1
0.0104194920 -0.0708898480 0 -1
0.0101563180 -0.0709045750 0 -1
0.0100430280 -0.0706587880 0 -1
0.0101733540 -0.0701529130 0 -1
0.0105874740 -0.0694319180 0 -1
0.0112525160 -0.0685718610 0 -1
0.0120823810 -0.0676652490 0 -1
0.0129776760 -0.0668100090 0 -1
0.0138597690 -0.0661019070 0 -1
0.0146869780 -0.0656287440 0 -1
0.0154473360 -0.0654640260 0 -1
0.0161343430 -0.0656577050 0 -1
0.0167276910 -0.0662253330 0 -1
0.0171912090 -0.0671413640 0 -1
0.0174826140 -0.0683414070 0 -1
0.0175732550 -0.0697333210 0 -1
0.0174797400 -0.0712132310 0 -1
0.0172950070 -0.0726814860 0 -1
0.0171953190 -0.0740544160 0 -1
0.0174046500 -0.0752680520 0 -1
0.0181171730 -0.0762718900 0 -1
0.0194119630 -0.0770193280 0 -1
0.0212104320 -0.0774673320 0 -1
0.0232976630 -0.0775878580 0 -1
0.0253906290 -0.0773800270 0 -1
0.0272197980 -0.0768734870 0 -1
0.0285807150 -0.0761218590 0 -1
0.0293278430 -0.0751882120 0 -1
0.0293382980 -0.0741275280 0 -1
0.0285004000 -0.0729764430 0 -1
0.0267422420 -0.0717576330 0 -1
0.0240730010 -0.0704948550 0 -1
0.0206155670 -0.0692281140 0 -1
0.0166287610 -0.0680202040 0 -1
0.0125051220 -0.0669500310 0 -1
0.0087062850 -0.0660947210 0 -1
0.0056332010 -0.0655101650 0 -1
0.0035140220 -0.0652202780 0 -1
0.0023944300 -0.0652166660 0 -1
0.0022025040 -0.0654621660 0 -1
0.0027987330 -0.0658949050 0 -1
0.0039913930 -0.0664377940 0 -1
0.0055685340 -0.0670154750 0 -1
0.0073649380 -0.0675705610 0 -1
0.0093098750 -0.0680695460 0 -1
0.0114030760 -0.0684959490 0 -1
0.0136436880 -0.0688381910 0 -1
0.0159877990 -0.0690875280 0 -1
0.0183683670 -0.0692529010 0 -1
0.0207294760 -0.0693772620 0 -1
0.0230105490 -0.0695343420 0 -1
0.0250909200 -0.0698050330 0 -1
0.0267713330 -0.0702506560 0 -1
0.0278339970 -0.0708978740 0 -1
0.0281340720 -0.0717375410 0 -1
0.0276444000 -0.0727312150 0 -1
0.0264346490 -0.0738163100 0 -1
0.0246378060 -0.0749059530 0 -1
0.0224469090 -0.0758905780 0 -1
0.0201208540 -0.0766506400 0 -1
0.0179621840 -0.0770797270 0 -1
0.0162627530 -0.0771094090 0 -1
0.0152375100 -0.0767266740 0 -1
0.0149826360 -0.0759768530 0 -1
0.0154902270 -0.0749510290 0 -1
0.0166973590 -0.0737659360 0 -1
0.0185058240 -0.0725466580 0 -1
0.0207570970 -0.0714155790 0 -1
0.0232190320 -0.0704842880 0 -1
0.0256240180 -0.0698446570 0 -1
0.0277203050 -0.0695567910 0 -1
0.0292821890 -0.0696330760 0 -1
0.0300971720 -0.0700244390 1 -1
0.0299965880 -0.0706228060 0 -1
0.0289448790 -0.0712879550 0 -1
0.0271219190 -0.0718889460 0 -1
0.0249227600 -0.0723391500 0 -1
0.0228553030 -0.0726091720 0 -1
0.0213693330 -0.0727154850 0 -1
0.0206856280 -0.0726935440 0 -1
0.0207213940 -0.0725697950 0 -1
0.0211678790 -0.0723465710 0 -1
0.0216612400 -0.0720058160 0 -1
0.0219301200 -0.0715267630 0 -1
0.0218605810 -0.0709064720 0 -1
0.0214959870 -0.0701715800 0 -1
0.0210110430 -0.0693749420 0 -1
0.0206756980 -0.0685827320 0 -1
0.0207992780 -0.0678638800 0 -1
0.0216532570 -0.0672849430 0 -1
0.0233957970 -0.0669039210 0 -1
0.0260201330 -0.0667604400 0 -1
0.0293346900 -0.0668663810 0 -1
0.0329866710 -0.0671995410 1 -1
0.0365362770 -0.0677018320 1 -1
0.0395570140 -0.0682881540 1 -1
0.0417235620 -0.0688699940 1 -1
0.0428741730 -0.0693840940 1 -1
0.0430525610 -0.0698092140 1 -1
0.0425128110 -0.0701643790 1 -1
0.0416545500 -0.0704934830 1 -1
0.0408910590 -0.0708414150 1 -1
0.0404984210 -0.0712273070 1 -1
0.0405015810 -0.0716279090 1 -1
0.0406501640 -0.0719844620 1 -1
0.0405248610 -0.0722305780 1 -1
0.0397475380 -0.0723234920 1 -1
0.0381742440 -0.0722632850 1 -1
0.0359393170 -0.0720937540 1 -1
0.0333327400 -0.0718834010 1 -1
0.0306282800 -0.0716947740 1 -1
0.0279986800 -0.0715629310 0 -1
0.0255508640 -0.0714980900 0 -1
0.0234122980 -0.0715043640 0 -1
0.0217872600 -0.0715934840 0 -1
0.0209503070 -0.0717810900 0 -1
0.0211893830 -0.0720692200 0 -1
0.0227269520 -0.0724296400 0 -1
0.0256383530 -0.0728026660 0 -1
0.0297784010 -0.0731123840 0 -1
0.0347491020 -0.0732860120 1 -1
0.0399609590 -0.0732694930 1 -1
0.0447987040 -0.0730413140 1 -1
0.0488204010 -0.0726229480 1 -1
0.0518832800 -0.0720762370 1 -1
0.0541417080 -0.0714832100 1 -1
0.0559471290 -0.0709189090 1 -1
0.0577097100 -0.0704344760 1 -1
0.0597560000 -0.0700593140 1 -1
0.0622089110 -0.0698187740 1 -1
0.0649364020 -0.0697545740 1 -1
0.0676002380 -0.0699299210 1 -1
0.0697767150 -0.0704087930 1 -1
0.0710834530 -0.0712204390 1 -1
0.0712638520 -0.0723339940 1 -1
0.0702193130 -0.0736581440 1 -1
0.0680048850 -0.0750616830 1 -1
0.0648088340 -0.0764032590 1 -1
0.0609252380 -0.0775605670 1 -1
0.0567181220 -0.0784503690 1 -1
0.0525726200 -0.0790317170 1 -1
0.0488297390 -0.0792909890 1 -1
0.0457201920 -0.0792190020 1 -1
0.0433350540 -0.0787994660 1 -1
0.0416445330 -0.0780204480 1 -1
0.0405249660 -0.0768987940 1 -1
0.0397664640 -0.0754968650 1 -1
0.0390928670 -0.0739212520 1 -1
0.0382309120 -0.0723066380 1 -1
0.0370074400 -0.0707927870 1 -1
0.0354138940 -0.0695033620 1 -1
0.0335981420 -0.0685328060 1 -1
0.0317933380 -0.0679402570 1 -1
0.0302256170 -0.0677446770 1 -1
0.0290467930 -0.0679193320 0 -1
0.0283247840 -0.0683906440 0 -1
0.0280860830 -0.0690480090 0 -1
0.0283604750 -0.0697660210 0 -1
0.0291851810 -0.0704342240 0 -1
0.0305827050 -0.0709864800 1 -1
0.0325556040 -0.0714190270 1 -1
0.0351027740 -0.0717847430 1 -1
0.0382178660 -0.0721602810 1 -1
0.0418455040 -0.0726010660 1 -1
0.0458238050 -0.0731102420 1 -1
0.0498706390 -0.0736395560 1 -1
0.0536352440 -0.0741178200 1 -1
0.0567719750 -0.0744846860 1 -1
0.0589910780 -0.0747094300 1 -1
0.0600899850 -0.0747905400 1 -1
0.0599790770 -0.0747444630 1 -1
0.0587017650 -0.0745941320 1 -1
0.0564488290 -0.0743636550 1 -1
0.0535573030 -0.0740786950 1 -1
0.0504748130 -0.0737675120 1 -1
0.0476897270 -0.0734582030 1 -1
0.0456465160 -0.0731716650 1 -1
0.0446552380 -0.0729147410 1 -1
0.0448008490 -0.0726791450 1 -1
0.0458988390 -0.0724464060 1 -1
0.0475587770 -0.0721948470 1 -1
0.0493387960 -0.0719063200 1 -1
0.0508945280 -0.0715725780 1 -1
0.0520487750 -0.0711990910 1 -1
0.0527847950 -0.0708014490 1 -1
0.0532041750 -0.0703939470 1 -1
0.0534717710 -0.0699794540 1 -1
0.0537476950 -0.0695501390 1 -1
0.0541202600 -0.0690983690 1 -1
0.0545708330 -0.0686301290 1 -1
0.0549865610 -0.0681744060 1 -1
0.0552115300 -0.0677849920 1 -1
0.0551108690 -0.0675324050 1 -1
0.0546129670 -0.0674855350 1 -1
0.0537085140 -0.0676888480 1 -1
0.0524265870 -0.0681468990 1 -1
0.0508297570 -0.0688250480 1 -1
0.0490385160 -0.0696651720 1 -1
0.0472482520 -0.0706056560 1 -1
0.0456982970 -0.0715930010 1 -1
0.0446005920 -0.0725815370 1 -1
0.0440809540 -0.0735290450 1 -1
0.0441705340 -0.0743959050 1 -1
0.0448286830 -0.0751477050 1 -1
0.0459549760 -0.0757575830 1 -1
0.0473754580 -0.0762051520 1 -1
0.0488174740 -0.0764697060 1 -1
0.0499015120 -0.0765194110 1 -1
0.0501892350 -0.0763063110 1 -1
0.0493055720 -0.0757775800 1 -1
0.0470858260 -0.0749004320 1 -1
0.0436570540 -0.0736866020 1 -1
0.0394061590 -0.0722040510 1 -1
0.0348678910 -0.0705693130 1 -1
0.0305991450 -0.0689189150 1 -1
0.0270828110 -0.0673705670 0 -1
0.0246729530 -0.0659977810 0 -1
0.0235728370 -0.0648340540 0 -1
0.0238275480 -0.0638961380 0 -1
0.0253276770 -0.0632002300 0 -1
0.0278461040 -0.0627586450 0 -1
0.0311156300 -0.0625681200 1 -1
0.0349066500 -0.0626042960 1 -1
0.0390520570 -0.0628238730 1 -1
0.0434106020 -0.0631695650 1 -1
0.0478107980 -0.0635761610 1 -1
0.0520333980 -0.0639780100 1 -1
0.0558523610 -0.0643175430 1 -1
0.0590928640 -0.0645541930 1 -1
0.0616564250 -0.0646730720 1 -1
0.0635064970 -0.0646913880 1 -1
0.0646297440 -0.0646594440 1 -1
0.0649889750 -0.0646543000 1 -1
0.0645003450 -0.0647656990 1 -1
0.0630670840 -0.0650751630 1 -1
0.0606609290 -0.0656325810 1 -1
0.0574068920 -0.0664385930 1 -1
0.0536219030 -0.0674416940 1 -1
0.0497654560 -0.0685530170 1 -1
0.0463006250 -0.0696721490 1 -1
0.0435435410 -0.0707121160 1 -1
0.0416074930 -0.0716130620 1 -1
0.0404630990 -0.0723410340 1 -1
0.0400325190 -0.0728783720 1 -1
0.0402335320 -0.0732162250 1 -1
0.0409692980 -0.0733538470 1 -1
0.0421105590 -0.0733030750 1 -1
0.0434938110 -0.0730939980 1 -1
0.0449228570 -0.0727751790 1 -1
0.0461733080 -0.0724023390 1 -1
0.0470262300 -0.0720191820 1 -1
0.0473315540 -0.0716448740 1 -1
0.0470545470 -0.0712786160 1 -1
0.0462693880 -0.0709143670 1 -1
0.0451158350 -0.0705495590 1 -1
0.0437525970 -0.0701820060 1 -1
0.0423255990 -0.0698031400 1 -1
0.0409658250 -0.0693958940 1 -1
0.0398210860 -0.0689381020 1 -1
0.0390868490 -0.0684093330 1 -1
0.0389859690 -0.0677994710 1 -1
0.0396935540 -0.0671157550 1 -1
0.0412593570 -0.0663840100 1 -1
0.0435792560 -0.0656432980 1 -1
0.0464163900 -0.0649373390 1 -1
0.0494407480 -0.0643054380 1 -1
0.0522767990 -0.0637736850 1 -1
0.0545665300 -0.0633493090 1 -1
0.0560326880 -0.0630229150 1 -1
0.0565130480 -0.0627797930 1 -1
0.0559567820 -0.0626150350 1 -1
0.0543971860 -0.0625418390 1 -1
0.0519288060 -0.0625849240 1 -1
0.0487098990 -0.0627640640 1 -1
0.0449759610 -0.0630816360 1 -1
0.0410320970 -0.0635209680 1 -1
0.0372145490 -0.0640505020 1 -1
0.0338369860 -0.0646280910 1 -1
0.0311445380 -0.0652057250 1 -1
0.0292923090 -0.0657359620 0 -1
0.0283445030 -0.0661786580 0 -1
0.0282764970 -0.0665074610 0 -1
0.0289788550 -0.0667169470 0 -1
0.0302815570 -0.0668284560 1 -1
0.0319943670 -0.0668891640 1 -1
0.0339247500 -0.0669605750 1 -1
0.0358575440 -0.0670993870 1 -1
0.0375373050 -0.0673389630 1 -1
0.0386990370 -0.0676789910 1 -1
0.0391378540 -0.0680877220 1 -1
0.0387629930 -0.0685167270 1 -1
0.0376007260 -0.0689208390 1 -1
0.0357679880 -0.0692716800 1 -1
0.0334560870 -0.0695569390 1 -1
0.0309241610 -0.0697671060 1 -1
0.0284719320 -0.0698801170 0 -1
0.0263840870 -0.0698551680 0 -1
0.0248750410 -0.0696394190 0 -1
0.0240605630 -0.0691828480 0 -1
0.0239572320 -0.0684539980 0 -1
0.0245009920 -0.0674511910 0 -1
0.0255774150 -0.0662048610 0 -1
0.0270568430 -0.0647703420 0 -1
0.0288274660 -0.0632173200 0 -1
0.0308147400 -0.0616219020 1 -1
0.0329742680 -0.0600591300 1 -1
0.0352606130 -0.0585928960 1 -1
0.0375971490 -0.0572684820 1 -1
0.0398720850 -0.0561150750 1 -1
0.0419561080 -0.0551567960 1 -1
0.0437164570 -0.0544230010 1 -1
0.0450157840 -0.0539500700 1 -1
0.0457066270 -0.0537747150 1 -1
0.0456362320 -0.0539243850 1 -1
0.0446670750 -0.0544086300 1 -1
0.0427167710 -0.0552120830 1 -1
0.0398193110 -0.0562910260 1 -1
0.0361835650 -0.0575766390 1 -1
0.0322018310 -0.0589832790 1 -1
0.0283829750 -0.0604157640 0 -1
0.0252326650 -0.0617736900 0 -1
0.0231338230 -0.0629571480 0 -1
0.0222771110 -0.0638774910 0 -1
0.0226578630 -0.0644714730 0 -1
0.0241177370 -0.0647135150 0 -1
0.0263986590 -0.0646208150 0 -1
0.0291921850 -0.0642482260 0 -1
0.0321843760 -0.0636740720 1 -1
0.0351018410 -0.0629842590 1 -1
0.0377517430 -0.0622640240 1 -1
0.0400275670 -0.0615980710 1 -1
0.0418689210 -0.0610701460 1 -1
0.0432141230 -0.0607556210 1 -1
0.0439921400 -0.0607099770 1 -1
0.0441543960 -0.0609589200 1 -1
0.0437154030 -0.0614926130 1 -1
0.0427714190 -0.0622651210 1 -1
0.0414744350 -0.0632004440 1 -1
0.0399723060 -0.0642043300 1 -1
0.0383722460 -0.0651765170 1 -1
0.0367631060 -0.0660171850 1 -1
0.0352559770 -0.0666294010 1 -1
0.0339869090 -0.0669284730 1 -1
0.0330765120 -0.0668629320 1 -1
0.0325799850 -0.0664354410 1 -1
0.0324678070 -0.0657078470 1 -1
0.0326535080 -0.0647868400 1 -1
0.0330390880 -0.0637983270 1 -1
0.0335362140 -0.0628609500 1 -1
0.0340565810 -0.0620660850 1 -1
0.0344954880 -0.0614680130 1 -1
0.0347326020 -0.0610850470 1 -1
0.0346546120 -0.0609087940 1 -1
0.0341856500 -0.0609147520 1 -1
0.0333096640 -0.0610683270 1 -1
0.0320744620 -0.0613271890 1 -1
0.0305731100 -0.0616453480 1 -1
0.0289145000 -0.0619801950 0 -1
0.0272025200 -0.0622963300 0 -1
0.0255308830 -0.0625617620 0 -1
0.0239932220 -0.0627442410 0 -1
0.0227028900 -0.0628190740 0 -1
0.0218011130 -0.0627844800 0 -1
0.0214347480 -0.0626679640 0 -1
0.0217150910 -0.0625166800 0 -1
0.0226851030 -0.0623800460 0 -1
0.0243043020 -0.0622953330 0 -1
0.0264436240 -0.0622822800 0 -1
0.0288916090 -0.0623467350 0 -1
0.0313855040 -0.0624856570 1 -1
0.0336720260 -0.0626860110 1 -1
0.0355781770 -0.0629205170 1 -1
0.0370482690 -0.0631485720 1 -1
0.0381090590 -0.0633243670 1 -1
0.0387828500 -0.0634072140 1 -1
0.0390265390 -0.0633689450 1 -1
0.0387554440 -0.0631963310 1 -1
0.0379312960 -0.0628893070 1 -1
0.0366412710 -0.0624578620 1 -1
0.0351098360 -0.0619202620 1 -1
0.0336368860 -0.0613017350 1 -1
0.0325031130 -0.0606303190 1 -1
0.0319000600 -0.0599305620 1 -1
0.0319127700 -0.0592209150 1 -1
0.0325351720 -0.0585172570 1 -1
0.0336854730 -0.0578376760 1 -1
0.0352144030 -0.0572040070 1 -1
0.0369204470 -0.0566403360 1 -1
0.0385820270 -0.0561688150 1 -1
0.0400020710 -0.0558028000 1 -1
0.0410460990 -0.0555417070 1 -1
0.0416466850 -0.0553731880 1 -1
0.0417681960 -0.0552812240 1 -1
0.0413676960 -0.0552531240 1 -1
0.0403954970 -0.0552814330 1 -1
0.0388361550 -0.0553621570 1 -1
0.0367498870 -0.0554907210 1 -1
0.0342824570 -0.0556556710 1 -1
0.0316488680 -0.0558322110 1 -1
0.0291079540 -0.0559800940 0 -1
0.0269273550 -0.0560494560 0 -1
0.0253367330 -0.0559933960 0 -1
0.0244890400 -0.0557803790 0 -1
0.0244501290 -0.0553999210 0 -1
0.0252038820 -0.0548612330 0 -1
0.0266453860 -0.0541875920 0 -1
0.0285670650 -0.0534083260 0 -1
0.0306752170 -0.0525521210 1 -1
0.0326561040 -0.0516466890 1 -1
0.0342616460 -0.0507244720 1 -1
0.0353640300 -0.0498279440 1 -1
0.0359548960 -0.0490086090 1 -1
0.0361046130 -0.0483187910 1 -1
0.0359146880 -0.0477993380 1 -1
0.0354850150 -0.0474674810 1 -1
0.0349015210 -0.0473081070 1 -1
0.0342432460 -0.0472727370 1 -1
0.0335956060 -0.0472923070 1 -1
0.0330489700 -0.0473024920 1 -1
0.0326820750 -0.0472665920 1 -1
0.0325475650 -0.0471810260 1 -1
0.0326668240 -0.0470652070 1 -1
0.0330323380 -0.0469478220 1 -1
0.0336151940 -0.0468546700 1 -1
0.0343649450 -0.0467959410 1 -1
0.0351906270 -0.0467555050 1 -1
0.0359427960 -0.0466909830 1 -1
0.0364314900 -0.0465473620 1 -1
0.0364804290 -0.0462745990 1 -1
0.0359830220 -0.0458382660 1 -1
0.0349350650 -0.0452222160 1 -1
0.0334383430 -0.0444286420 1 -1
0.0316726720 -0.0434776270 1 -1
0.0298477540 -0.0424029610 0 -1
0.0281666680 -0.0412424060 0 -1
0.0268197970 -0.0400270530 0 -1
0.0259878940 -0.0387768530 0 -1
0.0258172550 -0.0375040550 0 -1
0.0263592800 -0.0362190090 0 -1
0.0275109900 -0.0349311330 0 -1
0.0290072280 -0.0336433820 0 -1
0.0304819420 -0.0323455420 1 -1
0.0315722530 -0.0310135340 1 -1
0.0320249880 -0.0296172370 1 0
0.0317669240 -0.0281324090 1 0
0.0309072040 -0.0265490490 1 0
0.0296722650 -0.0248720460 0 0
0.0283132320 -0.0231161880 0 0
0.0270345960 -0.0213003790 0 0
0.0259687950 -0.0194443860 0 0
0.0251879950 -0.0175682330 0 0
0.0247266680 -0.0156915590 0 0
0.0245943960 -0.0138304040 0 0
0.0247749520 -0.0119917110 0 0
0.0252216230 -0.0101675100 0 0
0.0258617430 -0.0083308200 0 0
0.0266144790 -0.0064358930 0 0
0.0274168530 -0.0044251620 0 0
0.0282463050 -0.0022424020 0 0
0.0291181610 0.0001515850 0 0
0.0300456130 0.0027662920 1 0
0.0309913300 0.0055771110 1 0
0.0318595830 0.0085320170 1 0
0.0325374400 0.0115668760 1 0
0.0329478170 0.0146221020 1 0
0.0330767150 0.0176540030 1 0
0.0329614700 0.0206394300 1 0
0.0326534270 0.0235765320 1 0
0.0321873050 0.0264841590 1 0
0.0315774820 0.0293986090 1 0
0.0308290320 0.0323639100 1 1
0.0299464870 0.0354159850 0 1
0.0289449500 0.0385684780 0 1
0.0278700180 0.0418083630 0 1
0.0268118350 0.0451010080 0 1
0.0258924390 0.0483994570 0 1
0.0252297650 0.0516553720 0 1
0.0249079600 0.0548293560 0 1
0.0249736090 0.0578954070 0 1
0.0254435190 0.0608380330 0 1
0.0263022360 0.0636478940 0 1
0.0274927400 0.0663217110 0 1
0.0289193330 0.0688653620 0 1
0.0304654240 0.0712949600 1 1
0.0320102260 0.0736326870 1 1
0.0334375990 0.0758983100 1 1
0.0346460640 0.0781004040 1 1
0.0355628120 0.0802312430 1 1
0.0361526730 0.0822665190 1 1
0.0364154380 0.0841689140 1 1
0.0363736950 0.0858953380 1 1
0.0360605130 0.0874083310 1 1
0.0355171810 0.0886877990 1 1
0.0347958320 0.0897339350 1 1
0.0339514460 0.0905571180 1 1
0.0330295240 0.0911628830 1 1
0.0320715670 0.0915437050 1 1
0.0311335490 0.0916810740 1 1
0.0302901750 0.0915534900 1 1
0.0296162570 0.0911458020 0 1
0.0291603370 0.0904580470 0 1
0.0289283320 0.0895125680 0 1
0.0288844360 0.0883572150 0 1
0.0289660230 0.0870626940 0 1
0.0291047440 0.0857142710 0 1
0.0292387980 0.0843993200 0 1
0.0292984270 0.0831905770 0 1
0.0291753430 0.0821263420 0 1
0.0287249490 0.0811980640 0 1
0.0278307530 0.0803576510 0 1
0.0264876030 0.0795409360 0 1
0.0248290070 0.0786910970 0 1
0.0230776700 0.0777724700 0 1
0.0214640400 0.0767749590 0 1
0.0201611200 0.0757103050 0 1
0.0192503050 0.0746012900 0 1
0.0187203400 0.0734683360 0 1
0.0185019620 0.0723201860 0 1
0.0185221470 0.0711521700 0 1
0.0187467350 0.0699496550 0 1
0.0191935600 0.0686922510 0 1
0.0199147280 0.0673568740 0 1
0.0209539240 0.0659207720 0 1
0.0223021010 0.0643664800 0 1
0.0238869380 0.0626880150 0 1
0.0256028210 0.0608945180 0 1
0.0273456570 0.0590094110 0 1
0.0290179060 0.0570673020 0 1
0.0305098890 0.0551109320 1 1
0.0316889330 0.0531869600 1 1
0.0324123620 0.0513381870 1 1
0.0325539480 0.0495939940 1 1
0.0320280910 0.0479650530 1 1
0.0308042030 0.0464455560 1 1
0.0289141990 0.0450184030 0 1
0.0264638690 0.0436578510 0 1
0.0236476860 0.0423317060 0 1
0.0207454250 0.0410081800 0 1
0.0180833490 0.0396664310 0 1
0.0159706660 0.0383047630 0 1
0.0146408400 0.0369419640 0 1
0.0142238880 0.0356113180 0 1
0.0147559290 0.0343496220 0 1
0.0162053710 0.0331849480 0 1
0.0184815510 0.0321272060 0 1
0.0214143680 0.0311646930 0 1
0.0247337550 0.0302679930 0 1
0.0280836970 0.0293999170 0 0
0.0310734610 0.0285265460 1 0
0.0333463640 0.0276234360 1 0
0.0346465510 0.0266754890 1 0
0.0348639680 0.0256739800 1 0
0.0340409260 0.0246144260 1 0
0.0323419610 0.0234954150 1 0
0.0300053520 0.0223159430 1 0
0.0272977030 0.0210711570 0 0
0.0244876150 0.0197509060 0 0
0.0218370240 0.0183448520 0 0
0.0195920190 0.0168519350 0 0
0.0179631460 0.0152879250 0 0
0.0171018450 0.0136865090 0 0
0.0170806100 0.0120940150 0 0
0.0178837550 0.0105610960 0 0
0.0194151870 0.0091350180 0 0
0.0215162360 0.0078543840 0 0
0.0239818780 0.0067458860 0 0
0.0265789890 0.0058214120 0 0
0.0290735420 0.0050754290 0 0
0.0312588850 0.0044848290 1 0
0.0329730690 0.0040130620 1 0
0.0341020820 0.0036182030 1 0
0.0345773760 0.0032617970 1 0
0.0343823920 0.0029125420 1 0
0.0335678910 0.0025414440 1 0
0.0322551720 0.0021139390 1 0
0.0306158810 0.0015882030 1 0
0.0288422310 0.0009222680 0 0
0.0271233070 0.0000854793 0 0
0.0256281070 -0.0009313690 0 0
0.0244906730 -0.0021118100 0 0
0.0237981310 -0.0034173830 0 0
0.0235855500 -0.0047965200 0 0
0.0238384770 -0.0061929480 0 0
0.0245004010 -0.0075498400 0 0
0.0254837410 -0.0088112310 0 0
0.0266860280 -0.0099256040 0 0
0.0280080940 -0.0108534450 0 0
0.0293634620 -0.0115744730 0 0
0.0306732160 -0.0120894580 1 0
0.0318539300 -0.0124165420 1 0
0.0328123020 -0.0125854610 1 0
0.0334561810 -0.0126328040 1 0
0.0337189710 -0.0126002190 1 0
0.0335811510 -0.0125347430 1 0
0.0330766150 -0.0124868400 1 0
0.0322871840 -0.0125033330 1 0
0.0313323150 -0.0126192700 1 0
0.0303549800 -0.0128544060 1 0
0.0295030530 -0.0132142100 0 0
0.0289063990 -0.0136914250 0 0
0.0286545910 -0.0142670570 0 0
0.0287849340 -0.0149130300 0 0
0.0292803480 -0.0155964770 0 0
0.0300681680 -0.0162825200 1 0
0.0310229880 -0.0169348120 1 0
0.0319833840 -0.0175169800 1 0
0.0327798980 -0.0179968320 1 0
0.0332638580 -0.0183516490 1 0
0.0333291670 -0.0185715330 1 0
0.0329222380 -0.0186593280 1 0
0.0320413240 -0.0186284150 1 0
0.0307335260 -0.0185012720 1 0
0.0290940950 -0.0183098400 0 0
0.0272631030 -0.0180952030 0 0
0.0254135970 -0.0179035950 0 0
0.0237318870 -0.0177794200 0 0
0.0223940290 -0.0177590020 0 0
0.0215423850 -0.0178674540 0 0
0.0212670220 -0.0181177370 0 0
0.0215972840 -0.0185096950 0 0
0.0225055770 -0.0190284720 0 0
0.0239202590 -0.0196441070 0 0
0.0257407730 -0.0203145490 0 0
0.0278473970 -0.0209921340 0 0
0.0301033880 -0.0216315740 1 0
0.0323553780 -0.0221973290 1 0
0.0344384170 -0.0226684590 1 0
0.0361859720 -0.0230396650 1 0
0.0374434630 -0.0233189890 1 0
0.0380861030 -0.0235241140 1 0
0.0380394670 -0.0236788130 1 0
0.0372967590 -0.0238096940 1 0
0.0359273310 -0.0239425170 1 0
0.0340721390 -0.0240978040 1 0
0.0319223560 -0.0242864610 1 0
0.0296856700 -0.0245066020 0 0
0.0275540090 -0.0247422940 0 0
0.0256833630 -0.0249646980 0 0
0.0241860920 -0.0251364810 0 0
0.0231321550 -0.0252200700 0 0
0.0225572840 -0.0251882310 0 0
0.0224737990 -0.0250329570 0 0
0.0228765520 -0.0247681820 0 0
0.0237407340 -0.0244254090 0 0
0.0250130870 -0.0240462490 0 0
0.0265995120 -0.0236766960 0 0
0.0283572770 -0.0233634570 0 0
0.0301034000 -0.0231495490 1 0
0.0316419310 -0.0230685600 1 0
0.0327996400 -0.0231404780 1 0
0.0334564000 -0.0233719650 1 0
0.0335626140 -0.0237602660 1 0
0.0331418580 -0.0242966130 1 0
0.0322801390 -0.0249661190 1 0
0.0311062310 -0.0257453800 1 0
0.0297692460 -0.0266010500 0 0
0.0284203530 -0.0274911030 0 0
0.0272040030 -0.0283685840 0 0
0.0262558250 -0.0291877840 0 0
0.0256967330 -0.0299122940 0 0
0.0256177150 -0.0305210230 0 -1
0.0260614190 -0.0310068730 0 -1
0.0270101730 -0.0313679930 0 -1
0.0283841420 -0.0315980550 0 -1
0.0300476650 -0.0316823230 1 -1
0.0318218810 -0.0316016390 1 -1
0.0335043350 -0.0313419510 1 -1
0.0348943160 -0.0309051070 1 -1
0.0358183800 -0.0303162470 1 -1
0.0361512590 -0.0296237400 1 0
0.0358311740 -0.0288906410 1 0
0.0348687720 -0.0281820740 1 0
0.0333475850 -0.0275549140 1 0
0.0314154370 -0.0270526150 1 0
0.0292685710 -0.0267035790 0 0
0.0271308390 -0.0265202620 0 0
0.0252308980 -0.0264980910 0 0
0.0237796680 -0.0266159920 0 0
0.0229464190 -0.0268400370 0 0
0.0228319620 -0.0271284650 0 0
0.0234455980 -0.0274350390 0 0
0.0246980020 -0.0277105390 0 0
0.0264169700 -0.0279046580 0 0
0.0283820220 -0.0279697750 0 0
0.0303645990 -0.0278663610 1 0
0.0321585950 -0.0275694520 1 0
0.0335942720 -0.0270755930 1 0
0.0345409710 -0.0264084860 1 0
0.0349085290 -0.0256207010 1 0
0.0346512830 -0.0247893360 1 0
0.0337708540 -0.0240052010 1 0
0.0323131990 -0.0233574020 1 0
0.0303614390 -0.0229173840 1 0
0.0280309580 -0.0227273310 0 0
0.0254699970 -0.0227967810 0 0
0.0228608310 -0.0231074060 0 0
0.0204121730 -0.0236217620 0 0
0.0183370410 -0.0242911930 0 0
0.0168207150 -0.0250613750 0 0
0.0159920850 -0.0258777340 0 0
0.0159092210 -0.0266926550 0 0
0.0165592890 -0.0274719240 0 0
0.0178664400 -0.0281960670 0 0
0.0197021870 -0.0288568480 0 0
0.0218970410 -0.0294535210 0 0
0.0242553190 -0.0299917230 0 0
0.0265730380 -0.0304829510 0 -1
0.0286547360 -0.0309409050 0 -1
0.0303271910 -0.0313747300 1 -1
0.0314523870 -0.0317837110 1 -1
0.0319402780 -0.0321572490 1 -1
0.0317579800 -0.0324797270 1 -1
0.0309319830 -0.0327371770 1 -1
0.0295414810 -0.0329220890 0 -1
0.0277040080 -0.0330335060 0 -1
0.0255613270 -0.0330725330 0 -1
0.0232745930 -0.0330372300 0 -1
0.0210252820 -0.0329219500 0 -1
0.0190079380 -0.0327222760 0 -1
0.0174091040 -0.0324407800 0 -1
0.0163821220 -0.0320873900 0 -1
0.0160297580 -0.0316741680 0 -1
0.0163953350 -0.0312104810 0 -1
0.0174555300 -0.0307032620 0 -1
0.0191134700 -0.0301615620 0 -1
0.0211989160 -0.0296015780 0 0
0.0234828800 -0.0290492470 0 0
0.0257079360 -0.0285399270 0 0
0.0276265620 -0.0281159070 0 0
0.0290343290 -0.0278215280 0 0
0.0297893620 -0.0276956810 0 0
0.0298194670 -0.0277636860 0 0
0.0291236430 -0.0280312580 0 0
0.0277726230 -0.0284817630 0 0
0.0259064530 -0.0290774600 0 0
0.0237235320 -0.0297654150 0 0
0.0214588520 -0.0304870880 0 -1
0.0193533910 -0.0311886600 0 -1
0.0176189160 -0.0318287810 0 -1
0.0164073910 -0.0323818530 0 -1
0.0157983530 -0.0328367420 0 -1
0.0158100390 -0.0331924220 0 -1
0.0164216140 -0.0334537950 0 -1
0.0175851130 -0.0336314340 0 -1
0.0192197670 -0.0337451810 0 -1
0.0212013270 -0.0338262420 0 -1
0.0233621050 -0.0339125040 0 -1
0.0255063840 -0.0340380910 0 -1
0.0274351460 -0.0342236410 0 -1
0.0289706040 -0.0344723560 0 -1
0.0299747130 -0.0347718660 0 -1
0.0303618000 -0.0350991030 1 -1
0.0301075730 -0.0354258210 1 -1
0.0292547440 -0.0357232160 0 -1
0.0279120700 -0.0359645440 0 -1
0.0262417600 -0.0361262330 0 -1
0.0244335490 -0.0361895040 0 -1
0.0226730300 -0.0361428090 0 -1
0.0211182410 -0.0359827830 0 -1
0.0198921800 -0.0357123910 0 -1
0.0190852880 -0.0353382620 0 -1
0.0187562990 -0.0348700660 0 -1
0.0189265530 -0.0343221440 0 -1
0.0195718030 -0.0337147800 0 -1
0.0206187060 -0.0330730210 0 -1
0.0219500600 -0.0324240350 0 -1
0.0234164640 -0.0317956390 0 -1
0.0248492880 -0.0312173360 0 -1
0.0260748960 -0.0307218120 0 -1
0.0269348720 -0.0303430160 0 -1
0.0273119660 -0.0301097740 0 -1
0.0271522980 -0.0300382950 0 -1
0.0264732830 -0.0301272600 0 -1
0.0253556110 -0.0303569980 0 -1
0.0239265780 -0.0306932580 0 -1
0.0223424130 -0.0310946350 0 -1
0.0207717040 -0.0315209280 0 -1
0.0193793030 -0.0319392610 0 -1
0.0183115340 -0.0323258870 0 -1
0.0176843290 -0.0326638030 0 -1
0.0175748440 -0.0329387860 0 -1
0.0180159160 -0.0331371600 0 -1
0.0189916240 -0.0332468360 0 -1
0.0204337860 -0.0332606340 0 -1
0.0222244810 -0.0331797670 0 -1
0.0242093850 -0.0330161650 0 -1
0.0262177430 -0.0327931600 0 -1
0.0280808320 -0.0325439320 0 -1
0.0296474540 -0.0323073200 0 -1
0.0307990560 -0.0321215460 1 -1
0.0314627910 -0.0320177960 1 -1
0.0316183150 -0.0320160210 1 -1
0.0312972320 -0.0321232850 1 -1
0.0305758190 -0.0323334160 1 -1
0.0295611880 -0.0326277310 0 -1
0.0283732100 -0.0329771180 0 -1
0.0271263320 -0.0333451780 0 -1
0.0259148570 -0.0336925290 0 -1
0.0248054630 -0.0339819270 0 -1
0.0238392380 -0.0341828970 0 -1
0.0230403570 -0.0342750610 0 -1
0.0224247520 -0.0342501610 0 -1
0.0220031740 -0.0341124730 0 -1
0.0217778490 -0.0338774750 0 -1
0.0217364680 -0.0335700920 0 -1
0.0218469480 -0.0332235860 0 -1
0.0220545390 -0.0328776140 0 -1
0.0222846050 -0.0325730590 0 -1
0.0224535220 -0.0323448160 0 -1
0.0224830490 -0.0322169990 0 -1
0.0223110000 -0.0322027110 0 -1
0.0218979840 -0.0323058450 0 -1
0.0212348680 -0.0325216800 0 -1
0.0203502250 -0.0328364760 0 -1
0.0193102300 -0.0332285060 0 -1
0.0182074400 -0.0336711820 0 -1
0.0171441920 -0.0341365370 0 -1
0.0162183730 -0.0345975120 0 -1
0.0155143290 -0.0350291190 0 -1
0.0150974640 -0.0354091580 0 -1
0.0150110520 -0.0357186260 0 -1
0.0152753740 -0.0359415290 0 -1
0.0158880440 -0.0360645910 0 -1
0.0168219110 -0.0360782070 0 -1
0.0180205370 -0.0359791860 0 -1
0.0193975790 -0.0357742910 0 -1
0.0208445040 -0.0354833240 0 -1
0.0222431630 -0.0351408910 0 -1
0.0234772630 -0.0347954450 0 -1
0.0244415600 -0.0345036430 0 -1
0.0250504510 -0.0343201420 0 -1
0.0252459650 -0.0342866220 0 -1
0.0250048280 -0.0344244630 0 -1
0.0243457280 -0.0347321320 0 -1
0.0233362120 -0.0351857490 0 -1
0.0220939750 -0.0357421450 0 -1
0.0207764670 -0.0363450320 0 -1
0.0195588290 -0.0369338040 0 -1
0.0186067650 -0.0374528080 0 -1
0.0180520750 -0.0378584440 0 -1
0.0179757260 -0.0381224060 0 -1
0.0183994230 -0.0382313850 0 -1
0.0192848690 -0.0381852860 0 -1
0.0205402030 -0.0379956210 0 -1
0.0220317370 -0.0376838760 0 -1
0.0235982100 -0.0372792170 0 -1
0.0250677260 -0.0368162360 0 -1
0.0262789060 -0.0363339240 0 -1
0.0271038920 -0.0358752950 0 -1
0.0274674330 -0.0354850960 0 -1
0.0273569350 -0.0352040090 0 -1
0.0268208390 -0.0350607910 0 -1
0.0259553450 -0.0350650110 0 -1
0.0248830200 -0.0352025730 0 -1
0.0237308810 -0.0354357680 0 -1
0.0226156490 -0.0357085290 0 -1
0.0216385570 -0.0359558250 0 -1
0.0208864090 -0.0361148760 0 -1
0.0204327600 -0.0361356550 0 -1
0.0203333980 -0.0359887160 0 -1
0.0206154080 -0.0356692390 0 -1
0.0212661810 -0.0351967520 0 -1
0.0222300220 -0.0346102330 0 -1
0.0234139680 -0.0339593680 0 -1
0.0247001920 -0.0332946700 0 -1
0.0259627140 -0.0326595890 0 -1
0.0270845590 -0.0320858420 0 -1
0.0279688960 -0.0315915000 0 -1
0.0285417540 -0.0311813220 0 -1
0.0287514260 -0.0308491950 0 -1
0.0285702040 -0.0305822190 0 -1
0.0279971300 -0.0303650270 0 -1
0.0270578660 -0.0301824070 0 -1
0.0258031490 -0.0300198490 0 -1
0.0243084070 -0.0298638820 0 0
0.0226715770 -0.0297032620 0 0
0.0210065640 -0.0295300780 0 0
0.0194356740 -0.0293402250 0 0
0.0180832980 -0.0291342530 0 0
0.0170673530 -0.0289192310 0 0
0.0164856880 -0.0287099630 0 0
0.0164009010 -0.0285272460 0 0
0.0168300900 -0.0283934630 0 0
0.0177422600 -0.0283285610 0 0
0.0190599750 -0.0283488940 0 0
0.0206625400 -0.0284681900 0 0
0.0223947680 -0.0286977330 0 0
0.0240864690 -0.0290444690 0 0
0.0255792240 -0.0295085410 0 0
0.0267489320 -0.0300817880 0 -1
0.0275151570 -0.0307471330 0 -1
0.0278388300 -0.0314788570 0 -1
0.0277160470 -0.0322441780 0 -1
0.0271725220 -0.0330057820 0 -1
0.0262588070 -0.0337248160 0 -1
0.0250455680 -0.0343647180 0 -1
0.0236195470 -0.0348961290 0 -1
0.0220819330 -0.0353013790 0 -1
0.0205481390 -0.0355758480 0 -1
0.0191425220 -0.0357255300 0 -1
0.0179824540 -0.0357632280 0 -1
0.0171562480 -0.0357057970 0 -1
0.0167067710 -0.0355721410 0 -1
0.0166282650 -0.0353807800 0 -1
0.0168740750 -0.0351477560 0 -1
0.0173681090 -0.0348866510 0 -1
0.0180147780 -0.0346104650 0 -1
0.0187071380 -0.0343330170 0 -1
0.0193368590 -0.0340685010 0 -1
0.0198074360 -0.0338300000 0 -1
0.0200459800 -0.0336284050 0 -1
0.0200100710 -0.0334720710 0 -1
0.0196929410 -0.0333666400 0 -1
0.0191303480 -0.0333143830 0 -1
0.0184051330 -0.0333131900 0 -1
0.0176417910 -0.0333560850 0 -1
0.0169882510 -0.0334321740 0 -1
0.0165898030 -0.0335288620 0 -1
0.0165628540 -0.0336337450 0 -1
0.0169734980 -0.0337345530 0 -1
0.0178244210 -0.0338173090 0 -1
0.0190544190 -0.0338652410 0 -1
0.0205511630 -0.0338610450 0 -1
0.0221707770 -0.0337917740 0 -1
0.0237570760 -0.0336527750 0 -1
0.0251585300 -0.0334483130 0 -1
0.0262437100 -0.0331898310 0 -1
0.0269147100 -0.0328943910 0 -1
0.0271167600 -0.0325848280 0 -1
0.0268420400 -0.0322909120 0 -1
0.0261273020 -0.0320490590 0 -1
0.0250474780 -0.0318986840 0 -1
0.0237075160 -0.0318757090 0 -1
0.0222320970 -0.0320055260 0 -1
0.0207522100 -0.0322976990 0 -1
0.0193907210 -0.0327438110 0 -1
0.0182511030 -0.0333182920 0 -1
0.0174106010 -0.0339812210 0 -1
0.0169165130 -0.0346828570 0 -1
0.0167853800 -0.0353698750 0 -1
0.0170052960 -0.0359923350 0 -1
0.0175398140 -0.0365097670 0 -1
0.0183320670 -0.0368949620 0 -1
0.0193099090 -0.0371350640 0 -1
0.0203928770 -0.0372305870 0 -1
0.0214990820 -0.0371935030 0 -1
0.0225491810 -0.0370456110 0 -1
0.0234669450 -0.0368173890 0 -1
0.0241789900 -0.0365462840 0 -1
0.0246175500 -0.0362732410 0 -1
0.0247280130 -0.0360372040 0 -1
0.0244793540 -0.0358690900 0 -1
0.0238738040 -0.0357875360 0 -1
0.0229529250 -0.0357970960 0 -1
0.0217986260 -0.0358882740 0 -1
0.0205272970 -0.0360393490 0 -1
0.0192744690 -0.0362198880 0 -1
0.0181712120 -0.0363948120 0 -1
0.0173208850 -0.0365280400 0 -1
0.0167865410 -0.0365862180 0 -1
0.0165919310 -0.0365440060 0 -1
0.0167307960 -0.0363902260 0 -1
0.0171763690 -0.0361307650 0 -1
0.0178852650 -0.0357853840 0 -1
0.0187956150 -0.0353804910 0 -1
0.0198247130 -0.0349423850 0 -1
0.0208717530 -0.0344940770 0 -1
0.0218267420 -0.0340559150 0 -1
0.0225821900 -0.0336473370 0 -1
0.0230443770 -0.0332867470 0 -1
0.0231447540 -0.0329890650 0 -1
0.0228521040 -0.0327628600 0 -1
0.0221805510 -0.0326091260 0 -1
0.0211862910 -0.0325222320 0 -1
0.0199534340 -0.0324916800 0 -1
0.0185783370 -0.0325029720 0 -1
0.0171601130 -0.0325377110 0 -1
0.0157969010 -0.0325744980 0 -1
0.0145849650 -0.0325913400 0 -1
0.0136174950 -0.0325686290 0 -1
0.0129776200 -0.0324912770 0 -1
0.0127242540 -0.0323491720 0 -1
0.0128782750 -0.0321365080 0 -1
0.0134171100 -0.0318517570 0 -1
0.0142785460 -0.0314993820 0 -1
0.0153699080 -0.0310925210 0 -1
0.0165783170 -0.0306551410 0 -1
0.0177797790 -0.0302222880 0 -1
0.0188486520 -0.0298369180 0 0
0.0196705740 -0.0295424200 0 0
0.0201583250 -0.0293724930 0 0
0.0202649000 -0.0293426380 0 0
0.0199880830 -0.0294470720 0 0
0.0193668870 -0.0296620040 0 0
0.0184747570 -0.0299536260 0 0
0.0174122290 -0.0302876440 0 -1
0.0162970710 -0.0306358310 0 -1
0.0152496930 -0.0309761470 0 -1
0.0143763110 -0.0312879960 0 -1
0.0137562700 -0.0315483690 0 -1
0.0134377140 -0.0317325770 0 -1
0.0134391300 -0.0318187080 0 -1
0.0137507940 -0.0317932550 0 -1
0.0143337000 -0.0316555110 0 -1
0.0151194100 -0.0314186950 0 -1
0.0160152140 -0.0311075530 0 -1
0.0169150000 -0.0307544050 0 -1
0.0177120380 -0.0303955620 0 -1
0.0183081620 -0.0300682900 0 -1
0.0186169890 -0.0298071900 0 0
0.0185667270 -0.0296388620 0 0
0.0181113730 -0.0295758400 0 0
0.0172500570 -0.0296136240 0 0
0.0160419590 -0.0297337620 0 0
0.0146038440 -0.0299108830 0 0
0.0130892450 -0.0301185020 0 -1
0.0116599020 -0.0303310190 0 -1
0.0104619540 -0.0305231670 0 -1
0.0096129630 -0.0306690350 0 -1
0.0091978660 -0.0307423610 0 -1
0.0092678970 -0.0307192360 0 -1
0.0098376740 -0.0305825550 0 -1
0.0108803030 -0.0303256780 0 -1
0.0123240660 -0.0299533970 0 0
0.0140541950 -0.0294804090 0 0
0.0159210900 -0.0289289700 0 0
0.0177544470 -0.0283272240 0 0
0.0193816700 -0.0277083400 0 0
0.0206477110 -0.0271091530 0 0
0.0214326120 -0.0265671480 0 0
0.0216645350 -0.0261160250 0 0
0.0213283880 -0.0257812740 0 0
0.0204700570 -0.0255776040 0 0
0.0191937360 -0.0255093640 0 0
0.0176489980 -0.0255732220 0 0
0.0160083630 -0.0257610390 0 0
0.0144421930 -0.0260611410 0 0
0.0130996940 -0.0264577540 0 0
0.0121000370 -0.0269301330 0 0
0.0115286980 -0.0274527900 0 0
0.0114308800 -0.0279965780 0 0
0.0118026500 -0.0285295620 0 0
0.0125889830 -0.0290179830 0 0
0.0136927000 -0.0294289410 0 0
0.0149883250 -0.0297349430 0 0
0.0163360610 -0.0299179660 0 0
0.0175979970 -0.0299714900 0 0
0.0186566290 -0.0299017600 0 0
0.0194274630 -0.0297294370 0 0
0.0198590710 -0.0294898570 0 0
0.0199254400 -0.0292290550 0 0
0.0196200210 -0.0289953760 0 0
0.0189551750 -0.0288298210 0 0
0.0179655580 -0.0287590570 0 0
0.0167126000 -0.0287929410 0 0
0.0152868860 -0.0289260160 0 0
0.0138062680 -0.0291412950 0 0
0.0124087550 -0.0294145790 0 0
0.0112391240 -0.0297181400 0 0
0.0104289720 -0.0300235220 0 -1
0.0100729300 -0.0303036690 0 -1
0.0102086440 -0.0305343490 0 -1
0.0108094950 -0.0306950500 0 -1
0.0117926020 -0.0307697800 0 -1
0.0130364170 -0.0307477700 0 -1
0.0143996880 -0.0306240230 0 -1
0.0157378250 -0.0304003950 0 -1
0.0169169750 -0.0300877660 0 -1
0.0178254110 -0.0297083870 0 0
0.0183810890 -0.0292962740 0 0
0.0185367430 -0.0288944110 0 0
0.0182829440 -0.0285496600 0 0
0.0176463630 -0.0283074210 0 0
0.0166835420 -0.0282068960 0 0
0.0154754690 -0.0282762210 0 0
0.0141252620 -0.0285275700 0 0
0.0127547700 -0.0289547840 0 0
0.0114951120 -0.0295356780 0 0
0.0104705680 -0.0302374710 0 -1
0.0097801840 -0.0310214450 0 -1
0.0094832840 -0.0318445970 0 -1
0.0095932480 -0.0326596170 0 -1
0.0100800670 -0.0334161820 0 -1
0.0108792120 -0.0340649050 0 -1
0.0119032710 -0.0345627650 0 -1
0.0130539980 -0.0348784140 0 -1
0.0142341600 -0.0349962760 0 -1
0.0153574550 -0.0349184650 0 -1
0.0163526570 -0.0346638380 0 -1
0.0171617130 -0.0342643900 0 -1
0.0177381060 -0.0337604010 0 -1
0.0180507100 -0.0331966570 0 -1
0.0180898930 -0.0326206640 0 -1
0.0178691890 -0.0320802390 0 -1
0.0174214770 -0.0316170670 0 -1
0.0167951760 -0.0312578360 0 -1
0.0160551600 -0.0310089870 0 -1
0.0152851330 -0.0308586690 0 -1
0.0145833920 -0.0307837040 0 -1
0.0140492910 -0.0307570620 0 -1
0.0137663640 -0.0307532600 0 -1
0.0137895470 -0.0307517380 0 -1
0.0141384820 -0.0307386850 0 -1
0.0147941060 -0.0307071640 0 -1
0.0156963960 -0.0306558950 0 -1
0.0167455320 -0.0305876160 0 -1
0.0178112090 -0.0305071580 0 -1
0.0187519430 -0.0304190140 0 -1
0.0194397640 -0.0303251150 0 -1
0.0197809250 -0.0302242550 0 -1
0.0197254560 -0.0301140720 0 -1
0.0192665150 -0.0299948340 0 0
0.0184357500 -0.0298722830 0 0
0.0172984020 -0.0297573540 0 0
0.0159478250 -0.0296635050 0 0
0.0144990360 -0.0296038070 0 0
0.0130822400 -0.0295888150 0 0
0.0118353710 -0.0296250570 0 0
0.0108916240 -0.0297136910 0 0
0.0103599130 -0.0298489900 0 0
0.0103027810 -0.0300172430 0 -1
0.0107202090 -0.0301972080 0 -1
0.0115451000 -0.0303626030 0 -1
0.0126520540 -0.0304858130 0 -1
0.0138789660 -0.0305414280 0 -1
0.0150574190 -0.0305091240 0 -1
0.0160418970 -0.0303766280 0 -1
0.0167271480 -0.0301429220 0 -1
0.0170512400 -0.0298202550 0 0
0.0169913090 -0.0294337240 0 0
0.0165608380 -0.0290185030 0 0
0.0158101690 -0.0286153820 0 0
0.0148236890 -0.0282651290 0 0
0.0137085190 -0.0280024200 0 0
0.0125789710 -0.0278508230 0 0
0.0115440990 -0.0278201340 0 0
0.0106998120 -0.0279060090 0 0
0.0101232460 -0.0280911700 0 0
0.0098684590 -0.0283479950 0 0
0.0099645260 -0.0286422280 0 0
0.0104165080 -0.0289370810 0 0
0.0112066810 -0.0291971650 0 0
0.0122928850 -0.0293918900 0 0
0.0136051220 -0.0294978340 0 0
0.0150454340 -0.0294999600 0 0
0.0164952520 -0.0293923420 0 0
0.0178299320 -0.0291792220 0 0
0.0189356300 -0.0288766730 0 0
0.0197218850 -0.0285144820 0 0
0.0201264200 -0.0281363140 0 0
0.0201154700 -0.0277951930 0 0
0.0196862180 -0.0275439220 0 0
0.0188724170 -0.0274247980 0 0
0.0177464570 -0.0274639870 0 0
0.0164115720 -0.0276717010 0 0
0.0149867120 -0.0280445940 0 0
0.0135926510 -0.0285671810 0 0
0.0123439050 -0.0292124930 0 0
0.0113436980 -0.0299436050 0 0
0.0106767510 -0.0307167240 0 -1
0.0103976000 -0.0314852180 0 -1
0.0105176420 -0.0322032330 0 -1
0.0109987500 -0.0328281060 0 -1
0.0117601840 -0.0333222240 0 -1
0.0126975220 -0.0336552940 0 -1
0.0137043140 -0.0338073110 0 -1
0.0146868590 -0.0337716110 0 -1
0.0155683010 -0.0335565810 0 -1
0.0162851230 -0.0331848780 0 -1
0.0167833120 -0.0326903130 0 -1
0.0170189830 -0.0321132840 0 -1
0.0169627130 -0.0314956830 0 -1
0.0166057550 -0.0308761190 0 -1
0.0159676540 -0.0302857810 0 -1
0.0151037100 -0.0297447430 0 0
0.0141100210 -0.0292592930 0 0
0.0131242090 -0.0288220710 0 0
0.0123179040 -0.0284166300 0 0
0.0118759310 -0.0280253840 0 0
0.0119638140 -0.0276369660 0 0
0.0126940720 -0.0272491330 0 0
0.0141021990 -0.0268666520 0 0
0.0161366170 -0.0264970710 0 0
0.0186606820 -0.0261484600 0 0
0.0214636690 -0.0258310750 0 0
0.0242806320 -0.0255614680 0 0
0.0268221140 -0.0253657070 0 0
0.0288097640 -0.0252788700 0 0
0.0300096700 -0.0253403600 1 0
0.0302576210 -0.0255874010 1 0
0.0294740170 -0.0260496010 0 0
0.0276661560 -0.0267458120 0 0
0.0249183130 -0.0276834100 0 0
0.0213756670 -0.0288601330 0 0
0.0172289910 -0.0302680250 0 -1
0.0127009330 -0.0318978260 0 -1
0.0080281730 -0.0337419680 0 -1
0.0034357910 -0.0357951450 0 -1
-0.0008898300 -0.0380524810 0 -1
-0.0048190870 -0.0405061410 0 -1
-0.0082839300 -0.0431415990 0 -1
-0.0112720210 -0.0459347050 0 -1
-0.0138153450 -0.0488511970 0 -1
-0.0159782010 -0.0518499190 0 -1
-0.0178484510 -0.0548886310 0 -1
-0.0195326710 -0.0579293620 0 -1
-0.0211516210 -0.0609410050 0 -1
-0.0228312950 -0.0638994620 0 -1
-0.0246886130 -0.0667871570 0 -1
-0.0268163740 -0.0695927830 0 -1
-0.0292743240 -0.0723105990 0 -1
-0.0320894060 -0.0749387620 -1 -1
-0.0352624870 -0.0774772100 -1 -1
-0.0387750570 -0.0799260170 -1 -1
-0.0425893060 -0.0822846210 -1 -1
-0.0466407060 -0.0845512880 -1 -1
-0.0508301940 -0.0867222070 -1 -1
-0.0550243010 -0.0887909280 -1 -1
-0.0590661820 -0.0907494160 -1 -1
-0.0627950160 -0.0925906270 -1 -1
-0.0660690800 -0.0943107710 -1 -1
-0.0687874710 -0.0959094520 -1 -1
-0.0709049420 -0.0973876880 -1 -1
-0.0724353550 -0.0987455830 -1 -1
-0.0734439090 -0.0999815220 -1 -1
-0.0740325750 -0.1010936300 -1 -1
-0.0743236260 -0.1020824020 -1 -1
-0.0744449830 -0.1029521570 -1 -1
-0.0745202630 -0.1037100070 -1 -1
-0.0746631410 -0.1043636300 -1 -1
-0.0749708960 -0.1049202820 -1 -1
-0.0755129300 -0.1053879190 -1 -1
-0.0763174200 -0.1057769810 -1 -1
-0.0773638530 -0.1061008700 -1 -1
-0.0785855810 -0.1063747210 -1 -1
-0.0798813380 -0.1066134080 -1 -1
-0.0811333400 -0.1068295860 -1 -1
-0.0822287490 -0.1070322260 -1 -1
-0.0830785700 -0.1072256990 -1 -1
-0.0836276240 -0.1074085210 -1 -1
-0.0838540940 -0.1075715800 -1 -1
-0.0837631730 -0.1076973810 -1 -1
-0.0833813470 -0.1077621560 -1 -1
-0.0827552060 -0.1077411600 -1 -1
-0.0819537550 -0.1076158240 -1 -1
-0.0810683420 -0.1073802780 -1 -1
-0.0802041660 -0.1070447140 -1 -1
-0.0794639590 -0.1066344550 -1 -1
-0.0789311210 -0.1061855420 -1 -1
-0.0786594930 -0.1057385340 -1 -1
-0.0786720330 -0.1053321550 -1 -1
-0.0789655110 -0.1049980900 -1 -1
-0.0795154330 -0.1047578270 -1 -1
-0.0802771660 -0.1046215730 -1 -1
-0.0811851000 -0.1045885490 -1 -1
-0.0821546770 -0.1046481320 -1 -1
-0.0830894290 -0.1047816880 -1 -1
-0.0838907120 -0.1049647160 -1 -1
-0.0844661530 -0.1051686370 -1 -1
-0.0847355620 -0.1053627700 -1 -1
-0.0846365580 -0.1055178870 -1 -1
-0.0841309360 -0.1056108750 -1 -1
-0.0832099160 -0.1056286170 -1 -1
-0.0818967390 -0.1055707470 -1 -1
-0.0802476990 -0.1054518720 -1 -1
-0.0783544100 -0.1053020480 -1 -1
-0.0763469080 -0.1051631000 -1 -1
-0.0743909720 -0.1050803850 -1 -1
-0.0726731910 -0.1050929210 -1 -1
-0.0713744090 -0.1052259530 -1 -1
-0.0706381840 -0.1054882850 -1 -1
-0.0705426360 -0.1058735990 -1 -1
-0.0710833650 -0.1063629330 -1 -1
-0.0721727450 -0.1069263960 -1 -1
-0.0736566760 -0.1075248900 -1 -1
-0.0753442690 -0.1081132990 -1 -1
-0.0770414350 -0.1086450190 -1 -1
-0.0785786910 -0.1090767250 -1 -1
-0.0798277170 -0.1093728910 -1 -1
-0.0807075640 -0.1095096850 -1 -1
-0.0811848900 -0.1094772310 -1 -1
-0.0812715230 -0.1092798400 -1 -1
-0.0810196190 -0.1089348260 -1 -1
-0.0805122200 -0.1084702180 -1 -1
-0.0798479590 -0.1079214150 -1 -1
-0.0791236170 -0.1073273650 -1 -1
-0.0784222020 -0.1067267660 -1 -1
-0.0778107440 -0.1061547530 -1 -1
-0.0773439700 -0.1056409120 -1 -1
-0.0770672620 -0.1052086920 -1 -1
-0.0770153760 -0.1048749800 -1 -1
-0.0772065260 -0.1046490010 -1 -1
-0.0776345220 -0.1045315890 -1 -1
-0.0782646260 -0.1045159110 -1 -1
-0.0790371160 -0.1045889190 -1 -1
-0.0798770190 -0.1047323850 -1 -1
-0.0807049580 -0.1049234100 -1 -1
-0.0814448280 -0.1051348590 -1 -1
-0.0820278030 -0.1053362410 -1 -1
-0.0823953520 -0.1054956660 -1 -1
-0.0825028930 -0.1055833170 -1 -1
-0.0823227510 -0.1055759930 -1 -1
-0.0818455350 -0.1054615370 -1 -1
-0.0810819800 -0.1052417230 -1 -1
-0.0800671100 -0.1049323990 -1 -1
-0.0788646280 -0.1045601990 -1 -1
-0.0775675270 -0.1041569390 -1 -1
-0.0762923730 -0.1037546640 -1 -1
-0.0751657440 -0.1033836590 -1 -1
-0.0743030870 -0.1030730000 -1 -1
-0.0737850620 -0.1028517520 -1 -1
-0.0736398560 -0.1027490840 -1 -1
-0.0738386020 -0.1027921560 -1 -1
-0.0743053040 -0.1030017310 -1 -1
-0.0749343450 -0.1033865180 -1 -1
-0.0756056640 -0.1039378960 -1 -1
-0.0761952850 -0.1046267450 -1 -1
-0.0765856380 -0.1054039940 -1 -1
-0.0766769950 -0.1062059650 -1 -1
-0.0763970210 -0.1069638570 -1 -1
-0.0757068840 -0.1076143950 -1 -1
-0.0746042310 -0.1081081120 -1 -1
-0.0731235090 -0.1084137170 -1 -1
-0.0713351070 -0.1085192630 -1 -1
-0.0693441990 -0.1084313700 -1 -1
-0.0672865970 -0.1081724990 -1 -1
-0.0653177780 -0.1077753840 -1 -1
-0.0635957040 -0.1072753840 -1 -1
-0.0622623920 -0.1067040780 -1 -1
-0.0614281980 -0.1060867060 -1 -1
-0.0611599920 -0.1054427050 -1 -1
-0.0614738420 -0.1047871640 -1 -1
-0.0623327930 -0.1041321880 -1 -1
-0.0636497890 -0.1034882780 -1 -1
-0.0652951540 -0.1028656720 -1 -1
-0.0671074410 -0.1022749940 -1 -1
-0.0689070330 -0.1017271500 -1 -1
-0.0705127350 -0.1012334140 -1 -1
-0.0717605020 -0.1008060260 -1 -1
-0.0725217150 -0.1004579350 -1 -1
-0.0727181710 -0.1002003170 -1 -1
-0.0723321510 -0.1000385200 -1 -1
-0.0714102400 -0.0999683960 -1 -1
-0.0700589590 -0.0999742290 -1 -1
-0.0684320610 -0.1000289070 -1 -1
-0.0667124200 -0.1000975890 -1 -1
-0.0650907990 -0.1001453800 -1 -1
-0.0637426990 -0.1001463740 -1 -1
-0.0628073850 -0.1000897740 -1 -1
-0.0623748030 -0.0999814520 -1 -1
-0.0624828180 -0.0998423510 -1 -1
-0.0631220030 -0.0997046840 -1 -1
-0.0642417610 -0.0996059690 -1 -1
-0.0657537030 -0.0995818660 -1 -1
-0.0675349690 -0.0996588150 -1 -1
-0.0694370460 -0.0998471360 -1 -1
-0.0713011580 -0.1001370110 -1 -1
-0.0729759140 -0.1005000820 -1 -1
-0.0743320260 -0.1008962050 -1 -1
-0.0752712340 -0.1012823390 -1 -1
-0.0757290950 -0.1016206360 -1 -1
-0.0756743830 -0.1018834490 -1 -1
-0.0751088500 -0.1020544360 -1 -1
-0.0740679000 -0.1021272870 -1 -1
-0.0726207810 -0.1021041070 -1 -1
-0.0708701290 -0.1019939170 -1 -1
-0.0689493600 -0.1018106130 -1 -1
-0.0670138560 -0.1015702990 -1 -1
-0.0652249630 -0.1012893500 -1 -1
-0.0637322200 -0.1009846820 -1 -1
-0.0626595760 -0.1006754240 -1 -1
-0.0620940740 -0.1003832260 -1 -1
-0.0620725520 -0.1001296610 -1 -1
-0.0625690640 -0.0999316140 -1 -1
-0.0634915400 -0.0997962070 -1 -1
-0.0646915090 -0.0997168620 -1 -1
-0.0659829930 -0.0996728540 -1 -1
-0.0671663810 -0.0996336300 -1 -1
-0.0680568890 -0.0995664640 -1 -1
-0.0685151230 -0.0994442660 -1 -1
-0.0684719920 -0.0992508250 -1 -1
-0.0679405760 -0.0989826620 -1 -1
-0.0670123010 -0.0986484510 -1 -1
-0.0658393260 -0.0982671790 -1 -1
-0.0646079760 -0.0978657150 -1 -1
-0.0635083380 -0.0974760260 -1 -1
-0.0627058560 -0.0971322160 -1 -1
-0.0623228770 -0.0968677300 -1 -1
-0.0624340200 -0.0967131500 -1 -1
-0.0630710900 -0.0966944060 -1 -1
-0.0642303310 -0.0968308380 -1 -1
-0.0658776800 -0.0971331170 -1 -1
-0.0679510910 -0.0976015580 -1 -1
-0.0703612290 -0.0982247280 -1 -1
-0.0729926030 -0.0989782040 -1 -1
-0.0757069670 -0.0998247610 -1 -1
-0.0783501010 -0.1007176050 -1 -1
-0.0807626190 -0.1016059420 -1 -1
-0.0827953270 -0.1024401190 -1 -1
-0.0843273340 -0.1031750070 -1 -1
-0.0852816060 -0.1037727000 -1 -1
-0.0856331840 -0.1042055770 -1 -1
-0.0854089210 -0.1044594980 -1 -1
-0.0846807570 -0.1045368060 -1 -1
-0.0835568120 -0.1044586680 -1 -1
-0.0821732460 -0.1042650490 -1 -1
-0.0806846930 -0.1040107530 -1 -1
-0.0792495840 -0.1037583450 -1 -1
-0.0780124090 -0.1035701340 -1 -1
-0.0770896330 -0.1035002590 -1 -1
-0.0765615090 -0.1035867180 -1 -1
-0.0764656780 -0.1038446520 -1 -1
-0.0767912440 -0.1042643350 -1 -1
-0.0774783810 -0.1048157300 -1 -1
-0.0784267630 -0.1054573910 -1 -1
-0.0795091970 -0.1061456000 -1 -1
-0.0805847940 -0.1068408050 -1 -1
-0.0815101200 -0.1075106560 -1 -1
-0.0821505610 -0.1081304870 -1 -1
-0.0823934180 -0.1086824260 -1 -1
-0.0821616170 -0.1091537970 -1 -1
-0.0814255690 -0.1095355340 -1 -1
-0.0802102050 -0.1098216920 -1 -1
-0.0785945120 -0.1100106940 -1 -1
-0.0767031550 -0.1101080890 -1 -1
-0.0746921750 -0.1101291430 -1 -1
-0.0727317910 -0.1100982560 -1 -1
-0.0709894160 -0.1100436910 -1 -1
-0.0696142890 -0.1099904310 -1 -1
-0.0687233480 -0.1099556500 -1 -1
-0.0683885340 -0.1099485560 -1 -1
-0.0686277880 -0.1099731930 -1 -1
-0.0694043740 -0.1100318910 -1 -1
-0.0706376550 -0.1101275760 -1 -1
-0.0722200710 -0.1102642800 -1 -1
-0.0740292860 -0.1104460940 -1 -1
-0.0759316360 -0.1106745240 -1 -1
-0.0777840300 -0.1109443810 -1 -1
-0.0794415170 -0.1112405600 -1 -1
-0.0807694790 -0.1115388240 -1 -1
-0.0816558890 -0.1118107030 -1 -1
-0.0820224100 -0.1120293250 -1 -1
-0.0818357550 -0.1121730220 -1 -1
-0.0811177050 -0.1122257210 -1 -1
-0.0799475600 -0.1121753700 -1 -1
-0.0784522690 -0.1120130550 -1 -1
-0.0767872610 -0.1117349020 -1 -1
-0.0751159170 -0.1113460210 -1 -1
-0.0735926830 -0.1108635970 -1 -1
-0.0723492880 -0.1103165760 -1 -1
-0.0714819320 -0.1097413520 -1 -1
-0.0710399120 -0.1091754570 -1 -1
-0.0710191360 -0.1086522420 -1 -1
-0.0713648530 -0.1081978220 -1 -1
-0.0719858760 -0.1078294920 -1 -1
-0.0727759930 -0.1075544790 -1 -1
-0.0736318850 -0.1073691920 -1 -1
-0.0744608540 -0.1072600280 -1 -1
-0.0751823010 -0.1072059730 -1 -1
-0.0757292360 -0.1071822300 -1 -1
-0.0760506180 -0.1071641580 -1 -1
-0.0761130930 -0.1071307890 -1 -1
-0.0759030380 -0.1070674460 -1 -1
-0.0754304050 -0.1069679610 -1 -1
-0.0747332150 -0.1068366850 -1 -1
-0.0738790680 -0.1066887810 -1 -1
-0.0729608300 -0.1065471430 -1 -1
-0.0720864350 -0.1064367910 -1 -1
-0.0713641280 -0.1063794760 -1 -1
-0.0708839210 -0.1063901660 -1 -1
-0.0706981250 -0.1064755220 -1 -1
-0.0708087460 -0.1066346770 -1 -1
-0.0711698450 -0.1068622620 -1 -1
-0.0717045030 -0.1071514540 -1 -1
-0.0723265210 -0.1074944750 -1 -1
-0.0729559930 -0.1078805100 -1 -1
-0.0735257570 -0.1082929300 -1 -1
-0.0739825450 -0.1087075620 -1 -1
-0.0742856420 -0.1090933760 -1 -1
-0.0744041650 -0.1094165770 -1 -1
-0.0743167310 -0.1096469290 -1 -1
-0.0740166110 -0.1097632040 -1 -1
-0.0735196150 -0.1097557690 -1 -1
-0.0728691170 -0.1096269300 -1 -1
-0.0721350980 -0.1093898910 -1 -1
-0.0714066330 -0.1090659920 -1 -1
-0.0707781360 -0.1086803530 -1 -1
-0.0703322790 -0.1082575020 -1 -1
-0.0701261190 -0.1078188810 -1 -1
-0.0701854850 -0.1073829180 -1 -1
-0.0705062550 -0.1069665860 -1 -1
-0.0710575910 -0.1065866710 -1 -1
-0.0717847070 -0.1062595580 -1 -1
-0.0726128950 -0.1059990170 -1 -1
-0.0734548790 -0.1058126830 -1 -1
-0.0742204950 -0.1056988890 -1 -1
-0.0748252300 -0.1056448180 -1 -1
-0.0751947800 -0.1056263710 -1 -1
-0.0752664580 -0.1056112640 -1 -1
-0.0749919240 -0.1055668700 -1 -1
-0.0743442840 -0.1054707090 -1 -1
-0.0733279700 -0.1053175240 -1 -1
-0.0719865410 -0.1051184400 -1 -1
-0.0704028840 -0.1048939830 -1 -1
-0.0686893840 -0.1046667950 -1 -1
-0.0669716260 -0.1044579050 -1 -1
-0.0653733330 -0.1042857210 -1 -1
-0.0640083610 -0.1041649030 -1 -1
-0.0629788540 -0.1041038140 -1 -1
-0.0623734160 -0.1041016560 -1 -1
-0.0622601240 -0.1041477910 -1 -1
-0.0626740440 -0.1042250400 -1 -1
-0.0636038070 -0.1043156600 -1 -1
-0.0649846200 -0.1044062800 -1 -1
-0.0667031830 -0.1044893090 -1 -1
-0.0686133820 -0.1045613440 -1 -1
-0.0705555240 -0.1046207760 -1 -1
-0.0723715970 -0.1046663400 -1 -1
-0.0739151000 -0.1046968340 -1 -1
-0.0750604450 -0.1047111820 -1 -1
-0.0757172170 -0.1047081810 -1 -1
-0.0758474910 -0.1046857410 -1 -1
-0.0754766230 -0.1046396380 -1 -1
-0.0746891720 -0.1045619100 -1 -1
-0.0736117410 -0.1044398510 -1 -1
-0.0723911150 -0.1042574420 -1 -1
-0.0711736180 -0.1040006540 -1 -1
-0.0700886840 -0.1036657100 -1 -1
-0.0692412290 -0.1032665890 -1 -1
-0.0687145230 -0.1028374660 -1 -1
-0.0685744820 -0.1024280720 -1 -1
-0.0688630010 -0.1020939820 -1 -1
-0.0695809840 -0.1018861430 -1 -1
-0.0706742460 -0.1018422480 -1 -1
-0.0720334560 -0.1019799890 -1 -1
-0.0735093950 -0.1022930960 -1 -1
-0.0749374890 -0.1027524590 -1 -1
-0.0761631110 -0.1033124290 -1 -1
-0.0770609600 -0.1039190640 -1 -1
-0.0775455820 -0.1045172870 -1 -1
-0.0775736180 -0.1050568130 -1 -1
-0.0771412260 -0.1054978790 -1 -1
-0.0762814370 -0.1058161760 -1 -1
-0.0750629160 -0.1060052120 -1 -1
-0.0735860720 -0.1060750890 -1 -1
-0.0719729010 -0.1060480650 -1 -1
-0.0703542820 -0.1059523450 -1 -1
-0.0688615400 -0.1058165420 -1 -1
-0.0676220340 -0.1056672900 -1 -1
-0.0667515060 -0.1055298570 -1 -1
-0.0663390730 -0.1054286800 -1 -1
-0.0664297040 -0.1053852650 -1 -1
-0.0670127980 -0.1054143360 -1 -1
-0.0680206940 -0.1055210900 -1 -1
-0.0693349800 -0.1057013410 -1 -1
-0.0707991890 -0.1059439780 -1 -1
-0.0722394600 -0.1062340930 -1 -1
-0.0734905910 -0.1065551200 -1 -1
-0.0744178570 -0.1068887850 -1 -1
-0.0749273630 -0.1072133150 -1 -1
-0.0749670900 -0.1075019910 -1 -1
-0.0745252500 -0.1077242110 -1 -1
-0.0736296580 -0.1078501170 -1 -1
-0.0723465480 -0.1078574460 -1 -1
-0.0707746390 -0.1077370470 -1 -1
-0.0690330970 -0.1074938140 -1 -1
-0.0672469830 -0.1071433310 -1 -1
-0.0655360660 -0.1067074010 -1 -1
-0.0640095450 -0.1062107560 -1 -1
-0.0627631600 -0.1056791370 -1 -1
-0.0618741590 -0.1051384870 -1 -1
-0.0613946840 -0.1046150190 -1 -1
-0.0613466060 -0.1041352160 -1 -1
-0.0617182820 -0.1037248910 -1 -1
-0.0624625080 -0.1034070980 -1 -1
-0.0634967010 -0.1031991490 -1 -1
-0.0647075590 -0.1031096600 -1 -1
-0.0659608240 -0.1031365350 -1 -1
-0.0671141610 -0.1032657590 -1 -1
-0.0680316850 -0.1034711880 -1 -1
-0.0685998880 -0.1037170790 -1 -1
-0.0687426680 -0.1039641780 -1 -1
-0.0684336550 -0.1041768260 -1 -1
-0.0677059960 -0.1043276120 -1 -1
-0.0666548580 -0.1043989620 -1 -1
-0.0654248220 -0.1043833320 -1 -1
-0.0641830480 -0.1042827140 -1 -1
-0.0630884490 -0.1041068840 -1 -1
-0.0622671150 -0.1038708060 -1 -1
-0.0617987330 -0.1035927580 -1 -1
-0.0617135020 -0.1032932040 -1 -1
-0.0619975100 -0.1029929480 -1 -1
-0.0626054050 -0.1027100580 -1 -1
-0.0634765610 -0.1024568120 -1 -1
-0.0645459320 -0.1022382970 -1 -1
-0.0657435510 -0.1020533540 -1 -1
-0.0669879930 -0.1018969190 -1 -1
-0.0681847500 -0.1017621490 -1 -1
-0.0692338170 -0.1016412600 -1 -1
-0.0700430600 -0.1015248500 -1 -1
-0.0705433950 -0.1014003660 -1 -1
-0.0707028180 -0.1012513570 -1 -1
-0.0705350260 -0.1010590070 -1 -1
-0.0700987960 -0.1008066940 -1 -1
-0.0694875100 -0.1004864930 -1 -1
-0.0688112890 -0.1001040220 -1 -1
-0.0681764050 -0.0996782300 -1 -1
-0.0676679820 -0.0992366070 -1 -1
-0.0673406020 -0.0988092120 -1 -1
-0.0672169410 -0.0984241450 -1 -1
-0.0672909400 -0.0981047820 -1 -1
-0.0675336070 -0.0978683570 -1 -1
-0.0679021330 -0.0977260530 -1 -1
-0.0683501040 -0.0976847970 -1 -1
-0.0688329000 -0.0977495720 -1 -1
-0.0693054890 -0.0979240730 -1 -1
-0.0697164980 -0.0982085460 -1 -1
-0.0700051870 -0.0985959720 -1 -1
-0.0701061470 -0.0990690210 -1 -1
-0.0699624800 -0.0995995040 -1 -1
-0.0695423760 -0.1001508140 -1 -1
-0.0688504390 -0.1006827880 -1 -1
-0.0679284620 -0.1011577720 -1 -1
-0.0668471730 -0.1015472820 -1 -1
-0.0656945250 -0.1018382000 -1 -1
-0.0645653280 -0.1020357540 -1 -1
-0.0635523850 -0.1021612910 -1 -1
-0.0627368580 -0.1022461390 -1 -1
-0.0621787280 -0.1023242620 -1 -1
-0.0619109370 -0.1024254690 -1 -1
-0.0619391920 -0.1025704480 -1 -1
-0.0622463460 -0.1027688220 -1 -1
-0.0627975290 -0.1030203320 -1 -1
-0.0635417640 -0.1033178720 -1 -1
-0.0644100350 -0.1036502180 -1 -1
-0.0653139780 -0.1040027100 -1 -1
-0.0661479220 -0.1043557520 -1 -1
-0.0667942630 -0.1046829820 -1 -1
-0.0671338110 -0.1049516010 -1 -1
-0.0670645390 -0.1051259910 -1 -1
-0.0665265280 -0.1051732860 -1 -1
-0.0655226360 -0.1050688360 -1 -1
-0.0641254670 -0.1048004030 -1 -1
-0.0624690010 -0.1043704750 -1 -1
-0.0607274560 -0.1037960300 -1 -1
-0.0590857110 -0.1031058070 -1 -1
-0.0577095190 -0.1023360900 -1 -1
-0.0567259590 -0.1015264260 -1 -1
-0.0562190670 -0.1007163470 -1 -1
-0.0562347020 -0.0999432100 -1 -1
-0.0567840680 -0.0992404030 -1 -1
-0.0578420250 -0.0986350950 -1 -1
-0.0593445450 -0.0981454830 -1 -1
-0.0611898930 -0.0977783300 -1 -1
-0.0632441200 -0.0975279260 -1 -1
-0.0653499080 -0.0973774610 -1 -1
-0.0673382610 -0.0973028800 -1 -1
-0.0690425860 -0.0972779270 -1 -1
-0.0703150280 -0.0972787740 -1 -1
-0.0710447290 -0.0972872960 -1 -1
-0.0711748140 -0.0972921550 -1 -1
-0.0707114410 -0.0972870600 -1 -1
-0.0697204620 -0.0972672090 -1 -1
-0.0683148420 -0.0972264960 -1 -1
-0.0666408440 -0.0971575370 -1 -1
-0.0648675790 -0.0970545210 -1 -1
-0.0631768800 -0.0969167940 -1 -1
-0.0617480180 -0.0967504020 -1 -1
-0.0607377250 -0.0965663550 -1 -1
-0.0602610230 -0.0963769500 -1 -1
-0.0603769780 -0.0961927560 -1 -1
-0.0610812260 -0.0960221270 -1 -1
-0.0623067730 -0.0958727720 -1 -1
-0.0639335840 -0.0957531440 -1 -1
-0.0658055480 -0.0956724280 -1 -1
-0.0677508960 -0.0956395650 -1 -1
-0.0696013670 -0.0956615020 -1 -1
-0.0712078570 -0.0957406890 -1 -1
-0.0724519790 -0.0958731880 -1 -1
-0.0732520570 -0.0960490670 -1 -1
-0.0735631860 -0.0962547240 -1 -1
-0.0733743640 -0.0964750430 -1 -1
-0.0727064680 -0.0966943510 -1 -1
-0.0716119700 -0.0968969720 -1 -1
-0.0701747630 -0.0970681400 -1 -1
-0.0685092040 -0.0971953390 -1 -1
-0.0667575230 -0.0972695980 -1 -1
-0.0650813310 -0.0972857530 -1 -1
-0.0636430680 -0.0972414120 -1 -1
-0.0625803890 -0.0971362690 -1 -1
-0.0619823740 -0.0969728820 -1 -1
-0.0618757170 -0.0967577780 -1 -1
-0.0622239070 -0.0965018300 -1 -1
-0.0629369660 -0.0962203860 -1 -1
-0.0638875300 -0.0959329380 -1 -1
-0.0649295000 -0.0956607920 -1 -1
-0.0659146820 -0.0954223180 -1 -1
-0.0667039790 -0.0952278480 -1 -1
-0.0671759210 -0.0950767280 -1 -1
-0.0672385110 -0.0949577830 -1 -1
-0.0668436780 -0.0948534230 -1 -1
-0.0659966620 -0.0947462790 -1 -1
-0.0647552600 -0.0946251860 -1 -1
-0.0632202240 -0.0944869720 -1 -1
-0.0615207190 -0.0943336270 -1 -1
-0.0597989250 -0.0941680680 -1 -1
-0.0581964920 -0.0939923230 -1 -1
-0.0568434780 -0.0938096510 -1 -1
-0.0558495540 -0.0936287420 -1 -1
-0.0552967230 -0.0934662590 -1 -1
-0.0552326010 -0.0933454050 -1 -1
-0.0556644520 -0.0932914690 -1 -1
-0.0565553760 -0.0933266700 -1 -1
-0.0578252150 -0.0934654420 -1 -1
-0.0593592860 -0.0937101810 -1 -1
-0.0610247810 -0.0940481770 -1 -1
-0.0626890780 -0.0944508860 -1 -1
-0.0642325490 -0.0948759640 -1 -1
-0.0655527260 -0.0952720910 -1 -1
-0.0665633110 -0.0955865130 -1 -1
-0.0671949180 -0.0957740760 -1 -1
-0.0674008880 -0.0958051740 -1 -1
-0.0671644380 -0.0956698750 -1 -1
-0.0665016160 -0.0953774620 -1 -1
-0.0654599150 -0.0949532190 -1 -1
-0.0641162100 -0.0944346070 -1 -1
-0.0625743090 -0.0938670390 -1 -1
-0.0609581960 -0.0932985390 -1 -1
-0.0593990790 -0.0927737780 -1 -1
-0.0580190710 -0.0923288700 -1 -1
-0.0569151880 -0.0919877430 -1 -1
-0.0561463980 -0.0917603750 -1 -1
-0.0557265220 -0.0916431830 -1 -1
-0.0556246390 -0.0916211330 -1 -1
-0.0557723660 -0.0916700010 -1 -1
-0.0560759690 -0.0917579580 -1 -1
-0.0564305130 -0.0918477710 -1 -1
-0.0567333100 -0.0919012570 -1 -1
-0.0568952800 -0.0918857170 -1 -1
-0.0568502320 -0.0917804460 -1 -1
-0.0565626250 -0.0915808130 -1 -1
-0.0560334670 -0.0912981540 -1 -1
-0.0553014790 -0.0909559670 -1 -1
-0.0544367570 -0.0905847270 -1 -1
-0.0535286470 -0.0902167590 -1 -1
-0.0526731750 -0.0898814030 -1 -1
-0.0519637060 -0.0896010500 -1 -1
-0.0514838370 -0.0893892070 -1 -1
-0.0512997380 -0.0892508600 -1 -1
-0.0514518450 -0.0891842960 -1 -1
-0.0519487770 -0.0891838400 -1 -1
-0.0527655370 -0.0892433400 -1 -1
-0.0538454090 -0.0893591080 -1 -1
-0.0551041620 -0.0895300950 -1 -1
-0.0564363020 -0.0897548370 -1 -1
-0.0577235460 -0.0900273020 -1 -1
-0.0588454340 -0.0903345450 -1 -1
-0.0596916680 -0.0906571750 -1 -1
-0.0601746890 -0.0909710830 -1 -1
-0.0602397970 -0.0912485940 -1 -1
-0.0598706210 -0.0914596400 -1 -1
-0.0590897170 -0.0915751780 -1 -1
-0.0579560750 -0.0915732330 -1 -1
-0.0565612510 -0.0914446120 -1 -1
-0.0550235310 -0.0911949210 -1 -1
-0.0534782440 -0.0908428340 -1 -1
-0.0520644570 -0.0904171290 -1 -1
-0.0509105200 -0.0899538070 -1 -1
-0.0501211970 -0.0894925870 -1 -1
-0.0497692210 -0.0890719640 -1 -1
-0.0498922120 -0.0887231020 -1 -1
-0.0504914220 -0.0884645030 -1 -1
-0.0515282460 -0.0883003600 -1 -1
-0.0529196240 -0.0882237020 -1 -1
-0.0545375450 -0.0882220120 -1 -1
-0.0562175410 -0.0882822240 -1 -1
-0.0577772410 -0.0883939340 -1 -1
-0.0590410810 -0.0885505750 -1 -1
-0.0598644540 -0.0887480400 -1 -1
-0.0601518510 -0.0889814860 -1 -1
-0.0598672220 -0.0892425090 -1 -1
-0.0590364290 -0.0895180600 -1 -1
-0.0577404220 -0.0897910280 -1 -1
-0.0560997240 -0.0900418960 -1 -1
-0.0542557370 -0.0902506750 -1 -1
-0.0523548510 -0.0903981440 -1 -1
-0.0505373120 -0.0904665740 -1 -1
-0.0489304010 -0.0904416790 -1 -1
-0.0476441020 -0.0903165210 -1 -1
-0.0467650430 -0.0900953660 -1 -1
-0.0463459010 -0.0897947830 -1 -1
-0.0463945240 -0.0894407910 -1 -1
-0.0468707050 -0.0890625960 -1 -1
-0.0476931720 -0.0886849080 -1 -1
-0.0487523590 -0.0883216270 -1 -1
-0.0499241210 -0.0879735110 -1 -1
-0.0510827220 -0.0876308980 -1 -1
-0.0521125230 -0.0872797460 -1 -1
-0.0529166820 -0.0869073100 -1 -1
-0.0534208810 -0.0865046240 -1 -1
-0.0535724280 -0.0860660350 -1 -1
-0.0533393670 -0.0855882740 -1 -1
-0.0527148080 -0.0850713810 -1 -1
-0.0517257110 -0.0845214870 -1 -1
-0.0504403320 -0.0839530160 -1 -1
-0.0489690400 -0.0833876620 -1 -1
-0.0474554930 -0.0828501270 -1 -1
-0.0460580520 -0.0823633640 -1 -1
-0.0449254670 -0.0819459440 -1 -1
-0.0441734940 -0.0816117320 -1 -1
-0.0438680630 -0.0813703920 -1 -1
-0.0440180210 -0.0812277940 -1 -1
-0.0445784630 -0.0811865020 -1 -1
-0.0454627440 -0.0812458260 -1 -1
-0.0465578110 -0.0814002680 -1 -1
-0.0477378460 -0.0816368300 -1 -1
-0.0488751330 -0.0819335790 -1 -1
-0.0498490960 -0.0822610200 -1 -1
-0.0505542110 -0.0825856200 -1 -1
-0.0509080550 -0.0828738940 -1 -1
-0.0508600950 -0.0830956720 -1 -1
-0.0503992880 -0.0832261000 -1 -1
-0.0495582440 -0.0832471860 -1 -1
-0.0484119860 -0.0831495890 -1 -1
-0.0470690920 -0.0829341250 -1 -1
-0.0456564300 -0.0826126330 -1 -1
-0.0443022340 -0.0822085650 -1 -1
-0.0431214190 -0.0817570200 -1 -1
-0.0422046510 -0.0813026670 -1 -1
-0.0416110520 -0.0808945720 -1 -1
-0.0413640280 -0.0805791160 -1 -1
-0.0414505490 -0.0803936320 -1 -1
-0.0418244400 -0.0803625530 -1 -1
-0.0424131030 -0.0804960370 -1 -1
-0.0431263140 -0.0807903840 -1 -1
-0.0438664440 -0.0812296430 -1 -1
-0.0445398450 -0.0817878230 -1 -1
-0.0450677570 -0.0824315130 -1 -1
-0.0453944970 -0.0831226000 -1 -1
-0.0454915940 -0.0838202870 -1 -1
-0.0453577250 -0.0844825250 -1 -1
-0.0450158140 -0.0850680150 -1 -1
-0.0445092430 -0.0855393590 -1 -1
-0.0438975170 -0.0858672040 -1 -1
-0.0432500400 -0.0860347030 -1 -1
-0.0426383900 -0.0860410310 -1 -1
-0.0421305970 -0.0859026210 -1 -1
-0.0417897840 -0.0856515690 -1 -1
-0.0416742180 -0.0853310600 -1 -1
-0.0418336950 -0.0849880690 -1 -1
-0.0423011960 -0.0846648800 -1 -1
-0.0430835940 -0.0843926400 -1 -1
-0.0441556060 -0.0841893560 -1 -1
-0.0454586470 -0.0840618790 -1 -1
-0.0469050190 -0.0840093930 -1 -1
-0.0483869870 -0.0840264080 -1 -1
-0.0497878680 -0.0841044180 -1 -1
-0.0509913490 -0.0842319560 -1 -1
-0.0518886270 -0.0843937590 -1 -1
-0.0523870590 -0.0845706450 -1 -1
-0.0524232770 -0.0847410510 -1 -1
-0.0519781580 -0.0848839740 -1 -1
-0.0510864390 -0.0849825610 -1 -1
-0.0498357160 -0.0850273870 -1 -1
-0.0483551900 -0.0850183350 -1 -1
-0.0467981840 -0.0849638700 -1 -1
-0.0453229310 -0.0848769860 -1 -1
-0.0440750070 -0.0847691360 -1 -1
-0.0431729400 -0.0846451730 -1 -1
-0.0426970250 -0.0845014000 -1 -1
-0.0426811590 -0.0843267270 -1 -1
-0.0431095580 -0.0841061800 -1 -1
-0.0439207620 -0.0838259760 -1 -1
-0.0450178240 -0.0834793210 -1 -1
-0.0462817830 -0.0830713960 -1 -1
-0.0475862100 -0.0826211520 -1 -1
-0.0488084320 -0.0821587030 -1 -1
-0.0498339520 -0.0817194400 -1 -1
-0.0505590700 -0.0813368750 -1 -1
-0.0508986270 -0.0810362040 -1 -1
-0.0507968640 -0.0808303910 -1 -1
-0.0502364150 -0.0807193770 -1 -1
-0.0492454620 -0.0806920890 -1 -1
-0.0479021270 -0.0807304820 -1 -1
-0.0463312400 -0.0808141600 -1 -1
-0.0446912510 -0.0809240560 -1 -1
-0.0431536530 -0.0810447490 -1 -1
-0.0418791850 -0.0811659800 -1 -1
-0.0409963980 -0.0812838090 -1 -1
-0.0405878040 -0.0814009320 -1 -1
-0.0406854440 -0.0815253980 -1 -1
-0.0412737260 -0.0816678480 -1 -1
-0.0422951910 -0.0818382980 -1 -1
-0.0436557890 -0.0820436320 -1 -1
-0.0452304280 -0.0822861280 -1 -1
-0.0468725040 -0.0825622260 -1 -1
-0.0484293270 -0.0828611630 -1 -1
-0.0497615600 -0.0831644730 -1 -1
-0.0507613940 -0.0834475030 -1 -1
-0.0513625050 -0.0836830370 -1 -1
-0.0515389750 -0.0838461710 -1 -1
-0.0512985000 -0.0839188850 -1 -1
-0.0506777350 -0.0838928720 -1 -1
-0.0497417200 -0.0837704120 -1 -1
-0.0485829760 -0.0835636800 -1 -1
-0.0473158090 -0.0832923850 -1 -1
-0.0460660470 -0.0829801790 -1 -1
-0.0449593050 -0.0826515320 -1 -1
-0.0441092360 -0.0823302660 -1 -1
-0.0436059920 -0.0820393320 -1 -1
-0.0435064320 -0.0818008460 -1 -1
-0.0438276230 -0.0816356230 -1 -1
-0.0445435770 -0.0815614630 -1 -1
-0.0455850180 -0.0815902230 -1 -1
-0.0468435020 -0.0817249100 -1 -1
-0.0481813340 -0.0819580960 -1 -1
