-0.0271856220 0.0216067440 0 0
-0.0268558270 0.0203703210 0 0
-0.0262387890 0.0191295810 0 0
-0.0253919300 0.0179780420 0 0
-0.0243938630 0.0169960820 0 0
-0.0233328450 0.0162341030 0 0
-0.0222904060 0.0157023470 0 0
-0.0213273580 0.0153684100 0 0
-0.0204801840 0.0151627510 0 0
-0.0197686880 0.0149934590 0 0
-0.0192083550 0.0147689380 0 0
-0.0188189070 0.0144212160 0 0
-0.0186241860 0.0139204710 0 0
-0.0186437920 0.0132761580 0 0
-0.0188805360 0.0125266900 0 0
-0.0193098210 0.0117234320 0 0
-0.0198762650 0.0109148770 0 0
-0.0204991290 0.0101351380 0 0
-0.0210845990 0.0093989090 0 0
-0.0215412000 0.0087032060 0 0
-0.0217940180 0.0080340590 0 0
-0.0217941630 0.0073744620 0 0
-0.0215219730 0.0067100140 0 0
-0.0209851820 0.0060311590 0 0
-0.0202151660 0.0053336260 0 0
-0.0192644740 0.0046185270 0 0
-0.0182072140 0.0038916690 0 0
-0.0171403820 0.0031614910 0 0
-0.0161805390 0.0024367010 0 0
-0.0154506740 0.0017255250 0 0
-0.0150583350 0.0010372800 0 0
-0.0150732390 0.0003850320 0 0
-0.0155129130 -0.0002129000 0 0
-0.0163390800 -0.0007342130 0 0
-0.0174626830 -0.0011569300 0 0
-0.0187554040 -0.0014652680 0 0
-0.0200671760 -0.0016539440 0 0
-0.0212488900 -0.0017283600 0 0
-0.0221769880 -0.0017005040 0 0
-0.0227741770 -0.0015826090 0 0
-0.0230201180 -0.0013817330 0 0
-0.0229492070 -0.0010983570 0 0
-0.0226369720 -0.0007301690 0 0
-0.0221789000 -0.0002785890 0 0
-0.0216673040 0.0002463520 0 0
-0.0211736960 0.0008248090 0 0
-0.0207413710 0.0014278120 0 0
-0.0203864480 0.0020175990 0 0
-0.0201032590 0.0025482630 0 0
-0.0198723550 0.0029692490 0 0
-0.0196708270 0.0032325340 0 0
-0.0194835520 0.0033015940 0 0
-0.0193122990 0.0031590850 0 0
-0.0191788450 0.0028104290 0 0
-0.0191205090 0.0022819270 0 0
-0.0191803630 0.0016139770 0 0
-0.0193963880 0.0008510920 0 0
-0.0197934720 0.0000316490 0 0
-0.0203803170 -0.0008169340 0 0
-0.0211500040 -0.0016722510 0 0
-0.0220799360 -0.0025032740 0 0
-0.0231275850 -0.0032611440 0 0
-0.0242236840 -0.0038843030 0 0
-0.0252701810 -0.0043162480 0 0
-0.0261495330 -0.0045255740 0 0
-0.0267453190 -0.0045187980 0 0
-0.0269676430 -0.0043426060 0 0
-0.0267737790 -0.0040769790 0 0
-0.0261765320 -0.0038217310 0 0
-0.0252404640 -0.0036789210 0 0
-0.0240720000 -0.0037341400 0 0
-0.0228068260 -0.0040399750 0 0
-0.0215930170 -0.0046051720 0 0
-0.0205687720 -0.0053924740 0 0
-0.0198372480 -0.0063257510 0 0
-0.0194447390 -0.0073042740 0 0
-0.0193708230 -0.0082208440 0 0
-0.0195355490 -0.0089800860 0 0
-0.0198189150 -0.0095130950 0 0
-0.0200827000 -0.0097863220 0 0
-0.0201895170 -0.0098044800 0 0
-0.0200195050 -0.0096071360 0 0
-0.0194841570 -0.0092585130 0 0
-0.0185353500 -0.0088328310 0 0
-0.0171699950 -0.0084007920 0 0
-0.0154324100 -0.0080221500 0 0
-0.0134143160 -0.0077441580 0 0
-0.0112493700 -0.0076007530 0 0
-0.0090995300 -0.0076082070 0 0
-0.0071347600 -0.0077591310 0 0
-0.0055121060 -0.0080209070 0 0
-0.0043594070 -0.0083420620 0 0
-0.0037634410 -0.0086640990 0 0
-0.0037594890 -0.0089334270 0 0
-0.0043232100 -0.0091097610 0 0
-0.0053703700 -0.0091701510 0 0
-0.0067686130 -0.0091088730 0 0
-0.0083594640 -0.0089337640 0 0
-0.0099836800 -0.0086601710 0 0
-0.0115024620 -0.0083047810 0 0
-0.0128106150 -0.0078823310 0 0
-0.0138414780 -0.0074066020 0 0
-0.0145648160 -0.0068937120 0 0
-0.0149808960 -0.0063643440 0 0
-0.0151162370 -0.0058436180 0 0
-0.0150229760 -0.0053592820 0 0
-0.0147769580 -0.0049388580 0 0
-0.0144695530 -0.0046064720 0 0
-0.0141944840 -0.0043806770 0 0
-0.0140344270 -0.0042743020 0 0
-0.0140514850 -0.0042963250 0 0
-0.0142839350 -0.0044543460 0 0
-0.0147484550 -0.0047553320 0 0
-0.0154432420 -0.0052027970 0 0
-0.0163475070 -0.0057909180 0 0
-0.0174174440 -0.0064986080 0 0
-0.0185835460 -0.0072873390 0 0
-0.0197540490 -0.0081046120 0 0
-0.0208242840 -0.0088919130 0 0
-0.0216884610 -0.0095945560 0 0
-0.0222521250 -0.0101703780 0 0
-0.0224453150 -0.0105941280 0 0
-0.0222348290 -0.0108561790 0 0
-0.0216309840 -0.0109582790 0 0
-0.0206839490 -0.0109112550 0 0
-0.0194696390 -0.0107369600 0 0
-0.0180721380 -0.0104722530 0 0
-0.0165716810 -0.0101714230 0 0
-0.0150417180 -0.0099048410 0 0
-0.0135508820 -0.0097520250 0 0
-0.0121641120 -0.0097876000 0 0
-0.0109422540 -0.0100625940 0 0
-0.0099423270 -0.0105881630 0 0
-0.0092173200 -0.0113290470 0 0
-0.0088116590 -0.0122097770 0 0
-0.0087515490 -0.0131310170 0 0
-0.0090343890 -0.0139896950 0 0
-0.0096230410 -0.0146969640 0 0
-0.0104480620 -0.0151908640 0 0
-0.0114168670 -0.0154421840 0 0
-0.0124264120 -0.0154526030 0 0
-0.0133766100 -0.0152461580 0 0
-0.0141830080 -0.0148574090 0 0
-0.0147871370 -0.0143202010 0 0
-0.0151623800 -0.0136597360 0 0
-0.0153142930 -0.0128895560 0 0
-0.0152761020 -0.0120146730 0 0
-0.0151007860 -0.0110410650 0 0
-0.0148512120 -0.0099886080 0 0
-0.0145894930 -0.0089009160 0 0
-0.0143674770 -0.0078455050 0 0
-0.0142216250 -0.0069032610 0 0
-0.0141745300 -0.0061535000 0 0
-0.0142411110 -0.0056618460 0 0
-0.0144336720 -0.0054720020 0 0
-0.0147608740 -0.0055984350 0 0
-0.0152211960 -0.0060204680 0 0
-0.0157958490 -0.0066827120 0 0
-0.0164454190 -0.0075047860 0 0
-0.0171115670 -0.0083974300 0 0
-0.0177224430 -0.0092791970 0 0
-0.0181989080 -0.0100890120 0 0
-0.0184606020 -0.0107922390 0 0
-0.0184350370 -0.0113803130 0 0
-0.0180727450 -0.0118663000 0 0
-0.0173639610 -0.0122790160 0 0
-0.0163468810 -0.0126566260 0 0
-0.0151027740 -0.0130400350 0 0
-0.0137415660 -0.0134667390 0 0
-0.0123835290 -0.0139651360 0 0
-0.0111415580 -0.0145486220 0 0
-0.0101074880 -0.0152103810 0 0
-0.0093433330 -0.0159221640 0 0
-0.0088773290 -0.0166399130 0 0
-0.0087062610 -0.0173151990 0 0
-0.0088036840 -0.0179081370 0 0
-0.0091287300 -0.0183969800 0 0
-0.0096307630 -0.0187808070 0 0
-0.0102512720 -0.0190742750 0 0
-0.0109270220 -0.0192976090 0 0
-0.0115956300 -0.0194675780 0 0
-0.0122019670 -0.0195932840 0 0
-0.0127037550 -0.0196767090 0 0
-0.0130759320 -0.0197158480 0 0
-0.0133136080 -0.0197083230 0 0
-0.0134326330 -0.0196541180 0 0
-0.0134667840 -0.0195568090 0 0
-0.0134617480 -0.0194230840 0 0
-0.0134673090 -0.0192609600 0 0
-0.0135298040 -0.0190779180 0 0
-0.0136870170 -0.0188808830 0 0
-0.0139664030 -0.0186789920 0 0
-0.0143852210 -0.0184870640 0 0
-0.0149495380 -0.0183260460 0 0
-0.0156505740 -0.0182187240 0 0
-0.0164609290 -0.0181823270 0 0
-0.0173352560 -0.0182214280 0 0
-0.0182163640 -0.0183238060 0 0
-0.0190428580 -0.0184597330 0 0
-0.0197550210 -0.0185846920 0 0
-0.0202998020 -0.0186466100 0 0
-0.0206366020 -0.0185972280 0 0
-0.0207430700 -0.0184036680 0 0
-0.0206189530 -0.0180559930 0 0
-0.0202872360 -0.0175699480 0 0
-0.0197926340 -0.0169852540 0 0
-0.0191971260 -0.0163586630 0 0
-0.0185725520 -0.0157523890 0 0
-0.0179915350 -0.0152223470 0 0
-0.0175187430 -0.0148113710 0 0
-0.0172044110 -0.0145485700 0 0
-0.0170805380 -0.0144518680 0 0
-0.0171586720 -0.0145305600 0 0
-0.0174288900 -0.0147867960 0 0
-0.0178612810 -0.0152160270 0 0
-0.0184110130 -0.0158057830 0 0
-0.0190260840 -0.0165318390 0 0
-0.0196554200 -0.0173526960 0 0
-0.0202548080 -0.0182058740 0 0
-0.0207892760 -0.0190093140 0 0
-0.0212324840 -0.0196686390 0 0
-0.0215654180 -0.0200889700 0 0
-0.0217763920 -0.0201894280 0 0
-0.0218623490 -0.0199179450 0 0
-0.0218306290 -0.0192635210 0 0
-0.0217013050 -0.0182629870 0 0
-0.0215099800 -0.0169999410 0 0
-0.0213090790 -0.0155960220 0 0
-0.0211641480 -0.0141973770 0 0
-0.0211429340 -0.0129592160 0 0
-0.0212998200 -0.0120291110 0 0
-0.0216616150 -0.0115284590 0 0
-0.0222189210 -0.0115337870 0 0
-0.0229251920 -0.0120638730 0 0
-0.0237053540 -0.0130792040 0 0
-0.0244727000 -0.0144946160 0 0
-0.0251475450 -0.0161990210 0 0
-0.0256697660 -0.0180729400 0 0
-0.0260014180 -0.0199969840 0 0
-0.0261205910 -0.0218518820 0 0
-0.0260113770 -0.0235178570 0 0
-0.0256573850 -0.0248811330 0 0
-0.0250445500 -0.0258489870 0 0
-0.0241715680 -0.0263689490 0 0
-0.0230598380 -0.0264449320 0 0
-0.0217566430 -0.0261427310 0 0
-0.0203322730 -0.0255802340 0 0
-0.0188743270 -0.0249038270 0 0
-0.0174798110 -0.0242585610 0 0
-0.0162447250 -0.0237618910 0 0
-0.0152525110 -0.0234878520 0 0
-0.0145637070 -0.0234633070 0 0
-0.0142095870 -0.0236735490 0 0
-0.0141908970 -0.0240726640 0 0
-0.0144801730 -0.0245945550 0 0
-0.0150265840 -0.0251628000 0 0
-0.0157632370 -0.0256999350 0 0
-0.0166152460 -0.0261372990 0 0
-0.0175067440 -0.0264246110 0 0
-0.0183674620 -0.0265361140 0 0
-0.0191394520 -0.0264695040 0 0
-0.0197823460 -0.0262373470 0 0
-0.0202754250 -0.0258563460 0 0
-0.0206167110 -0.0253406910 0 0
-0.0208200720 -0.0247010050 0 0
-0.0209111010 -0.0239470950 0 0
-0.0209236110 -0.0230931520 0 0
-0.0208997820 -0.0221635150 0 0
-0.0208943510 -0.0211945600 0 0
-0.0209778690 -0.0202277480 0 0
-0.0212312650 -0.0192948150 0 0
-0.0217286790 -0.0184045880 0 0
-0.0225150320 -0.0175409400 0 0
-0.0235899490 -0.0166715220 0 0
-0.0249052610 -0.0157591790 0 0
-0.0263735510 -0.0147707220 0 0
-0.0278801230 -0.0136845350 0 0
-0.0292952790 -0.0124997910 0 0
-0.0304895980 -0.0112462170 -1 0
-0.0313529340 -0.0099900310 -1 0
-0.0318130840 -0.0088309960 -1 0
-0.0318490050 -0.0078875540 -1 0
-0.0314942480 -0.0072719390 -1 0
-0.0308278950 -0.0070627490 -1 0
-0.0299538480 -0.0072850830 0 0
-0.0289727630 -0.0079057080 0 0
-0.0279531410 -0.0088443560 0 0
-0.0269102600 -0.0099960080 0 0
-0.0258025130 -0.0112560990 0 0
-0.0245495370 -0.0125417300 0 0
-0.0230651610 -0.0138057790 0 0
-0.0212911200 -0.0150437310 0 0
-0.0192203560 -0.0162927460 0 0
-0.0169052210 -0.0176214420 0 0
-0.0144517500 -0.0191102780 0 0
-0.0120054060 -0.0208257770 0 0
-0.0097317350 -0.0227949560 0 0
-0.0077905920 -0.0249879920 0 0
-0.0063050200 -0.0273158110 0 0
-0.0053344760 -0.0296436160 0 0
-0.0048652460 -0.0318147600 0 -1
-0.0048233350 -0.0336771420 0 -1
-0.0051035230 -0.0351058270 0 -1
-0.0056018730 -0.0360166520 0 -1
-0.0062399660 -0.0363678200 0 -1
-0.0069747560 -0.0361525500 0 -1
-0.0077948850 -0.0353913900 0 -1
-0.0087087550 -0.0341313450 0 -1
-0.0097298560 -0.0324511300 0 -1
-0.0108639560 -0.0304647730 0 -1
-0.0121014880 -0.0283160700 0 0
-0.0134154540 -0.0261631110 0 0
-0.0147634220 -0.0241578380 0 0
-0.0160924980 -0.0224256390 0 0
-0.0173457880 -0.0210472720 0 0
-0.0184690220 -0.0200448870 0 0
-0.0194170730 -0.0193759820 0 0
-0.0201600120 -0.0189404900 0 0
-0.0206883180 -0.0186039950 0 0
-0.0210168120 -0.0182339230 0 0
-0.0211849320 -0.0177380300 0 0
-0.0212496380 -0.0170911470 0 0
-0.0212707430 -0.0163408730 0 0
-0.0212947450 -0.0155922390 0 0
-0.0213449170 -0.0149786210 0 0
-0.0214202300 -0.0146289820 0 0
-0.0215001930 -0.0146405460 0 0
-0.0215520010 -0.0150620510 0 0
-0.0215389410 -0.0158881870 0 0
-0.0214307840 -0.0170634130 0 0
-0.0212152910 -0.0184928750 0 0
-0.0209063410 -0.0200583280 0 0
-0.0205441160 -0.0216359700 0 0
-0.0201877520 -0.0231109240 0 0
-0.0199069070 -0.0243827980 0 0
-0.0197794550 -0.0253611210 0 0
-0.0198939750 -0.0259577000 0 0
-0.0203452690 -0.0260883840 0 0
-0.0212136070 -0.0256908550 0 0
-0.0225336480 -0.0247507960 0 0
-0.0242683260 -0.0233207200 0 0
-0.0262974510 -0.0215210210 0 0
-0.0284222710 -0.0195248920 0 0
-0.0303852490 -0.0175356820 -1 0
-0.0319038920 -0.0157634820 -1 0
-0.0327137200 -0.0144031520 -1 0
-0.0326110160 -0.0136144890 -1 0
-0.0314845740 -0.0135058330 -1 0
-0.0293297620 -0.0141228660 0 0
-0.0262448790 -0.0154442900 0 0
-0.0224144130 -0.0173852140 0 0
-0.0180858640 -0.0198070980 0 0
-0.0135462850 -0.0225315200 0 0
-0.0091005350 -0.0253553460 0 0
-0.0050489950 -0.0280657750 0 0
-0.0016624520 -0.0304541910 0 -1
0.0008441420 -0.0323301790 0 -1
0.0023333930 -0.0335400470 0 -1
0.0027570690 -0.0339910350 0 -1
0.0021565470 -0.0336741850 0 -1
0.0006550480 -0.0326749900 0 -1
-0.0015561730 -0.0311648720 0 -1
-0.0042387300 -0.0293741050 0 0
-0.0071357920 -0.0275535480 0 0
-0.0100050480 -0.0259349770 0 0
-0.0126488670 -0.0246964770 0 0
-0.0149337650 -0.0239359310 0 0
-0.0167940630 -0.0236585380 0 0
-0.0182214550 -0.0237870210 0 0
-0.0192482980 -0.0241938070 0 0
-0.0199320000 -0.0247386530 0 0
-0.0203426850 -0.0252923250 0 0
-0.0205530350 -0.0257409530 0 0
-0.0206295950 -0.0259808560 0 0
-0.0206261970 -0.0259169920 0 0
-0.0205811600 -0.0254707000 0 0
-0.0205189970 -0.0245925860 0 0
-0.0204552900 -0.0232726100 0 0
-0.0204030240 -0.0215427490 0 0
-0.0203783550 -0.0194723730 0 0
-0.0204014110 -0.0171595640 0 0
-0.0204886410 -0.0147232970 0 0
-0.0206393520 -0.0123001110 0 0
-0.0208231950 -0.0100440230 0 0
-0.0209745300 -0.0081239270 0 0
-0.0209985620 -0.0067118480 0 0
-0.0207929000 -0.0059578830 0 0
-0.0202814370 -0.0059546110 0 0
-0.0194471370 -0.0067043190 0 0
-0.0183471610 -0.0081072930 0 0
-0.0171032690 -0.0099818380 0 0
-0.0158743330 -0.0121109870 0 0
-0.0148237910 -0.0142974160 0 0
-0.0140909780 -0.0164045570 0 0
-0.0137691750 -0.0183703250 0 0
-0.0138899650 -0.0201940980 0 0
-0.0144137810 -0.0219074900 0 0
-0.0152306270 -0.0235413800 0 0
-0.0161784550 -0.0250991340 0 0
-0.0170821780 -0.0265422510 0 0
-0.0178045690 -0.0277902040 0 0
-0.0182899250 -0.0287331070 0 0
-0.0185799460 -0.0292549580 0 0
-0.0187922600 -0.0292632380 0 0
-0.0190713300 -0.0287171550 0 0
-0.0195351430 -0.0276476310 0 0
-0.0202393420 -0.0261664030 0 0
-0.0211685330 -0.0244617270 0 0
-0.0222509220 -0.0227759250 0 0
-0.0233839340 -0.0213653040 0 0
-0.0244590040 -0.0204540600 0 0
-0.0253800360 -0.0201977160 0 0
-0.0260749320 -0.0206645510 0 0
-0.0265019100 -0.0218347450 0 0
-0.0266537770 -0.0236122550 0 0
-0.0265614850 -0.0258424910 0 0
-0.0262926370 -0.0283308990 0 0
-0.0259372150 -0.0308627800 0 -1
-0.0255785130 -0.0332261920 0 -1
-0.0252592640 -0.0352357630 0 -1
-0.0249603250 -0.0367525630 0 -1
-0.0246040850 -0.0376968430 0 -1
-0.0240812250 -0.0380528420 0 -1
-0.0232885200 -0.0378655630 0 -1
-0.0221621810 -0.0372297350 0 -1
-0.0206955620 -0.0362726410 0 -1
-0.0189399320 -0.0351342160 0 -1
-0.0169953850 -0.0339487750 0 -1
-0.0149991740 -0.0328327830 0 -1
-0.0131150760 -0.0318804810 0 -1
-0.0115249280 -0.0311640710 0 -1
-0.0104189270 -0.0307327580 0 -1
-0.0099765270 -0.0306089200 0 -1
-0.0103340970 -0.0307847190 0 -1
-0.0115481830 -0.0312214450 0 -1
-0.0135719660 -0.0318491060 0 -1
-0.0162587090 -0.0325639040 0 -1
-0.0193922980 -0.0332279880 0 -1
-0.0227299570 -0.0336806770 0 -1
-0.0260361910 -0.0337664560 0 -1
-0.0290961190 -0.0333748930 0 -1
-0.0317129540 -0.0324784550 -1 -1
-0.0337042470 -0.0311521160 -1 -1
-0.0349089760 -0.0295652740 -1 0
-0.0352065480 -0.0279478430 -1 0
-0.0345395950 -0.0265419800 -1 0
-0.0329320810 -0.0255548730 -1 0
-0.0304971220 -0.0251253040 -1 0
-0.0274304160 -0.0253095430 0 0
-0.0239879890 -0.0260853400 0 0
-0.0204518250 -0.0273687440 0 0
-0.0170910130 -0.0290367330 0 0
-0.0141275080 -0.0309495430 0 -1
-0.0117142610 -0.0329699150 0 -1
-0.0099291920 -0.0349782210 0 -1
-0.0087826830 -0.0368809760 0 -1
-0.0082328270 -0.0386102210 0 -1
-0.0082031280 -0.0401151740 0 -1
-0.0085987190 -0.0413521840 0 -1
-0.0093179540 -0.0422795360 0 -1
-0.0102589100 -0.0428587560 0 -1
-0.0113237520 -0.0430599400 0 -1
-0.0124237110 -0.0428691220 0 -1
-0.0134841170 -0.0422963750 0 -1
-0.0144486110 -0.0413814130 0 -1
-0.0152837820 -0.0401937040 0 -1
-0.0159847370 -0.0388275890 0 -1
-0.0165780180 -0.0373943070 0 -1
-0.0171160900 -0.0360109300 0 -1
-0.0176610630 -0.0347852460 0 -1
-0.0182620600 -0.0337983320 0 -1
-0.0189344790 -0.0330904430 0 -1
-0.0196481310 -0.0326572090 0 -1
-0.0203273230 -0.0324585080 0 -1
-0.0208615300 -0.0324339700 0 -1
-0.0211239690 -0.0325161290 0 -1
-0.0209957600 -0.0326381020 0 -1
-0.0203915280 -0.0327387150 0 -1
-0.0192803430 -0.0327675100 0 -1
-0.0176970300 -0.0326889390 0 -1
-0.0157424960 -0.0324840480 0 -1
-0.0135744320 -0.0321491740 0 -1
-0.0113899550 -0.0316940090 0 -1
-0.0094017090 -0.0311423870 0 -1
-0.0078096530 -0.0305354400 0 -1
-0.0067706600 -0.0299326150 0 0
-0.0063702290 -0.0294070510 0 0
-0.0066056570 -0.0290357370 0 0
-0.0073907400 -0.0288864060 0 0
-0.0085832490 -0.0290024470 0 0
-0.0100238500 -0.0293883430 0 0
-0.0115702620 -0.0300005650 0 -1
-0.0131164690 -0.0307494370 0 -1
-0.0145953790 -0.0315147570 0 -1
-0.0159683940 -0.0321719310 0 -1
-0.0172086760 -0.0326191280 0 -1
-0.0182869700 -0.0327953060 0 -1
-0.0191666640 -0.0326845030 0 -1
-0.0198092040 -0.0323085190 0 -1
-0.0201860840 -0.0317141940 0 -1
-0.0202914580 -0.0309622910 0 -1
-0.0201500460 -0.0301213130 0 -1
-0.0198169880 -0.0292625790 0 0
-0.0193677840 -0.0284500490 0 0
-0.0188799420 -0.0277253820 0 0
-0.0184141490 -0.0270982770 0 0
-0.0180052860 -0.0265507000 0 0
-0.0176676650 -0.0260520680 0 0
-0.0174098230 -0.0255751060 0 0
-0.0172503900 -0.0251054000 0 0
-0.0172301240 -0.0246433920 0 0
-0.0174179980 -0.0241986890 0 0
-0.0179055340 -0.0237771650 0 0
-0.0187824470 -0.0233672900 0 0
-0.0200972300 -0.0229380490 0 0
-0.0218203940 -0.0224555700 0 0
-0.0238304240 -0.0219106370 0 0
-0.0259294340 -0.0213398830 0 0
-0.0278786060 -0.0208281390 0 0
-0.0294376060 -0.0204911570 0 0
-0.0303979800 -0.0204468060 -1 0
-0.0306077760 -0.0207859030 -1 0
-0.0299883780 -0.0215524350 0 0
-0.0285457110 -0.0227384040 0 0
-0.0263757370 -0.0242917550 0 0
-0.0236600120 -0.0261305550 0 0
-0.0206459020 -0.0281558710 0 0
-0.0176107790 -0.0302596930 0 -1
-0.0148170550 -0.0323301770 0 -1
-0.0124703820 -0.0342588260 0 -1
-0.0106933000 -0.0359490150 0 -1
-0.0095206520 -0.0373200020 0 -1
-0.0089150380 -0.0383041440 0 -1
-0.0087946880 -0.0388430030 0 -1
-0.0090642290 -0.0388898900 0 -1
-0.0096419050 -0.0384200320 0 -1
-0.0104799350 -0.0374415090 0 -1
-0.0115732210 -0.0359981150 0 -1
-0.0129509130 -0.0341619230 0 -1
-0.0146507180 -0.0320222240 0 -1
-0.0166840360 -0.0296792900 0 0
-0.0190064800 -0.0272446340 0 0
-0.0215071800 -0.0248417860 0 0
-0.0240205600 -0.0226006100 0 0
-0.0263542020 -0.0206448470 0 0
-0.0283209610 -0.0190795780 0 0
-0.0297643810 -0.0179853910 0 0
-0.0305742750 -0.0174192710 -1 0
-0.0306955760 -0.0174157830 -1 0
-0.0301323840 -0.0179831760 -1 0
-0.0289461620 -0.0190957940 0 0
-0.0272471550 -0.0206879970 0 0
-0.0251809590 -0.0226528160 0 0
-0.0229149070 -0.0248457330 0 0
-0.0206267640 -0.0270936020 0 0
-0.0184923730 -0.0292094640 0 0
-0.0166680400 -0.0310127810 0 -1
-0.0152706810 -0.0323501520 0 -1
-0.0143644360 -0.0331085600 0 -1
-0.0139588360 -0.0332173500 0 -1
-0.0140158930 -0.0326436420 0 -1
-0.0144606940 -0.0313908110 0 -1
-0.0151937780 -0.0295060480 0 0
-0.0161067370 -0.0270931430 0 0
-0.0170997870 -0.0243190460 0 0
-0.0180961630 -0.0214041550 0 0
-0.0190493500 -0.0185948780 0 0
-0.0199419980 -0.0161254980 0 0
-0.0207774510 -0.0141808270 0 0
-0.0215678340 -0.0128720170 0 0
-0.0223234010 -0.0122337580 0 0
-0.0230440730 -0.0122412240 0 0
-0.0237105800 -0.0128362760 0 0
-0.0242741400 -0.0139510580 0 0
-0.0246491860 -0.0155211030 0 0
-0.0247176770 -0.0174856270 0 0
-0.0243504250 -0.0197787370 0 0
-0.0234419830 -0.0223185720 0 0
-0.0219477970 -0.0250005690 0 0
-0.0199101490 -0.0276990230 0 0
-0.0174631950 -0.0302777570 0 -1
-0.0148154450 -0.0326047190 0 -1
-0.0122172810 -0.0345624870 0 -1
-0.0099258130 -0.0360520340 0 -1
-0.0081756690 -0.0369946180 0 -1
-0.0071569880 -0.0373384380 0 -1
-0.0069987520 -0.0370709620 0 -1
-0.0077567520 -0.0362293670 0 -1
-0.0094083350 -0.0348983790 0 -1
-0.0118570710 -0.0331911830 0 -1
-0.0149453080 -0.0312211190 0 -1
-0.0184674950 -0.0290807320 0 0
-0.0221813730 -0.0268422290 0 0
-0.0258209080 -0.0245792900 0 0
-0.0291136230 -0.0223955160 0 0
-0.0318007830 -0.0204411760 -1 0
-0.0336587660 -0.0189069120 -1 0
-0.0345198000 -0.0179934970 -1 0
-0.0342879130 -0.0178670160 -1 0
-0.0329462590 -0.0186166220 -1 0
-0.0305548040 -0.0202319450 -1 0
-0.0272395950 -0.0226075690 0 0
-0.0231781570 -0.0255680570 0 0
-0.0185886490 -0.0288982950 0 0
-0.0137264040 -0.0323676020 0 -1
-0.0088807640 -0.0357467260 0 -1
-0.0043608240 -0.0388225140 0 -1
-0.0004684700 -0.0414118150 0 -1
0.0025308960 -0.0433706200 0 -1
0.0044295920 -0.0445936960 0 -1
0.0050887110 -0.0450056710 0 -1
0.0044424400 -0.0445519730 0 -1
0.0025008130 -0.0432000730 0 -1
-0.0006446780 -0.0409553180 0 -1
-0.0048114490 -0.0378853870 0 -1
-0.0097167700 -0.0341402810 0 -1
-0.0149795120 -0.0299548640 0 0
-0.0201429780 -0.0256281060 0 0
-0.0247223290 -0.0214840200 0 0
-0.0282702690 -0.0178276440 0 0
-0.0304458930 -0.0149094800 -1 0
-0.0310687790 -0.0129035480 -1 0
-0.0301450540 -0.0118957500 -1 0
-0.0278597860 -0.0118791700 0 0
-0.0245374390 -0.0127587710 0 0
-0.0205797390 -0.0143696890 0 0
-0.0163972130 -0.0165078920 0 0
-0.0123514530 -0.0189650650 0 0
-0.0087174110 -0.0215576560 0 0
-0.0056654040 -0.0241443790 0 0
-0.0032601370 -0.0266323770 0 0
-0.0014773280 -0.0289740510 0 0
-0.0002368730 -0.0311552200 0 -1
0.0005570030 -0.0331765870 0 -1
0.0009823080 -0.0350344440 0 -1
0.0010811750 -0.0367073940 0 -1
0.0008590680 -0.0381526290 0 -1
0.0002999530 -0.0393105510 0 -1
-0.0006068730 -0.0401117920 0 -1
-0.0018377810 -0.0404804210 0 -1
-0.0033165010 -0.0403342920 0 -1
-0.0049159900 -0.0395913160 0 -1
-0.0064803850 -0.0381898540 0 -1
-0.0078570510 -0.0361222430 0 -1
-0.0089256730 -0.0334683980 0 -1
-0.0096170510 -0.0304104160 0 -1
-0.0099214110 -0.0272152020 0 0
-0.0098889060 -0.0241873050 0 0
-0.0096248720 -0.0216085290 0 0
-0.0092802730 -0.0196857460 0 0
-0.0090347700 -0.0185211870 0 0
-0.0090714700 -0.0181079350 0 0
-0.0095475540 -0.0183462030 0 0
-0.0105669720 -0.0190727610 0 0
-0.0121603740 -0.0200945170 0 0
-0.0142754850 -0.0212192230 0 0
-0.0167774570 -0.0222812130 0 0
-0.0194574100 -0.0231624080 0 0
-0.0220513790 -0.0238060680 0 0
-0.0242732030 -0.0242188680 0 0
-0.0258566290 -0.0244604980 0 0
-0.0265933730 -0.0246244220 0 0
-0.0263573520 -0.0248143470 0 0
-0.0251161330 -0.0251212460 0 0
-0.0229349900 -0.0256064990 0 0
-0.0199749480 -0.0262947950 0 0
-0.0164814090 -0.0271758570 0 0
-0.0127599830 -0.0282114460 0 0
-0.0091409250 -0.0293446120 0 0
-0.0059391420 -0.0305083270 0 -1
-0.0034205300 -0.0316293030 0 -1
-0.0017841310 -0.0326229510 0 -1
-0.0011583280 -0.0333816790 0 -1
-0.0015971050 -0.0337697170 0 -1
-0.0030666770 -0.0336402140 0 -1
-0.0054297340 -0.0328767200 0 -1
-0.0084428090 -0.0314429280 0 -1
-0.0117756510 -0.0294165900 0 0
-0.0150515290 -0.0269900880 0 0
-0.0179010150 -0.0244358650 0 0
-0.0200181990 -0.0220495980 0 0
-0.0212075050 -0.0200890400 0 0
-0.0214115490 -0.0187235840 0 0
-0.0207137650 -0.0180069730 0 0
-0.0193134060 -0.0178830790 0 0
-0.0174775240 -0.0182235910 0 0
-0.0154832330 -0.0188805950 0 0
-0.0135673950 -0.0197318260 0 0
-0.0118962720 -0.0207054580 0 0
-0.0105579750 -0.0217828170 0 0
-0.0095717060 -0.0229833260 0 0
-0.0089036160 -0.0243383690 0 0
-0.0084827200 -0.0258621330 0 0
-0.0082188400 -0.0275268840 0 0
-0.0080264990 -0.0292491250 0 0
-0.0078506030 -0.0308928040 0 -1
-0.0076846200 -0.0322925710 0 -1
-0.0075754360 -0.0332922850 0 -1
-0.0076127680 -0.0337860220 0 -1
-0.0079034910 -0.0337458980 0 -1
-0.0085382460 -0.0332257130 0 -1
-0.0095651500 -0.0323400160 0 -1
-0.0109821800 -0.0312290930 0 -1
-0.0127454370 -0.0300262200 0 -1
-0.0147787870 -0.0288413220 0 0
-0.0169739900 -0.0277640760 0 0
-0.0191844100 -0.0268757100 0 0
-0.0212253740 -0.0262549260 0 0
-0.0228923490 -0.0259730920 0 0
-0.0239963930 -0.0260852530 0 0
-0.0244045110 -0.0266250830 0 0
-0.0240699350 -0.0276040840 0 0
-0.0230435030 -0.0290083330 0 0
-0.0214649350 -0.0307880270 0 -1
-0.0195381270 -0.0328432440 0 -1
-0.0174986910 -0.0350157080 0 -1
-0.0155826980 -0.0370966510 0 -1
-0.0139992490 -0.0388553960 0 -1
-0.0129032470 -0.0400839260 0 -1
-0.0123690380 -0.0406430190 0 -1
-0.0123739880 -0.0404921250 0 -1
-0.0128022890 -0.0396926230 0 -1
-0.0134727670 -0.0383867930 0 -1
-0.0141842110 -0.0367628700 0 -1
-0.0147625960 -0.0350179460 0 -1
-0.0150943140 -0.0333282950 0 -1
-0.0151396960 -0.0318320320 0 -1
-0.0149328930 -0.0306237090 0 -1
-0.0145771760 -0.0297560320 0 0
-0.0142378100 -0.0292421470 0 0
-0.0141261660 -0.0290557240 0 0
-0.0144681710 -0.0291334440 0 0
-0.0154566290 -0.0293868880 0 0
-0.0171950580 -0.0297240740 0 0
-0.0196480680 -0.0300724220 0 -1
-0.0226171880 -0.0303935810 0 -1
-0.0257565830 -0.0306857730 0 -1
-0.0286308150 -0.0309752300 0 -1
-0.0308013350 -0.0313022040 -1 -1
-0.0319164880 -0.0317081060 -1 -1
-0.0317782490 -0.0322273670 -1 -1
-0.0303696300 -0.0328827000 -1 -1
-0.0278432760 -0.0336802830 0 -1
-0.0244833610 -0.0346043850 0 -1
-0.0206540670 -0.0356152100 0 -1
-0.0167447850 -0.0366528140 0 -1
-0.0131218470 -0.0376435590 0 -1
-0.0100943320 -0.0385027910 0 -1
-0.0078926160 -0.0391352100 0 -1
-0.0066524880 -0.0394435550 0 -1
-0.0064021200 -0.0393521800 0 -1
-0.0070558870 -0.0388369940 0 -1
-0.0084213860 -0.0379439650 0 -1
-0.0102251150 -0.0367844380 0 -1
-0.0121576120 -0.0355094690 0 -1
-0.0139311090 -0.0342746600 0 -1
-0.0153371660 -0.0332067830 0 -1
-0.0162887420 -0.0323779790 0 -1
-0.0168305500 -0.0317902110 0 -1
-0.0171095290 -0.0313743210 0 -1
-0.0173148100 -0.0310079160 0 -1
-0.0176120440 -0.0305497760 0 -1
-0.0180971490 -0.0298808250 0 0
-0.0187811600 -0.0289397390 0 0
-0.0196027580 -0.0277440780 0 0
-0.0204557980 -0.0263920460 0 0
-0.0212184870 -0.0250441590 0 0
-0.0217775050 -0.0238883520 0 0
-0.0220458090 -0.0230976880 0 0
-0.0219730080 -0.0227949960 0 0
-0.0215472170 -0.0230362530 0 0
-0.0207899570 -0.0238131010 0 0
-0.0197484560 -0.0250652790 0 0
-0.0184896110 -0.0266946190 0 0
-0.0170963290 -0.0285779400 0 0
-0.0156625750 -0.0305779130 0 -1
-0.0142827190 -0.0325502450 0 -1
-0.0130367020 -0.0343480350 0 -1
-0.0119799250 -0.0358275320 0 -1
-0.0111448960 -0.0368577680 0 -1
-0.0105510330 -0.0373327970 0 -1
-0.0102126610 -0.0371851640 0 -1
-0.0101392190 -0.0364001080 0 -1
-0.0103295080 -0.0350274950 0 -1
-0.0107664640 -0.0331858430 0 -1
-0.0114162390 -0.0310537210 0 -1
-0.0122289430 -0.0288478570 0 0
-0.0131379180 -0.0267915340 0 0
-0.0140605360 -0.0250799000 0 0
-0.0149059020 -0.0238505870 0 0
-0.0155900310 -0.0231684230 0 0
-0.0160531470 -0.0230292840 0 0
-0.0162720440 -0.0233792210 0 0
-0.0162634770 -0.0241376730 0 0
-0.0160783600 -0.0252149280 0 0
-0.0157888060 -0.0265210020 0 0
-0.0154724720 -0.0279673830 0 0
-0.0152001770 -0.0294642150 0 0
-0.0150305670 -0.0309186320 0 -1
-0.0150111810 -0.0322414600 0 -1
-0.0151813390 -0.0333622400 0 -1
-0.0155701310 -0.0342421100 0 -1
-0.0161871560 -0.0348729980 0 -1
-0.0170123970 -0.0352615050 0 -1
-0.0179943810 -0.0354078010 0 -1
-0.0190592970 -0.0352943160 0 -1
-0.0201256660 -0.0348916470 0 -1
-0.0211173780 -0.0341758710 0 -1
-0.0219719820 -0.0331450580 0 -1
-0.0226437830 -0.0318274760 0 -1
-0.0231006690 -0.0302825640 0 -1
-0.0233154790 -0.0285995920 0 0
-0.0232574050 -0.0268958700 0 0
-0.0228893520 -0.0253115250 0 0
-0.0221737700 -0.0239966770 0 0
-0.0210863930 -0.0230899150 0 0
-0.0196327490 -0.0226922560 0 0
-0.0178586470 -0.0228447650 0 0
-0.0158492340 -0.0235180080 0 0
-0.0137186040 -0.0246175690 0 0
-0.0115950620 -0.0260041030 0 0
-0.0096053390 -0.0275205930 0 0
-0.0078590700 -0.0290166900 0 0
-0.0064348090 -0.0303629610 0 -1
-0.0053706000 -0.0314546410 0 -1
-0.0046637840 -0.0322092270 0 -1
-0.0042830020 -0.0325638520 0 -1
-0.0041883900 -0.0324781230 0 -1
-0.0043493140 -0.0319442860 0 -1
-0.0047518580 -0.0309991490 0 -1
-0.0053989390 -0.0297279610 0 0
-0.0063101700 -0.0282537140 0 0
-0.0075212360 -0.0267131870 0 0
-0.0090760500 -0.0252280420 0 0
-0.0110088560 -0.0238814930 0 0
-0.0133229630 -0.0227072030 0 0
-0.0159757010 -0.0216916860 0 0
-0.0188707860 -0.0207896120 0 0
-0.0218520360 -0.0199505680 0 0
-0.0246992870 -0.0191497740 0 0
-0.0271367880 -0.0184083620 0 0
-0.0288601500 -0.0177922080 0 0
-0.0295779480 -0.0173912960 0 0
-0.0290606570 -0.0172923300 0 0
-0.0271883740 -0.0175580150 0 0
-0.0239861560 -0.0182180030 0 0
-0.0196372590 -0.0192671060 0 0
-0.0144712870 -0.0206642700 0 0
-0.0089306570 -0.0223301600 0 0
-0.0035212520 -0.0241449640 0 0
0.0012455870 -0.0259484340 0 0
0.0049116840 -0.0275451580 0 0
0.0071261230 -0.0287213150 0 0
0.0076931850 -0.0292783580 0 0
0.0066089600 -0.0290789470 0 0
0.0040737000 -0.0280870670 0 0
0.0004667890 -0.0263814220 0 0
-0.0037153860 -0.0241355540 0 0
-0.0079405280 -0.0215783560 0 0
-0.0117175400 -0.0189557800 0 0
-0.0146574810 -0.0165047960 0 0
-0.0165160300 -0.0144370950 0 0
-0.0172143130 -0.0129244840 0 0
-0.0168327770 -0.0120823300 0 0
-0.0155776490 -0.0119565590 0 0
-0.0137280790 -0.0125232470 0 0
-0.0115788750 -0.0137017650 0 0
-0.0093947050 -0.0153714310 0 0
-0.0073843050 -0.0173812340 0 0
-0.0056947980 -0.0195522110 0 0
-0.0044231290 -0.0216803370 0 0
-0.0036367700 -0.0235479750 0 0
-0.0033869770 -0.0249469260 0 0
-0.0037001210 -0.0257089130 0 0
-0.0045511080 -0.0257338080 0 0
-0.0058386040 -0.0250075980 0 0
-0.0073798660 -0.0236084440 0 0
-0.0089293670 -0.0217019810 0 0
-0.0102147420 -0.0195248220 0 0
-0.0109818950 -0.0173539250 0 0
-0.0110411950 -0.0154633720 0 0
-0.0103027940 -0.0140781080 0 0
-0.0087881270 -0.0133397450 0 0
-0.0066139470 -0.0132951670 0 0
-0.0039593490 -0.0139067150 0 0
-0.0010324100 -0.0150736720 0 0
0.0019530640 -0.0166555730 0 0
0.0047920660 -0.0184937990 0 0
0.0073023920 -0.0204295330 0 0
0.0093419340 -0.0223141450 0 0
0.0108234130 -0.0240111500 0 0
0.0117179310 -0.0253963240 0 0
0.0120457040 -0.0263638050 0 0
0.0118598450 -0.0268386660 0 0
0.0112288330 -0.0267890130 0 0
0.0102208380 -0.0262299150 0 0
0.0088950140 -0.0252178200 0 0
0.0073050170 -0.0238413870 0 0
0.0055126060 -0.0222147800 0 0
0.0036015060 -0.0204724520 0 0
0.0016824560 -0.0187600640 0 0
-0.0001131080 -0.0172194640 0 0
-0.0016485500 -0.0159707280 0 0
-0.0028032850 -0.0150950740 0 0
-0.0034958820 -0.0146205850 0 0
-0.0037052460 -0.0145120930 0 0
-0.0034866320 -0.0146664310 0 0
-0.0029781690 -0.0149155050 0 0
-0.0023899130 -0.0150442060 0 0
-0.0019664990 -0.0148313580 0 0
-0.0019243520 -0.0141098440 0 0
-0.0023822240 -0.0128238010 0 0
-0.0033128640 -0.0110559320 0 0
-0.0045352090 -0.0090128570 0 0
-0.0057493790 -0.0069773130 0 0
-0.0066013220 -0.0052485420 0 0
-0.0067561890 -0.0040921130 0 0
-0.0059626500 -0.0037104520 0 0
-0.0040990690 -0.0042320030 0 0
-0.0011970000 -0.0057087920 0 0
0.0025613110 -0.0081143710 0 0
0.0068703930 -0.0113428410 0 0
0.0113471750 -0.0152147490 0 0
0.0155853080 -0.0194929820 0 0
0.0192081190 -0.0239066300 0 0
0.0219112060 -0.0281775650 0 0
0.0234903000 -0.0320441350 0 -1
0.0238545640 -0.0352786570 0 -1
0.0230263730 -0.0376991370 0 -1
0.0211277980 -0.0391775670 0 -1
0.0183533470 -0.0396458030 0 -1
0.0149315660 -0.0390972890 0 -1
0.0110873290 -0.0375827260 0 -1
0.0070224600 -0.0352021270 0 -1
0.0029215910 -0.0320995950 0 -1
-0.0010291340 -0.0284634960 0 0
-0.0046304090 -0.0245263490 0 0
-0.0076759000 -0.0205561970 0 0
-0.0099733480 -0.0168359090 0 0
-0.0113719490 -0.0136328660 0 0
-0.0117892690 -0.0111659220 0 0
-0.0112320240 -0.0095789430 0 0
-0.0098034690 -0.0089279880 0 0
-0.0076921760 -0.0091820820 0 0
-0.0051435480 -0.0102325520 0 0
-0.0024217850 -0.0119080020 0 0
0.0002260200 -0.0139950640 0 0
0.0025929150 -0.0162631830 0 0
0.0045199430 -0.0184891530 0 0
0.0058951870 -0.0204786940 0 0
0.0066503590 -0.0220840190 0 0
0.0067571330 -0.0232133750 0 0
0.0062255860 -0.0238268240 0 0
0.0051076260 -0.0239209480 0 0
0.0035023580 -0.0235158590 0 0
0.0015546300 -0.0226544610 0 0
-0.0005583930 -0.0214098580 0 0
-0.0026494070 -0.0198898750 0 0
-0.0045450430 -0.0182317900 0 0
-0.0061077900 -0.0165862930 0 0
-0.0072548310 -0.0150922290 0 0
-0.0079702860 -0.0138472960 0 0
-0.0083026890 -0.0128865950 0 0
-0.0083435210 -0.0121825900 0 0
-0.0081943810 -0.0116704090 0 0
-0.0079365900 -0.0112874310 0 0
-0.0076137270 -0.0110081790 0 0
-0.0072317950 -0.0108598370 0 0
-0.0067750990 -0.0109150620 0 0
-0.0062280130 -0.0112688300 0 0
-0.0055905930 -0.0120098870 0 0
-0.0048826230 -0.0131959140 0 0
-0.0041386380 -0.0148375200 0 0
-0.0033999880 -0.0168913470 0 0
-0.0027095990 -0.0192601120 0 0
-0.0021108960 -0.0217988950 0 0
-0.0016467920 -0.0243290010 0 0
-0.0013541930 -0.0266596300 0 0
-0.0012555980 -0.0286138490 0 0
-0.0013547840 -0.0300521660 0 -1
-0.0016410600 -0.0308865340 0 -1
-0.0020989610 -0.0310807500 0 -1
-0.0027155660 -0.0306408270 0 -1
-0.0034806920 -0.0296062870 0 0
-0.0043827780 -0.0280509000 0 0
-0.0054064900 -0.0260895370 0 0
-0.0065333590 -0.0238786740 0 0
-0.0077407890 -0.0216014710 0 0
-0.0089964210 -0.0194404080 0 0
-0.0102528320 -0.0175482320 0 0
-0.0114507800 -0.0160256830 0 0
-0.0125319370 -0.0149100530 0 0
-0.0134530870 -0.0141775320 0 0
-0.0141930020 -0.0137596070 0 0
-0.0147495440 -0.0135676280 0 0
-0.0151317490 -0.0135158870 0 0
-0.0153543220 -0.0135367560 0 0
-0.0154357390 -0.0135884170 0 0
-0.0153916970 -0.0136591180 0 0
-0.0152163670 -0.0137685590 0 0
-0.0148590860 -0.0139624810 0 0
-0.0142181490 -0.0142981010 0 0
-0.0131670960 -0.0148249810 0 0
-0.0116060880 -0.0155704640 0 0
-0.0095143910 -0.0165348500 0 0
-0.0069809210 -0.0176932090 0 0
-0.0042021430 -0.0189968060 0 0
-0.0014517450 -0.0203699530 0 0
0.0009647100 -0.0217042540 0 0
0.0027591660 -0.0228584140 0 0
0.0037079300 -0.0236737180 0 0
0.0036878190 -0.0240077180 0 0
0.0026923320 -0.0237737830 0 0
0.0008242190 -0.0229649820 0 0
-0.0017310190 -0.0216492940 0 0
-0.0047413730 -0.0199443620 0 0
-0.0079644840 -0.0179929080 0 0
-0.0111759270 -0.0159512780 0 0
-0.0141840690 -0.0139856350 0 0
-0.0168302910 -0.0122631710 0 0
-0.0189810130 -0.0109332390 0 0
-0.0205240940 -0.0101037210 0 0
-0.0213798950 -0.0098201800 0 0
-0.0215244790 -0.0100521940 0 0
-0.0210082960 -0.0106919500 0 0
-0.0199518780 -0.0115730090 0 0
-0.0185129980 -0.0125119540 0 0
-0.0168386290 -0.0133618400 0 0
-0.0150274890 -0.0140546680 0 0
-0.0131219040 -0.0146121440 0 0
-0.0111242790 -0.0151217830 0 0
-0.0090185180 -0.0156958370 0 0
-0.0067847230 -0.0164349200 0 0
-0.0044101790 -0.0174054640 0 0
-0.0019021800 -0.0186274080 0 0
0.0006989610 -0.0200670670 0 0
0.0033137220 -0.0216359680 0 0
0.0058294380 -0.0232021940 0 0
0.0081173420 -0.0246188840 0 0
0.0100532870 -0.0257631500 0 0
0.0115345290 -0.0265684320 0 0
0.0124887270 -0.0270361080 0 0
0.0128741090 -0.0272246260 0 0
0.0126717610 -0.0272242350 0 0
0.0118739770 -0.0271272060 0 0
0.0104752360 -0.0270007720 0 0
0.0084728700 -0.0268682750 0 0
0.0058812830 -0.0267042400 0 0
0.0027545590 -0.0264470530 0 0
-0.0007959820 -0.0260259680 0 0
-0.0046002940 -0.0253918260 0 0
-0.0084455500 -0.0245388960 0 0
-0.0121041940 -0.0235085520 0 0
-0.0153666750 -0.0223734580 0 0
-0.0180711350 -0.0212104140 0 0
-0.0201228510 -0.0200747270 0 0
-0.0214976010 -0.0189861270 0 0
-0.0222262080 -0.0179301290 0 0
-0.0223656750 -0.0168734730 0 0
-0.0219712580 -0.0157885850 0 0
-0.0210828880 -0.0146786820 0 0
-0.0197290970 -0.0135927600 0 0
-0.0179430090 -0.0126222450 0 0
-0.0157818850 -0.0118799280 0 0
-0.0133404690 -0.0114708350 0 0
-0.0107498830 -0.0114666640 0 0
-0.0081599720 -0.0118907660 0 0
-0.0057115040 -0.0127157380 0 0
-0.0035116750 -0.0138730670 0 0
-0.0016256830 -0.0152715440 0 0
-0.0000855709 -0.0168176280 0 0
0.0010940870 -0.0184296970 0 0
0.0019044990 -0.0200417120 0 0
0.0023383270 -0.0215979330 0 0
0.0023888740 -0.0230432830 0 0
0.0020472360 -0.0243122330 0 0
0.0012979650 -0.0253189470 0 0
0.0001220070 -0.0259555000 0 0
-0.0014855690 -0.0261063020 0 0
-0.0034890510 -0.0256798490 0 0
-0.0057939480 -0.0246476110 0 0
-0.0082496920 -0.0230727130 0 0
-0.0106710380 -0.0211138990 0 0
-0.0128675800 -0.0190019280 0 0
-0.0146723390 -0.0169977010 0 0
-0.0159638060 -0.0153464340 0 0
-0.0166790610 -0.0142399680 0 0
-0.0168200630 -0.0137937470 0 0
-0.0164535030 -0.0140391150 0 0
-0.0156981960 -0.0149271270 0 0
-0.0146984170 -0.0163375850 0 0
-0.0135954070 -0.0180884260 0 0
-0.0125120270 -0.0199472610 0 0
-0.0115535990 -0.0216525960 0 0
-0.0108162890 -0.0229492060 0 0
-0.0103912850 -0.0236317990 0 0
-0.0103573840 -0.0235826930 0 0
-0.0107642370 -0.0227896330 0 0
-0.0116168180 -0.0213380200 0 0
-0.0128707480 -0.0193819020 0 0
-0.0144393050 -0.0171061980 0 0
-0.0162060620 -0.0146958850 0 0
-0.0180373170 -0.0123224730 0 0
-0.0197914280 -0.0101454810 0 0
-0.0213228550 -0.0083169710 0 0
-0.0224796360 -0.0069792120 0 0
-0.0230998410 -0.0062553720 0 0
-0.0230198630 -0.0062389990 0 0
-0.0221026600 -0.0069852350 0 0
-0.0202789410 -0.0085014550 0 0
-0.0175849660 -0.0107356470 0 0
-0.0141835630 -0.0135665600 0 0
-0.0103610350 -0.0168035480 0 0
-0.0064964170 -0.0202014650 0 0
-0.0030052350 -0.0234889040 0 0
-0.0002689030 -0.0264020090 0 0
0.0014315820 -0.0287148700 0 0
0.0019590930 -0.0302611050 0 -1
0.0013322280 -0.0309464340 0 -1
-0.0002904150 -0.0307550180 0 -1
-0.0026429720 -0.0297517010 0 0
-0.0053933830 -0.0280792020 0 0
-0.0081894210 -0.0259471560 0 0
-0.0107077300 -0.0236105970 0 0
-0.0126988890 -0.0213391670 0 0
-0.0140177060 -0.0193826950 0 0
-0.0146319540 -0.0179401890 0 0
-0.0146098950 -0.0171368650 0 0
-0.0140918940 -0.0170115790 0 0
-0.0132553490 -0.0175163260 0 0
-0.0122840130 -0.0185277040 0 0
-0.0113498440 -0.0198661100 0 0
-0.0106087180 -0.0213154700 0 0
-0.0102028850 -0.0226398440 0 0
-0.0102582900 -0.0236008920 0 0
-0.0108691780 -0.0239831030 0 0
-0.0120721340 -0.0236286930 0 0
-0.0138194910 -0.0224753820 0 0
-0.0159652210 -0.0205832430 0 0
-0.0182733140 -0.0181364860 0 0
-0.0204500640 -0.0154147800 0 0
-0.0221931010 -0.0127418330 0 0
-0.0232452600 -0.0104273010 0 0
-0.0234400230 -0.0087170090 0 0
-0.0227269740 -0.0077598170 0 0
-0.0211736210 -0.0075935210 0 0
-0.0189499400 -0.0081495680 0 0
-0.0163030480 -0.0092756620 0 0
-0.0135228830 -0.0107720900 0 0
-0.0108991260 -0.0124315550 0 0
-0.0086773530 -0.0140703130 0 0
-0.0070272090 -0.0155449720 0 0
-0.0060300200 -0.0167580950 0 0
-0.0056838300 -0.0176579330 0 0
-0.0059184840 -0.0182344800 0 0
-0.0066135100 -0.0185121300 0 0
-0.0076143780 -0.0185394700 0 0
-0.0087459850 -0.0183772160 0 0
-0.0098249210 -0.0180866220 0 0
-0.0106733440 -0.0177217330 0 0
-0.0111361870 -0.0173266610 0 0
-0.0111017590 -0.0169346880 0 0
-0.0105251250 -0.0165650720 0 0
-0.0094504700 -0.0162174320 0 0
-0.0080239340 -0.0158674080 0 0
-0.0064875840 -0.0154673240 0 0
-0.0051495360 -0.0149538500 0 0
-0.0043336080 -0.0142638780 0 0
-0.0043209260 -0.0133571960 0 0
-0.0052982290 -0.0122392090 0 0
-0.0073228710 -0.0109734150 0 0
-0.0103098140 -0.0096756770 0 0
-0.0140429210 -0.0084902410 0 0
-0.0182076020 -0.0075569230 0 0
-0.0224364800 -0.0069828020 0 0
-0.0263583330 -0.0068267780 0 0
-0.0296418480 -0.0070970820 0 0
-0.0320287250 -0.0077576740 -1 0
-0.0333544970 -0.0087398240 -1 0
-0.0335570370 -0.0099558490 -1 0
-0.0326735690 -0.0113116580 -1 0
-0.0308295970 -0.0127157090 -1 0
-0.0282236470 -0.0140845930 0 0
-0.0251087470 -0.0153464370 0 0
-0.0217703970 -0.0164411180 0 0
-0.0185030040 -0.0173151370 0 0
-0.0155861720 -0.0179126550 0 0
-0.0132588120 -0.0181693980 0 0
-0.0116915210 -0.0180164930 0 0
-0.0109653340 -0.0173961470 0 0
-0.0110664140 -0.0162846790 0 0
-0.0118991690 -0.0147149690 0 0
-0.0133122830 -0.0127895730 0 0
-0.0151288420 -0.0106769660 0 0
-0.0171721560 -0.0085886000 0 0
-0.0192816810 -0.0067429440 0 0
-0.0213179050 -0.0053285090 0 0
-0.0231592080 -0.0044769130 0 0
-0.0246965460 -0.0042512550 0 0
-0.0258330660 -0.0046485920 0 0
-0.0264928790 -0.0056111070 0 0
-0.0266364790 -0.0070396490 0 0
-0.0262757040 -0.0088057960 0 0
-0.0254819930 -0.0107622070 0 0
-0.0243849470 -0.0127531340 0 0
-0.0231608000 -0.0146255580 0 0
-0.0220132890 -0.0162376990 0 0
-0.0211506840 -0.0174614740 0 0
-0.0207598370 -0.0181819660 0 0
-0.0209769090 -0.0183033530 0 0
-0.0218598060 -0.0177677380 0 0
-0.0233741890 -0.0165819150 0 0
-0.0254032510 -0.0148370180 0 0
-0.0277792640 -0.0127058550 0 0
-0.0303224250 -0.0104139770 -1 0
-0.0328706630 -0.0081957150 -1 0
-0.0352926750 -0.0062535340 -1 0
-0.0374862900 -0.0047334110 -1 0
-0.0393684910 -0.0037178060 -1 0
-0.0408633970 -0.0032303500 -1 0
-0.0418928320 -0.0032461160 -1 0
-0.0423722410 -0.0037047260 -1 0
-0.0422137460 -0.0045249830 -1 0
-0.0413369290 -0.0056191450 -1 0
-0.0396854260 -0.0069049120 -1 0
-0.0372446540 -0.0083136340 -1 0
-0.0340547650 -0.0097933040 -1 0
-0.0302135470 -0.0113054510 -1 0
-0.0258673400 -0.0128168600 0 0
-0.0211947400 -0.0142892200 0 0
-0.0163929620 -0.0156708430 0 0
-0.0116726040 -0.0168937440 0 0
-0.0072549480 -0.0178774930 0 0
-0.0033598390 -0.0185402470 0 0
-0.0001792470 -0.0188165640 0 0
0.0021563640 -0.0186786930 0 0
0.0036049950 -0.0181541450 0 0
0.0042209500 -0.0173315070 0 0
0.0041395500 -0.0163501620 0 0
0.0035448630 -0.0153757470 0 0
0.0026316630 -0.0145681430 0 0
0.0015722330 -0.0140507340 0 0
0.0004950550 -0.0138887290 0 0
-0.0005223810 -0.0140817200 0 0
-0.0014487610 -0.0145727760 0 0
-0.0022862180 -0.0152722510 0 0
-0.0030546920 -0.0160871440 0 0
-0.0037788120 -0.0169426590 0 0
-0.0044809190 -0.0177881070 0 0
-0.0051798370 -0.0185904330 0 0
-0.0058911120 -0.0193260160 0 0
-0.0066242930 -0.0199791290 0 0
-0.0073777590 -0.0205453410 0 0
-0.0081352040 -0.0210305850 0 0
-0.0088658130 -0.0214413540 0 0
-0.0095260960 -0.0217732560 0 0
-0.0100605740 -0.0220095830 0 0
-0.0104018050 -0.0221329760 0 0
-0.0104740580 -0.0221418850 0 0
-0.0102039750 -0.0220605580 0 0
-0.0095366950 -0.0219364510 0 0
-0.0084535060 -0.0218258910 0 0
-0.0069869780 -0.0217743850 0 0
-0.0052286450 -0.0218003660 0 0
-0.0033255970 -0.0218879920 0 0
-0.0014661870 -0.0219897240 0 0
0.0001447790 -0.0220379980 0 0
0.0013215020 -0.0219653580 0 0
0.0019364780 -0.0217292900 0 0
0.0019474110 -0.0213321470 0 0
0.0013975050 -0.0208238050 0 0
0.0003904240 -0.0202822850 0 0
-0.0009425720 -0.0197825000 0 0
-0.0024645290 -0.0193713990 0 0
-0.0040393040 -0.0190613640 0 0
-0.0055328450 -0.0188402360 0 0
-0.0068213730 -0.0186866130 0 0
-0.0078091810 -0.0185784880 0 0
-0.0084478930 -0.0184909770 0 0
-0.0087451700 -0.0183888520 0 0
-0.0087562520 -0.0182235950 0 0
-0.0085620020 -0.0179400710 0 0
-0.0082446820 -0.0174906410 0 0
-0.0078709840 -0.0168509960 0 0
-0.0074837590 -0.0160323040 0 0
-0.0070991280 -0.0150864850 0 0
-0.0067074320 -0.0141038170 0 0
-0.0062791600 -0.0132030210 0 0
-0.0057758810 -0.0125136420 0 0
-0.0051634010 -0.0121518000 0 0
-0.0044251350 -0.0121943370 0 0
-0.0035758670 -0.0126589090 0 0
-0.0026729120 -0.0134958080 0 0
-0.0018171250 -0.0145931640 0 0
-0.0011395050 -0.0157939670 0 0
-0.0007777120 -0.0169222900 0 0
-0.0008493160 -0.0178158560 0 0
-0.0014250600 -0.0183594820 0 0
-0.0025062910 -0.0185092600 0 0
-0.0040151200 -0.0182974570 0 0
-0.0058038420 -0.0178166770 0 0
-0.0076819960 -0.0171911570 0 0
-0.0094527060 -0.0165460160 0 0
-0.0109469420 -0.0159837340 0 0
-0.0120450120 -0.0155740600 0 0
-0.0126806620 -0.0153578680 0 0
-0.0128323340 -0.0153590880 0 0
-0.0125122430 -0.0155959660 0 0
-0.0117613440 -0.0160849530 0 0
-0.0106497550 -0.0168358360 0 0
-0.0092769810 -0.0178419490 0 0
-0.0077677980 -0.0190711950 0 0
-0.0062629300 -0.0204613220 0 0
-0.0049047550 -0.0219200510 0 0
-0.0038192130 -0.0233310970 0 0
-0.0030973360 -0.0245685370 0 0
-0.0027808680 -0.0255194010 0 0
-0.0028551030 -0.0261081990 0 0
-0.0032504340 -0.0263140350 0 0
-0.0038538430 -0.0261737770 0 0
-0.0045294170 -0.0257706030 0 0
-0.0051430400 -0.0252118920 0 0
-0.0055863300 -0.0246018280 0 0
-0.0057979360 -0.0240139580 0 0
-0.0057794560 -0.0234709910 0 0
-0.0055991750 -0.0229411530 0 0
-0.0053774180 -0.0223558430 0 0
-0.0052551980 -0.0216424970 0 0
-0.0053569200 -0.0207589350 0 0
-0.0057596090 -0.0197164790 0 0
-0.0064761380 -0.0185850610 0 0
-0.0074549240 -0.0174799550 0 0
-0.0085944340 -0.0165361670 0 0
-0.0097655630 -0.0158803810 0 0
-0.0108319740 -0.0156083630 0 0
-0.0116625650 -0.0157714060 0 0
-0.0121385520 -0.0163726290 0 0
-0.0121606710 -0.0173713310 0 0
-0.0116579240 -0.0186918400 0 0
-0.0105970430 -0.0202340020 0 0
-0.0089930990 -0.0218830560 0 0
-0.0069201350 -0.0235171020 0 0
-0.0045167220 -0.0250128720 0 0
-0.0019802060 -0.0262530120 0 0
0.0004528130 -0.0271371040 0 0
0.0025366740 -0.0275948260 0 0
0.0040508510 -0.0275965370 0 0
0.0048296200 -0.0271562040 0 0
0.0047792890 -0.0263244720 0 0
0.0038825500 -0.0251752940 0 0
0.0021969920 -0.0237939520 0 0
-0.0001477910 -0.0222722760 0 0
-0.0029566090 -0.0207099280 0 0
-0.0059821050 -0.0192158260 0 0
-0.0089466840 -0.0179046050 0 0
-0.0115719960 -0.0168867990 0 0
-0.0136123820 -0.0162546080 0 0
-0.0148868550 -0.0160667920 0 0
-0.0153043410 -0.0163369170 0 0
-0.0148779440 -0.0170287140 0 0
-0.0137243580 -0.0180609510 0 0
-0.0120457160 -0.0193220770 0 0
-0.0100958540 -0.0206921250 0 0
-0.0081389980 -0.0220652610 0 0
-0.0064109520 -0.0233644610 0 0
-0.0050903440 -0.0245443440 0 0
-0.0042838840 -0.0255853040 0 0
-0.0040270530 -0.0264839810 0 0
-0.0042995760 -0.0272417140 0 0
-0.0050501600 -0.0278510370 0 0
-0.0062186540 -0.0282847120 0 0
-0.0077444740 -0.0284963070 0 0
-0.0095604430 -0.0284363150 0 0
-0.0115811860 -0.0280757320 0 0
-0.0136959020 -0.0274239920 0 0
-0.0157691350 -0.0265347410 0 0
-0.0176489440 -0.0255010520 0 0
-0.0191823110 -0.0244429940 0 0
-0.0202369970 -0.0234884540 0 0
-0.0207243520 -0.0227502220 0 0
-0.0206146310 -0.0223066030 0 0
-0.0199402270 -0.0221915750 0 0
-0.0187888610 -0.0223947020 0 0
-0.0172903040 -0.0228679450 0 0
-0.0155984580 -0.0235369020 0 0
-0.0138719610 -0.0243143800 0 0
-0.0122579030 -0.0251139780 0 0
-0.0108800670 -0.0258619240 0 0
-0.0098300800 -0.0265062710 0 0
-0.0091615830 -0.0270226650 0 0
-0.0088892580 -0.0274156020 0 0
-0.0089923630 -0.0277143820 0 0
-0.0094207250 -0.0279640710 0 0
-0.0101031270 -0.0282133580 0 0
-0.0109588950 -0.0285023940 0 0
-0.0119113450 -0.0288539810 0 0
-0.0128987890 -0.0292704480 0 0
-0.0138778200 -0.0297359380 0 0
-0.0148172520 -0.0302216680 0 -1
-0.0156870460 -0.0306920530 0 -1
-0.0164493260 -0.0311111040 0 -1
-0.0170570900 -0.0314481250 0 -1
-0.0174625450 -0.0316806410 0 -1
-0.0176322150 -0.0317930400 0 -1
-0.0175619430 -0.0317710310 0 -1
-0.0172853640 -0.0315940110 0 -1
-0.0168743760 -0.0312294020 0 -1
-0.0164327270 -0.0306334720 0 -1
-0.0160814530 -0.0297617070 0 0
-0.0159346380 -0.0285879490 0 0
-0.0160702180 -0.0271262370 0 0
-0.0165066880 -0.0254467970 0 0
-0.0171954670 -0.0236784030 0 0
-0.0180318320 -0.0219923290 0 0
-0.0188804020 -0.0205696670 0 0
-0.0196055540 -0.0195623650 0 0
-0.0200952130 -0.0190623890 0 0
-0.0202726570 -0.0190888970 0 0
-0.0201008950 -0.0195934860 0 0
-0.0195861380 -0.0204763760 0 0
-0.0187793660 -0.0216056000 0 0
-0.0177699590 -0.0228346570 0 0
-0.0166707760 -0.0240171170 0 0
-0.0156019260 -0.0250188000 0 0
-0.0146795430 -0.0257300430 0 0
-0.0140077010 -0.0260794250 0 0
-0.0136673050 -0.0260455050 0 0
-0.0137020170 -0.0256603140 0 0
-0.0141091640 -0.0250014700 0 0
-0.0148414440 -0.0241751040 0 0
-0.0158174280 -0.0232941740 0 0
-0.0169364470 -0.0224565490 0 0
-0.0180950720 -0.0217279310 0 0
-0.0192018250 -0.0211355580 0 0
-0.0201853730 -0.0206760920 0 0
-0.0209938740 -0.0203345230 0 0
-0.0215885000 -0.0201047770 0 0
-0.0219369150 -0.0200022790 0 0
-0.0220096170 -0.0200635810 0 0
-0.0217787550 -0.0203337550 0 0
-0.0212199560 -0.0208466740 0 0
-0.0203193330 -0.0216058840 0 0
-0.0190859270 -0.0225728710 0 0
-0.0175649280 -0.0236671450 0 0
-0.0158440050 -0.0247801860 0 0
-0.0140485840 -0.0257997360 0 0
-0.0123302200 -0.0266344130 0 0
-0.0108558660 -0.0272286550 0 0
-0.0097978580 -0.0275643360 0 0
-0.0093156690 -0.0276515730 0 0
-0.0095258110 -0.0275148330 0 0
-0.0104694500 -0.0271813430 0 0
-0.0120931110 -0.0266762660 0 0
-0.0142525580 -0.0260243670 0 0
-0.0167378800 -0.0252540260 0 0
-0.0193075900 -0.0243986230 0 0
-0.0217209780 -0.0234931830 0 0
-0.0237671110 -0.0225682600 0 0
-0.0252911960 -0.0216451170 0 0
-0.0262121690 -0.0207351510 0 0
-0.0265209890 -0.0198443580 0 0
-0.0262564370 -0.0189829530 0 0
-0.0254703980 -0.0181796010 0 0
-0.0242030340 -0.0174955270 0 0
-0.0224811830 -0.0170281780 0 0
-0.0203385120 -0.0168953180 0 0
-0.0178446650 -0.0172008170 0 0
-0.0151282140 -0.0179956290 0 0
-0.0123836650 -0.0192512290 0 0
-0.0098585430 -0.0208560230 0 0
-0.0078205890 -0.0226354670 0 0
-0.0065123800 -0.0243897400 0 0
-0.0061075770 -0.0259376290 0 0
-0.0066806470 -0.0271523860 0 0
-0.0081943150 -0.0279789520 0 0
-0.0105053230 -0.0284308320 0 0
-0.0133888400 -0.0285721890 0 0
-0.0165795340 -0.0284927700 0 0
-0.0198208750 -0.0282828230 0 0
-0.0229067870 -0.0280151150 0 0
-0.0256990900 -0.0277389080 0 0
-0.0281158600 -0.0274853850 0 0
-0.0301024620 -0.0272794100 -1 0
-0.0316046750 -0.0271516600 -1 0
-0.0325580080 -0.0271460270 -1 0
-0.0328955390 -0.0273189720 -1 0
-0.0325674030 -0.0277302630 -1 0
-0.0315629380 -0.0284271060 -1 0
-0.0299289320 -0.0294262330 0 0
-0.0277793480 -0.0307018070 0 -1
-0.0252927220 -0.0321867070 0 -1
-0.0226957060 -0.0337867440 0 -1
-0.0202354030 -0.0353980610 0 -1
-0.0181456910 -0.0369184020 0 -1
-0.0166122540 -0.0382524110 0 -1
-0.0157425450 -0.0393174240 0 -1
-0.0155502510 -0.0400527780 0 -1
-0.0159605270 -0.0404286530 0 -1
-0.0168326650 -0.0404485360 0 -1
-0.0179907240 -0.0401439210 0 -1
-0.0192531590 -0.0395648450 0 -1
-0.0204551830 -0.0387709570 0 -1
-0.0214609250 -0.0378260560 0 -1
-0.0221668680 -0.0367961420 0 -1
-0.0225024870 -0.0357488220 0 -1
-0.0224341210 -0.0347516310 0 -1
-0.0219724040 -0.0338677710 0 -1
-0.0211767800 -0.0331492220 0 -1
-0.0201498210 -0.0326298960 0 -1
-0.0190199560 -0.0323229950 0 -1
-0.0179184440 -0.0322241430 0 -1
-0.0169587330 -0.0323173550 0 -1
-0.0162229390 -0.0325793030 0 -1
-0.0157562030 -0.0329794710 0 -1
-0.0155680540 -0.0334773470 0 -1
-0.0156388290 -0.0340195660 0 -1
-0.0159283480 -0.0345396190 0 -1
-0.0163846260 -0.0349619530 0 -1
-0.0169514690 -0.0352113480 0 -1
-0.0175738950 -0.0352262210 0 -1
-0.0182003060 -0.0349717120 0 -1
-0.0187820360 -0.0344475210 0 -1
-0.0192736650 -0.0336878150 0 -1
-0.0196369460 -0.0327543340 0 -1
-0.0198464270 -0.0317258870 0 -1
-0.0198919550 -0.0306860910 0 -1
-0.0197767570 -0.0297089260 0 0
-0.0195146530 -0.0288427690 0 0
-0.0191296870 -0.0280974650 0 0
-0.0186565040 -0.0274409680 0 0
-0.0181367880 -0.0268100190 0 0
-0.0176098370 -0.0261340060 0 0
-0.0171001700 -0.0253643820 0 0
-0.0166072730 -0.0244979110 0 0
-0.0161018360 -0.0235846160 0 0
-0.0155305720 -0.0227185380 0 0
-0.0148290300 -0.0220154750 0 0
-0.0139398870 -0.0215849220 0 0
-0.0128327780 -0.0215045260 0 0
-0.0115201040 -0.0218040050 0 0
-0.0100631220 -0.0224620500 0 0
-0.0085663360 -0.0234159420 0 0
-0.0071636160 -0.0245788120 0 0
-0.0060008310 -0.0258552470 0 0
-0.0052161600 -0.0271481140 0 0
-0.0049174430 -0.0283581910 0 0
-0.0051603090 -0.0293850750 0 0
-0.0059353110 -0.0301359160 0 -1
-0.0071697580 -0.0305406160 0 -1
-0.0087425280 -0.0305656390 0 -1
-0.0105053930 -0.0302187480 0 -1
-0.0123050700 -0.0295432500 0 0
-0.0140024290 -0.0286071590 0 0
-0.0154871030 -0.0274931990 0 0
-0.0166876680 -0.0262898860 0 0
-0.0175788060 -0.0250795770 0 0
-0.0181851240 -0.0239227770 0 0
-0.0185764010 -0.0228460510 0 0
-0.0188480970 -0.0218431430 0 0
-0.0190896980 -0.0208919190 0 0
-0.0193542640 -0.0199800760 0 0
-0.0196434760 -0.0191272090 0 0
-0.0199137900 -0.0183926730 0 0
-0.0200986940 -0.0178659770 0 0
-0.0201354580 -0.0176435600 0 0
-0.0199851120 -0.0177995230 0 0
-0.0196411130 -0.0183598690 0 0
-0.0191289270 -0.0192901180 0 0
-0.0184999410 -0.0205013540 0 0
-0.0178214260 -0.0218710090 0 0
-0.0171647990 -0.0232687010 0 0
-0.0165953870 -0.0245781310 0 0
-0.0161656550 -0.0257108130 0 0
-0.0159107040 -0.0266119400 0 0
-0.0158430130 -0.0272608280 0 0
-0.0159462710 -0.0276675620 0 0
-0.0161740010 -0.0278649240 0 0
-0.0164595030 -0.0278944850 0 0
-0.0167353240 -0.0277892070 0 0
-0.0169524980 -0.0275583370 0 0
-0.0170919440 -0.0271814510 0 0
-0.0171660300 -0.0266171990 0 0
-0.0172105930 -0.0258258470 0 0
-0.0172725530 -0.0247949150 0 0
-0.0174022880 -0.0235539200 0 0
-0.0176532950 -0.0221722470 0 0
-0.0180821750 -0.0207442850 0 0
-0.0187427560 -0.0193682660 0 0
-0.0196746730 -0.0181239700 0 0
-0.0208896640 -0.0170564460 0 0
-0.0223597020 -0.0161739770 0 0
-0.0240113840 -0.0154625820 0 0
-0.0257286320 -0.0149103910 0 0
-0.0273649080 -0.0145295540 0 0
-0.0287672800 -0.0143635700 0 0
-0.0298087830 -0.0144750300 0 0
-0.0304149930 -0.0149200880 -1 0
-0.0305702530 -0.0157230060 -1 0
-0.0303024180 -0.0168616220 -1 0
-0.0296574750 -0.0182662240 0 0
-0.0286774760 -0.0198277570 0 0
-0.0273909710 -0.0214109240 0 0
-0.0258184920 -0.0228713030 0 0
-0.0239874060 -0.0240763900 0 0
-0.0219457680 -0.0249276070 0 0
-0.0197674460 -0.0253783410 0 0
-0.0175464490 -0.0254433040 0 0
-0.0153815870 -0.0251955200 0 0
-0.0133557770 -0.0247502650 0 0
-0.0115196680 -0.0242395800 0 0
-0.0098895480 -0.0237834560 0 0
-0.0084601910 -0.0234652240 0 0
-0.0072235850 -0.0233192390 0 0
-0.0061828270 -0.0233340420 0 0
-0.0053553620 -0.0234656660 0 0
-0.0047664540 -0.0236526730 0 0
-0.0044378760 -0.0238286200 0 0
-0.0043765340 -0.0239316140 0 0
-0.0045672420 -0.0239113540 0 0
-0.0049737590 -0.0237337050 0 0
-0.0055478060 -0.0233828140 0 0
-0.0062398330 -0.0228616890 0 0
-0.0070057950 -0.0221928500 0 0
-0.0078098870 -0.0214185910 0 0
-0.0086252870 -0.0205972000 0 0
-0.0094338710 -0.0197924230 0 0
-0.0102268610 -0.0190585720 0 0
-0.0110089000 -0.0184277230 0 0
-0.0118038150 -0.0179046750 0 0
-0.0126559130 -0.0174708480 0 0
-0.0136220950 -0.0170934650 0 0
-0.0147559640 -0.0167347990 0 0
-0.0160896440 -0.0163582830 0 0
-0.0176193060 -0.0159310290 0 0
-0.0192982580 -0.0154239530 0 0
-0.0210391360 -0.0148125180 0 0
-0.0227235990 -0.0140819660 0 0
-0.0242144890 -0.0132372020 0 0
-0.0253663050 -0.0123110700 0 0
-0.0260369760 -0.0113632550 0 0
-0.0261069260 -0.0104683500 0 0
-0.0255031230 -0.0096990350 0 0
-0.0242174850 -0.0091117430 0 0
-0.0223123690 -0.0087387450 0 0
-0.0199147400 -0.0085870500 0 0
-0.0172034030 -0.0086424640 0 0
-0.0143902410 -0.0088755330 0 0
-0.0116955580 -0.0092461650 0 0
-0.0093210760 -0.0097064040 0 0
-0.0074264890 -0.0102034490 0 0
-0.0061140830 -0.0106846000 0 0
-0.0054227190 -0.0111036300 0 0
-0.0053294960 -0.0114271640 0 0
-0.0057569350 -0.0116403820 0 0
-0.0065852790 -0.0117516740 0 0
-0.0076690360 -0.0117939950 0 0
-0.0088543580 -0.0118184560 0 0
-0.0099930240 -0.0118783780 0 0
-0.0109499030 -0.0120097300 0 0
-0.0116046940 -0.0122185630 0 0
-0.0118544320 -0.0124821400 0 0
-0.0116238220 -0.0127622270 0 0
-0.0108832320 -0.0130234670 0 0
-0.0096659640 -0.0132484590 0 0
-0.0080750090 -0.0134430070 0 0
-0.0062755010 -0.0136306230 0 0
-0.0044757300 -0.0138418360 0 0
-0.0029009930 -0.0141048470 0 0
-0.0017644970 -0.0144391560 0 0
-0.0012421260 -0.0148491710 0 0
-0.0014582060 -0.0153158170 0 0
-0.0024820810 -0.0157895210 0 0
-0.0043275480 -0.0161916870 0 0
-0.0069491800 -0.0164291650 0 0
-0.0102378820 -0.0164194310 0 0
-0.0140206880 -0.0161184250 0 0
-0.0180657990 -0.0155409690 0 0
-0.0220922270 -0.0147662740 0 0
-0.0257868510 -0.0139267380 0 0
-0.0288331870 -0.0131833890 0 0
-0.0309508450 -0.0126944700 -1 0
-0.0319368300 -0.0125857050 -1 0
-0.0316971950 -0.0129304490 -1 0
-0.0302615100 -0.0137427060 -1 0
-0.0277788380 -0.0149790730 0 0
-0.0244984340 -0.0165444270 0 0
-0.0207391750 -0.0183005280 0 0
-0.0168500470 -0.0200802980 0 0
-0.0131653080 -0.0217098600 0 0
-0.0099622700 -0.0230360880 0 0
-0.0074312460 -0.0239524790 0 0
-0.0056631550 -0.0244152870 0 0
-0.0046536440 -0.0244462790 0 0
-0.0043185270 -0.0241241580 0 0
-0.0045162330 -0.0235678880 0 0
-0.0050748230 -0.0229134000 0 0
-0.0058195820 -0.0222871590 0 0
-0.0065935860 -0.0217842520 0 0
-0.0072650060 -0.0214578280 0 0
-0.0077240930 -0.0213213490 0 0
-0.0078808420 -0.0213598860 0 0
-0.0076718630 -0.0215435040 0 0
-0.0070756240 -0.0218358860 0 0
-0.0061281640 -0.0221954390 0 0
-0.0049307500 -0.0225710030 0 0
-0.0036448540 -0.0228964640 0 0
-0.0024740100 -0.0230889510 0 0
-0.0016350010 -0.0230550140 0 0
-0.0013248630 -0.0227053000 0 0
-0.0016937290 -0.0219719490 0 0
-0.0028299100 -0.0208219260 0 0
-0.0047531920 -0.0192649680 0 0
-0.0074071800 -0.0173579880 0 0
-0.0106493260 -0.0152048360 0 0
-0.0142485670 -0.0129485350 0 0
-0.0179009050 -0.0107568790 0 0
-0.0212635410 -0.0088050280 0 0
-0.0239992730 -0.0072564490 0 0
-0.0258205870 -0.0062422080 0 0
-0.0265254420 -0.0058423500 0 0
-0.0260203280 -0.0060758290 0 0
-0.0243285910 -0.0069017560 0 0
-0.0215834780 -0.0082295140 0 0
-0.0180072960 -0.0099343190 0 0
-0.0138804200 -0.0118762040 0 0
-0.0095061540 -0.0139197510 0 0
-0.0051788970 -0.0159499520 0 0
-0.0011610660 -0.0178796660 0 0
0.0023309660 -0.0196475750 0 0
0.0051344370 -0.0212099520 0 0
0.0071426210 -0.0225318140 0 0
0.0083032070 -0.0235821390 0 0
0.0086147860 -0.0243349350 0 0
0.0081224090 -0.0247748160 0 0
0.0069117280 -0.0249026320 0 0
0.0051012370 -0.0247350260 0 0
0.0028323140 -0.0242955290 0 0
0.0002571070 -0.0236029670 0 0
-0.0024740590 -0.0226662050 0 0
-0.0052226730 -0.0214883410 0 0
-0.0078667780 -0.0200765440 0 0
-0.0102994780 -0.0184528390 0 0
-0.0124228370 -0.0166625240 0 0
-0.0141427620 -0.0147770430 0 0
-0.0153721190 -0.0128894660 0 0
-0.0160454700 -0.0111040700 0 0
-0.0161413070 -0.0095240600 0 0
-0.0157001780 -0.0082409610 0 0
-0.0148250530 -0.0073274740 0 0
-0.0136590490 -0.0068344140 0 0
-0.0123499420 -0.0067905910 0 0
-0.0110198090 -0.0072020250 0 0
-0.0097543230 -0.0080466450 0 0
-0.0086111560 -0.0092645940 0 0
-0.0076341660 -0.0107507290 0 0
-0.0068610030 -0.0123582730 0 0
-0.0063210020 -0.0139171720 0 0
-0.0060270600 -0.0152627900 0 0
-0.0059664770 -0.0162666620 0 0
-0.0060948570 -0.0168607720 0 0
-0.0063368330 -0.0170478570 0 0
-0.0065960290 -0.0168939120 0 0
-0.0067719650 -0.0165065410 0 0
-0.0067778730 -0.0160087480 0 0
-0.0065546820 -0.0155162150 0 0
-0.0060793550 -0.0151201460 0 0
-0.0053670770 -0.0148755820 0 0
-0.0044676010 -0.0147966810 0 0
-0.0034566220 -0.0148607660 0 0
-0.0024232480 -0.0150198570 0 0
-0.0014569320 -0.0152146180 0 0
-0.0006397910 -0.0153848890 0 0
-0.0000474566 -0.0154733940 0 0
0.0002466280 -0.0154231260 0 0
0.0001735730 -0.0151733110 0 0
-0.0003175430 -0.0146611810 0 0
-0.0012417140 -0.0138332880 0 0
-0.0025657280 -0.0126624230 0 0
-0.0042069730 -0.0111613750 0 0
-0.0060426540 -0.0093869150 0 0
-0.0079251240 -0.0074325520 0 0
-0.0096984990 -0.0054123280 0 0
-0.0112139120 -0.0034395760 0 0
-0.0123433460 -0.0016057140 0 0
-0.0129926840 0.0000346615 0 0
-0.0131138390 0.0014668470 0 0
-0.0127148050 0.0027068540 0 0
-0.0118646470 0.0037852830 0 0
-0.0106888450 0.0047305290 0 0
-0.0093532500 0.0055564630 0 0
-0.0080411290 0.0062612790 0 0
-0.0069311860 0.0068435060 0 0
-0.0061810940 0.0073310930 0 0
-0.0059140720 0.0078076270 0 0
-0.0062037400 0.0084200420 0 0
-0.0070582310 0.0093635950 0 0
-0.0084098240 0.0108501000 0 0
-0.0101158940 0.0130684800 0 0
-0.0119746410 0.0161461220 0 0
-0.0137553080 0.0201195410 0 0
-0.0152359560 0.0249224210 0 0
-0.0162381080 0.0303945510 0 1
-0.0166485200 0.0363079400 0 1
-0.0164218250 0.0424017030 0 1
-0.0155659750 0.0484165100 0 1
-0.0141224980 0.0541220110 0 1
-0.0121551700 0.0593360010 0 1
-0.0097513450 0.0639374980 0 1
-0.0070297740 0.0678746630 0 1
-0.0041454050 0.0711657790 0 1
-0.0012843920 0.0738918120 0 1
0.0013532120 0.0761820220 0 1
0.0035812190 0.0781968790 0 1
0.0052577860 0.0801125940 0 1
0.0063062720 0.0821091780 0 1
0.0067169320 0.0843618290 0 1
0.0065293420 0.0870357060 0 1
0.0058037560 0.0902845580 0 1
0.0045948430 0.0942514490 0 1
0.0029417640 0.0990662510 0 1
0.0008788400 0.1048334290 0 1
-0.0015435140 0.1116079330 0 1
-0.0042417870 0.1193665700 0 1
-0.0070919720 0.1279899320 0 1
-0.0099304120 0.1372675280 0 1
-0.0125635530 0.1469285680 0 1
-0.0147901850 0.1566902750 0 1
-0.0164347070 0.1663078900 0 1
-0.0173805320 0.1756094230 0 1
-0.0175901140 0.1845069860 0 1
-0.0171063100 0.1929893800 0 1
-0.0160400910 0.2011060110 0 1
-0.0145516740 0.2089468930 0 1
-0.0128279050 0.2166166120 0 1
-0.0110559900 0.2242032080 0 1
-0.0093950880 0.2317529100 0 1
-0.0079505990 0.2392639890 0 1
-0.0067582400 0.2467019540 0 1
-0.0057839480 0.2540255940 0 1
-0.0049408130 0.2612119020 0 1
-0.0041188210 0.2682754670 0 1
-0.0032199990 0.2752825660 0 1
-0.0021888490 0.2823558830 0 1
-0.0010276440 0.2896613840 0 1
0.0002068160 0.2973752860 0 1
0.0014188900 0.3056418950 0 1
0.0024934070 0.3145394620 0 1
0.0033138000 0.3240665330 0 1
0.0037782740 0.3341515260 0 1
0.0038135260 0.3446797710 0 1
0.0033850130 0.3555254410 0 1
0.0025036050 0.3665728610 0 1
0.0012281360 0.3777195380 0 1
-0.0003384050 0.3888677260 0 1
-0.0020604230 0.3999166750 0 1
-0.0037879740 0.4107619930 0 1
-0.0053798650 0.4213037000 0 1
-0.0067280840 0.4314619150 0 1
-0.0077761840 0.4411925480 0 1
-0.0085238870 0.4504917250 0 1
-0.0090166220 0.4593857420 0 1
-0.0093262580 0.4679149570 0 1
-0.0095314390 0.4761220680 0 1
-0.0097025030 0.4840476040 0 1
-0.0098923360 0.4917277100 0 1
-0.0101332510 0.4991886360 0 1
-0.0104380780 0.5064386640 0 1
-0.0108013350 0.5134639540 0 1
-0.0111980910 0.5202325810 0 1
-0.0115834040 0.5267038260 0 1
-0.0118973060 0.5328375610 0 1
-0.0120754110 0.5386022210 0 1
-0.0120596030 0.5439819670 0 1
-0.0118041480 0.5489820980 0 1
-0.0112780000 0.5536303560 0 1
-0.0104676310 0.5579714230 0 1
-0.0093825100 0.5620537080 0 1
-0.0080596630 0.5659126250 0 1
-0.0065622340 0.5695591060 0 1
-0.0049713780 0.5729800690 0 1
-0.0033748590 0.5761493510 0 1
-0.0018562420 0.5790404300 0 1
-0.0004876340 0.5816330390 0 1
0.0006730210 0.5839126120 0 1
0.0015818600 0.5858668060 0 1
0.0022085140 0.5874835400 0 1
0.0025353880 0.5887528840 0 1
0.0025559860 0.5896730520 0 1
0.0022729310 0.5902584930 0 1
0.0016972570 0.5905460410 0 1
0.0008490680 0.5905945940 0 1
-0.0002409790 0.5904768550 0 1
-0.0015284520 0.5902672440 0 1
-0.0029499320 0.5900329310 0 1
-0.0044189350 0.5898306560 0 1
-0.0058275490 0.5897055620 0 1
-0.0070555950 0.5896874730 0 1
-0.0079845950 0.5897851930 0 1
-0.0085114760 0.5899834800 0 1
-0.0085585240 0.5902460960 0 1
-0.0080792010 0.5905235670 0 1
-0.0070616820 0.5907607040 0 1
-0.0055332540 0.5908996070 0 1
-0.0035667850 0.5908793330 0 1
-0.0012855560 0.5906385870 0 1
0.0011395100 0.5901259640 0 1
0.0035027630 0.5893153640 0 1
0.0055844430 0.5882199450 0 1
0.0071751160 0.5868972600 0 1
0.0081022990 0.5854393410 0 1
0.0082568770 0.5839489490 0 1
0.0076123630 0.5825149830 0 1
0.0062302220 0.5812027440 0 1
0.0042502390 0.5800629470 0 1
0.0018701950 0.5791482230 0 1
-0.0006787310 0.5785216940 0 1
-0.0031566880 0.5782511450 0 1
-0.0053398280 0.5783933790 0 1
-0.0070451830 0.5789766620 0 1
-0.0081542220 0.5799873170 0 1
-0.0086308090 0.5813678740 0 1
-0.0085259330 0.5830342140 0 1
-0.0079637000 0.5849071870 0 1
-0.0071115780 0.5869390190 0 1
-0.0061434550 0.5891177890 0 1
-0.0052050730 0.5914534440 0 1
-0.0043916200 0.5939617110 0 1
-0.0037430660 0.5966536540 0 1
-0.0032532250 0.5995241260 0 1
-0.0028838050 0.6025346620 0 1
-0.0025794140 0.6056001150 0 1
-0.0022841190 0.6085919180 0 1
-0.0019585950 0.6113601800 0 1
-0.0015941580 0.6137666500 0 1
-0.0012191090 0.6157182720 0 1
-0.0008943560 0.6171914180 0 1
-0.0007000970 0.6182388650 0 1
-0.0007192650 0.6189780330 0 1
-0.0010219080 0.6195662960 0 1
-0.0016517330 0.6201717050 0 1
-0.0026158130 0.6209467750 0 1
-0.0038784450 0.6220106880 0 1
-0.0053600130 0.6234407550 0 1
-0.0069425010 0.6252698560 0 1
-0.0084816480 0.6274868910 0 1
-0.0098224030 0.6300399930 0 1
-0.0108153010 0.6328432830 0 1
-0.0113352840 0.6357864610 0 1
-0.0113029370 0.6387456430 0 1
-0.0107019080 0.6415947530 0 1
-0.0095850950 0.6442179600 0 1
-0.0080685050 0.6465246340 0 1
-0.0063155010 0.6484689640 0 1
-0.0045132450 0.6500715930 0 1
-0.0028452640 0.6514299510 0 1
-0.0014665130 0.6527010130 0 1
-0.0004845390 0.6540572850 0 1
0.0000527083 0.6556385480 0 1
0.0001611330 0.6575226110 0 1
-0.0000859751 0.6597200360 0 1
-0.0005763690 0.6621836510 0 1
-0.0011860730 0.6648248030 0 1
-0.0018084500 0.6675364350 0 1
-0.0023762450 0.6702233650 0 1
-0.0028687990 0.6728294140 0 1
-0.0033026770 0.6753426970 0 1
-0.0037119230 0.6777712940 0 1
-0.0041272290 0.6801058430 0 1
-0.0045604570 0.6822968530 0 1
-0.0049979530 0.6842595340 0 1
-0.0054049190 0.6858972410 0 1
-0.0057394180 0.6871286610 0 1
-0.0059689390 0.6879103340 0 1
-0.0060811360 0.6882510420 0 1
-0.0060844570 0.6882160420 0 1
-0.0060000740 0.6879206930 0 1
-0.0058508810 0.6875146580 0 1
-0.0056541260 0.6871601490 0 1
-0.0054208020 0.6870101300 0 1
-0.0051597660 0.6871906250 0 1
-0.0048819750 0.6877884230 0 1
-0.0046020420 0.6888474780 0 1
-0.0043377230 0.6903769190 0 1
-0.0041093100 0.6923636510 0 1
-0.0039403080 0.6947763090 0 1
-0.0038590580 0.6975569070 0 1
-0.0039008210 0.7006110990 0 1
-0.0041120930 0.7038116270 0 1
-0.0045571390 0.7070192140 0 1
-0.0053193050 0.7101098290 0 1
-0.0064885520 0.7129908940 0 1
-0.0081361540 0.7155980780 0 1
-0.0102853530 0.7178796750 0 1
-0.0128872560 0.7197835970 0 1
-0.0158093480 0.7212581170 0 1
-0.0188416980 0.7222666390 0 1
-0.0217218980 0.7228079120 0 1
-0.0241746950 0.7229329500 0 1
-0.0259577470 0.7227541550 0 1
-0.0269025020 0.7224411410 0 1
-0.0269403310 0.7221959280 0 1
-0.0261088810 0.7222093530 0 1
-0.0245395840 0.7226149410 0 1
-0.0224313590 0.7234595020 0 1
-0.0200175560 0.7246987220 0 1
-0.0175333460 0.7262141440 0 1
-0.0151890730 0.7278454820 0 1
-0.0131524760 0.7294319870 0 1
-0.0115412560 0.7308493470 0 1
-0.0104263470 0.7320260080 0 1
-0.0098429230 0.7329371510 0 1
-0.0098024200 0.7335896730 0 1
-0.0102983050 0.7340085490 0 1
-0.0113019350 0.7342245580 0 1
-0.0127508620 0.7342623910 0 1
-0.0145370090 0.7341324910 0 1
-0.0165031680 0.7338294860 0 1
-0.0184521660 0.7333369130 0 1
-0.0201668930 0.7326378710 0 1
-0.0214373560 0.7317317400 0 1
-0.0220915380 0.7306519270 0 1
-0.0220239930 0.7294722290 0 1
-0.0212139250 0.7282933220 0 1
-0.0197292070 0.7272160240 0 1
-0.0177186560 0.7263167430 0 1
-0.0153956950 0.7256350020 0 1
-0.0130149090 0.7251743790 0 1
-0.0108416240 0.7249146620 0 1
-0.0091152730 0.7248320230 0 1
-0.0080120610 0.7249215630 0 1
-0.0076180980 0.7252122000 0 1
-0.0079225090 0.7257625880 0 1
-0.0088305830 0.7266355440 0 1
-0.0101888500 0.7278627220 0 1
-0.0118131660 0.7294177650 0 1
-0.0135145280 0.7312112390 0 1
-0.0151210350 0.7331102010 0 1
-0.0164954430 0.7349736150 0 1
-0.0175459070 0.7366869690 0 1
-0.0182278990 0.7381817430 0 1
-0.0185400800 0.7394368500 0 1
-0.0185185070 0.7404693500 0 1
-0.0182298480 0.7413231070 0 1
-0.0177624460 0.7420599420 0 1
-0.0172161210 0.7427526150 0 1
-0.0166923650 0.7434743490 0 1
-0.0162842310 0.7442816310 0 1
-0.0160663820 0.7451966430 0 1
-0.0160902750 0.7461996200 0 1
-0.0163861080 0.7472333930 0 1
-0.0169640560 0.7482153780 0 1
-0.0178083700 0.7490539410 0 1
-0.0188684480 0.7496686490 0 1
-0.0200549350 0.7500105300 0 1
-0.0212440890 0.7500732480 0 1
-0.0222906000 0.7498877090 0 1
-0.0230496810 0.7495025520 0 1
-0.0234055980 0.7489626320 0 1
-0.0232958980 0.7482979640 0 1
-0.0227189920 0.7475263450 0 1
-0.0217221960 0.7466621610 0 1
-0.0203789450 0.7457214730 0 1
-0.0187676050 0.7447200640 0 1
-0.0169600560 0.7436694060 0 1
-0.0150213900 0.7425780770 0 1
-0.0130165830 0.7414613690 0 1
-0.0110187840 0.7403543790 0 1
-0.0091157480 0.7393198960 0 1
-0.0074117260 0.7384444060 0 1
-0.0060220790 0.7378217760 0 1
-0.0050606060 0.7375305810 0 1
-0.0046233220 0.7376138520 0 1
-0.0047731460 0.7380683410 0 1
-0.0055292780 0.7388465950 0 1
-0.0068646130 0.7398710190 0 1
-0.0087097510 0.7410545760 0 1
-0.0109555760 0.7423184300 0 1
-0.0134493310 0.7435975330 0 1
-0.0159898700 0.7448338260 0 1
-0.0183320280 0.7459657120 0 1
-0.0202049680 0.7469228150 0 1
-0.0213426120 0.7476281630 0 1
-0.0215205160 0.7480023120 0 1
-0.0205922130 0.7479632610 0 1
-0.0185176950 0.7474251050 0 1
-0.0153774260 0.7463061590 0 1
-0.0113688880 0.7445499700 0 1
-0.0067871280 0.7421481020 0 1
-0.0019923300 0.7391511400 0 1
0.0026325570 0.7356650880 0 1
0.0067275690 0.7318389400 0 1
0.0099938100 0.7278489620 0 1
0.0122159080 0.7238820020 0 1
0.0132716800 0.7201192170 0 1
0.0131370590 0.7167211410 0 1
0.0118881830 0.7138140640 0 1
0.0096953160 0.7114790460 0 1
0.0068043050 0.7097474150 0 1
0.0035071010 0.7086041980 0 1
0.0001067770 0.7079950950 0 1
-0.0031171520 0.7078326880 0 1
-0.0059378460 0.7080040780 0 1
-0.0081997740 0.7083840870 0 1
-0.0098238300 0.7088520910 0 1
-0.0108008300 0.7093054240 0 1
-0.0111791760 0.7096647880 0 1
-0.0110509470 0.7098731290 0 1
-0.0105378280 0.7098927290 0 1
-0.0097767360 0.7097038840 0 1
-0.0089033660 0.7093043990 0 1
-0.0080337800 0.7087055150 0 1
-0.0072506490 0.7079218930 0 1
-0.0066020360 0.7069606390 0 1
-0.0061119700 0.7058182550 0 1
-0.0057930800 0.7044880230 0 1
-0.0056508260 0.7029704550 0 1
-0.0056764150 0.7012772080 0 1
-0.0058350530 0.6994255900 0 1
-0.0060594290 0.6974279560 0 1
-0.0062536610 0.6952829020 0 1
-0.0063072620 0.6929739210 0 1
-0.0061160830 0.6904770010 0 1
-0.0056047580 0.6877724630 0 1
-0.0047431740 0.6848536240 0 1
-0.0035528550 0.6817290540 0 1
-0.0021047420 0.6784206450 0 1
-0.0005107360 0.6749603670 0 1
0.0010906020 0.6713864830 0 1
0.0025541540 0.6677391370 0 1
0.0037525970 0.6640548470 0 1
0.0045993620 0.6603593930 0 1
0.0050608980 0.6566608300 0 1
0.0051530920 0.6529473310 0 1
0.0049272280 0.6491933740 0 1
0.0044557580 0.6453711350 0 1
0.0038241300 0.6414585770 0 1
0.0031284890 0.6374382380 0 1
0.0024749550 0.6332883010 0 1
0.0019759670 0.6289722910 0 1
0.0017422800 0.6244337120 0 1
0.0018721550 0.6195996060 0 1
0.0024399720 0.6143929570 0 1
0.0034859970 0.6087489520 0 1
0.0050092840 0.6026285170 0 1
0.0069660140 0.5960261120 0 1
0.0092718660 0.5889739090 0 1
0.0118016780 0.5815457660 0 1
0.0143839740 0.5738600180 0 1
0.0168006430 0.5660753920 0 1
0.0188040810 0.5583755900 0 1
0.0201504820 0.5509439270 0 1
0.0206380950 0.5439346870 0 1
0.0201421880 0.5374484490 0 1
0.0186418830 0.5315143460 0 1
0.0162329460 0.5260781330 0 1
0.0131223320 0.5209975150 0 1
0.0096045320 0.5160514380 0 1
0.0060230980 0.5109683870 0 1
0.0027242630 0.5054691940 0 1
0.0000119924 0.4993117580 0 1
-0.0018873160 0.4923253620 0 1
-0.0028456120 0.4844289660 0 1
-0.0028383020 0.4756339840 0 1
-0.0019360540 0.4660345530 0 1
-0.0002869830 0.4557894210 0 1
0.0019079150 0.4450995940 0 1
0.0044228730 0.4341843720 0 1
0.0070327210 0.4232583440 0 1
0.0095283900 0.4125138200 0 1
0.0117220910 0.4021112790 0 1
0.0134497310 0.3921744710 0 1
0.0145783560 0.3827849170 0 1
0.0150201300 0.3739748900 0 1
0.0147481310 0.3657222880 0 1
0.0138058840 0.3579509940 0 1
0.0123041880 0.3505380610 0 1
0.0104053200 0.3433272810 0 1
0.0083002290 0.3361476320 0 1
0.0061850760 0.3288341400 0 1
0.0042416900 0.3212485090 0 1
0.0026241630 0.3132972130 0 1
0.0014507710 0.3049433090 0 1
0.0007988140 0.2962066530 0 1
0.0007011620 0.2871502200 0 1
0.0011441990 0.2778573270 0 1
0.0020659240 0.2684095440 0 1
0.0033542790 0.2588745000 0 1
0.0048500780 0.2493070520 0 1
0.0063600380 0.2397591330 0 1
0.0076806100 0.2302887370 0 1
0.0086269590 0.2209610520 0 1
0.0090594720 0.2118417460 0 1
0.0089026600 0.2029868050 0 1
0.0081538490 0.1944337520 0 1
0.0068804100 0.1861982130 0 1
0.0052069650 0.1782774480 0 1
0.0032965490 0.1706586300 0 1
0.0013286660 0.1633278500 0 1
-0.0005246820 0.1562767040 0 1
-0.0021225580 0.1495044130 0 1
-0.0033726270 0.1430152260 0 1
-0.0042375750 0.1368131460 0 1
-0.0047301120 0.1308966340 0 1
-0.0048995240 0.1252550480 0 1
-0.0048135330 0.1198676160 0 1
-0.0045406840 0.1147038070 0 1
-0.0041389830 0.1097229680 0 1
-0.0036529920 0.1048733370 0 1
-0.0031173590 0.1000924850 0 1
-0.0025640330 0.0953103790 0 1
-0.0020293070 0.0904547210 0 1
-0.0015534220 0.0854578590 0 1
-0.0011699530 0.0802652890 0 1
-0.0008945330 0.0748467060 0 1
-0.0007249590 0.0692096160 0 1
-0.0006537410 0.0634120720 0 1
-0.0006851440 0.0575676150 0 1
-0.0008480660 0.0518367020 0 1
-0.0011980640 0.0464056930 0 1
-0.0018042020 0.0414594920 0 1
-0.0027219530 0.0371516140 0 1
-0.0039618340 0.0335726210 0 1
-0.0054681680 0.0307218060 0 1
-0.0071176250 0.0284928770 0 0
-0.0087365650 0.0266834350 0 0
-0.0101289060 0.0250288870 0 0
-0.0111058100 0.0232510790 0 0
-0.0115118720 0.0211079000 0 0
-0.0112468700 0.0184328120 0 0
-0.0102846640 0.0151578360 0 0
-0.0086876690 0.0113170510 0 0
-0.0066084220 0.0070314960 0 0
-0.0042696170 0.0024807840 0 0
-0.0019237270 -0.0021307860 0 0
0.0001958630 -0.0066069520 0 0
0.0019158910 -0.0107865690 0 0
0.0031431660 -0.0145612840 0 0
0.0038604660 -0.0178813010 0 0
0.0041072330 -0.0207506470 0 0
0.0039574750 -0.0232163640 0 0
0.0035009820 -0.0253547410 0 0
0.0028271510 -0.0272548030 0 0
0.0020102310 -0.0289999480 0 0
0.0010979220 -0.0306530240 0 -1
0.0001075690 -0.0322518270 0 -1
-0.0009663140 -0.0338157870 0 -1
-0.0021343670 -0.0353567480 0 -1
-0.0033918740 -0.0368875010 0 -1
-0.0047041080 -0.0384280110 0 -1
-0.0060025740 -0.0400097410 0 -1
-0.0071932750 -0.0416742780 0 -1
-0.0081759290 -0.0434635820 0 -1
-0.0088690800 -0.0454065150 0 -1
-0.0092298340 -0.0475097170 0 -1
-0.0092572760 -0.0497559320 0 -1
-0.0089797430 -0.0521069870 0 -1
-0.0084371070 -0.0545087230 0 -1
-0.0076702010 -0.0568975830 0 -1
-0.0067230140 -0.0592084640 0 -1
-0.0056539000 -0.0613822510 0 -1
-0.0045444410 -0.0633717940 0 -1
-0.0034963080 -0.0651472670 0 -1
-0.0026165650 -0.0667031400 0 -1
-0.0019996640 -0.0680660630 0 -1
-0.0017137010 -0.0692980140 0 -1
-0.0017937070 -0.0704887430 0 -1
-0.0022415280 -0.0717375690 0 -1
-0.0030303970 -0.0731313300 0 -1
-0.0041105030 -0.0747273880 0 -1
-0.0054114300 -0.0765475920 0 -1
-0.0068418840 -0.0785831150 0 -1
-0.0082925330 -0.0808046070 0 -1
-0.0096459080 -0.0831709570 0 -1
-0.0107909360 -0.0856344170 0 -1
-0.0116380490 -0.0881446980 0 -1
-0.0121325000 -0.0906534940 0 -1
-0.0122627000 -0.0931159450 0 -1
-0.0120602040 -0.0954858890 0 -1
-0.0115918520 -0.0977088610 0 -1
-0.0109476010 -0.0997210690 0 -1
-0.0102275340 -0.1014581290 0 -1
-0.0095314810 -0.1028700060 0 -1
-0.0089540120 -0.1039350700 0 -1
-0.0085833190 -0.1046669300 0 -1
-0.0084982000 -0.1051117990 0 -1
-0.0087584900 -0.1053398580 0 -1
-0.0093906710 -0.1054372450 0 -1
-0.0103764100 -0.1055026830 0 -1
-0.0116518460 -0.1056450030 0 -1
-0.0131184330 -0.1059732000 0 -1
-0.0146587380 -0.1065769800 0 -1
-0.0161501120 -0.1075064420 0 -1
-0.0174736510 -0.1087612560 0 -1
-0.0185194890 -0.1102930610 0 -1
-0.0191911190 -0.1120192650 0 -1
-0.0194116450 -0.1138438030 0 -1
-0.0191326170 -0.1156779450 0 -1
-0.0183433320 -0.1174537990 0 -1
-0.0170777110 -0.1191274480 0 -1
-0.0154162970 -0.1206743360 0 -1
-0.0134815450 -0.1220818270 0 -1
-0.0114260980 -0.1233432940 0 -1
-0.0094151720 -0.1244567260 0 -1
-0.0076052970 -0.1254279640 0 -1
-0.0061233890 -0.1262748100 0 -1
-0.0050514440 -0.1270274880 0 -1
-0.0044198790 -0.1277242710 0 -1
-0.0042089380 -0.1284047130 0 -1
-0.0043574080 -0.1291033260 0 -1
-0.0047776690 -0.1298447190 0 -1
-0.0053730150 -0.1306401220 0 -1
-0.0060532930 -0.1314855010 0 -1
-0.0067493750 -0.1323621290 0 -1
-0.0074265040 -0.1332406800 0 -1
-0.0080908200 -0.1340881780 0 -1
-0.0087824970 -0.1348745860 0 -1
-0.0095555830 -0.1355760650 0 -1
-0.0104523180 -0.1361751250 0 -1
-0.0114825460 -0.1366600130 0 -1
-0.0126156110 -0.1370239570 0 -1
-0.0137856170 -0.1372621260 0 -1
-0.0149048920 -0.1373661670 0 -1
-0.0158785460 -0.1373213500 0 -1
-0.0166159860 -0.1371119500 0 -1
-0.0170386350 -0.1367347330 0 -1
-0.0170862760 -0.1362140960 0 -1
-0.0167272200 -0.1356103050 0 -1
-0.0159735130 -0.1350153230 0 -1
-0.0148926740 -0.1345375270 0 -1
-0.0136040190 -0.1342831500 0 -1
-0.0122560220 -0.1343427520 0 -1
-0.0109936150 -0.1347841980 0 -1
-0.0099292430 -0.1356474400 0 -1
-0.0091263590 -0.1369382220 0 -1
-0.0085964480 -0.1386225030 0 -1
-0.0083068200 -0.1406243660 0 -1
-0.0081948560 -0.1428288600 0 -1
-0.0081837410 -0.1450898160 0 -1
-0.0081959280 -0.1472410100 0 -1
-0.0081629040 -0.1491085400 0 -1
-0.0080308960 -0.1505248180 0 -1
-0.0077623670 -0.1513471880 0 -1
-0.0073347140 -0.1514813670 0 -1
-0.0067396850 -0.1509025170 0 -1
-0.0059866720 -0.1496629310 0 -1
-0.0051100530 -0.1478800560 0 -1
-0.0041782100 -0.1457085210 0 -1
-0.0033010490 -0.1433069730 0 -1
-0.0026311120 -0.1408094750 0 -1
-0.0023511470 -0.1383058150 0 -1
-0.0026439500 -0.1358333380 0 -1
-0.0036492190 -0.1333853560 0 -1
-0.0054197730 -0.1309382060 0 -1
-0.0078911170 -0.1284875660 0 -1
-0.0108744600 -0.1260761570 0 -1
-0.0140758300 -0.1237991060 0 -1
-0.0171378690 -0.1217853130 0 -1
-0.0196977320 -0.1201643170 0 -1
-0.0214515570 -0.1190326700 0 -1
-0.0222115630 -0.1184300450 0 -1
-0.0219392320 -0.1183281100 0 -1
-0.0207442750 -0.1186309310 0 -1
-0.0188541580 -0.1191852520 0 -1
-0.0165680080 -0.1197997850 0 -1
-0.0142049260 -0.1202716500 0 -1
-0.0120534960 -0.1204155650 0 -1
-0.0103323310 -0.1200904450 0 -1
-0.0091697560 -0.1192187160 0 -1
-0.0086019500 -0.1177942260 0 -1
-0.0085831780 -0.1158766330 0 -1
-0.0090038260 -0.1135738000 0 -1
-0.0097161020 -0.1110153810 0 -1
-0.0105649670 -0.1083213310 0 -1
-0.0114145900 -0.1055730940 0 -1
-0.0121606280 -0.1027997670 0 -1
-0.0127285740 -0.0999867150 0 -1
-0.0130662720 -0.0971002320 0 -1
-0.0131374280 -0.0941126310 0 -1
-0.0129185430 -0.0910162600 0 -1
-0.0124000680 -0.0878256520 0 -1
-0.0115918480 -0.0845734320 0 -1
-0.0105309220 -0.0813045460 0 -1
-0.0092874340 -0.0780692220 0 -1
-0.0079636000 -0.0749125820 0 -1
-0.0066831570 -0.0718596820 0 -1
-0.0055735280 -0.0688989420 0 -1
-0.0047464230 -0.0659718850 0 -1
-0.0042824940 -0.0629775540 0 -1
-0.0042218400 -0.0597933980 0 -1
-0.0045587040 -0.0563048240 0 -1
-0.0052400130 -0.0524301720 0 -1
-0.0061695880 -0.0481321870 0 -1
-0.0072181410 -0.0434181370 0 -1
-0.0082363270 -0.0383363410 0 -1
-0.0090687180 -0.0329715700 0 -1
-0.0095689260 -0.0274342740 0 0
-0.0096162550 -0.0218393030 0 0
-0.0091320760 -0.0162779810 0 0
-0.0080926410 -0.0107947490 0 0
-0.0065353070 -0.0053793800 0 0
-0.0045559460 0.0000222146 0 0
-0.0022963870 0.0054859350 0 0
0.0000756496 0.0110894080 0 0
0.0023881800 0.0169040820 0 0
0.0044828100 0.0229992720 0 0
0.0062270940 0.0294485100 0 0
0.0075231730 0.0363288090 0 1
0.0083149700 0.0437107530 0 1
0.0085930590 0.0516437940 0 1
0.0083947360 0.0601427880 0 1
0.0077979760 0.0691798020 0 1
0.0069099380 0.0786833370 0 1
0.0058537780 0.0885463670 0 1
0.0047581830 0.0986425570 0 1
0.0037492040 0.1088461860 0 1
0.0029398450 0.1190494430 0 1
0.0024148370 0.1291724750 0 1
0.0022147870 0.1391642970 0 1
0.0023302460 0.1489948630 0 1
0.0027135150 0.1586409510 0 1
0.0033031970 0.1680706560 0 1
0.0040466350 0.1772323120 0 1
0.0049085080 0.1860523540 0 1
0.0058636530 0.1944433510 0 1
0.0068793400 0.2023199800 0 1
0.0078955970 0.2096183160 0 1
0.0088132750 0.2163120290 0 1
0.0094972050 0.2224194860 0 1
0.0097949870 0.2279989570 0 1
0.0095660810 0.2331324320 0 1
0.0087146480 0.2379004480 0 1
0.0072179960 0.2423540170 0 1
0.0051413890 0.2464940190 0 1
0.0026352200 0.2502661860 0 1
-0.0000822240 0.2535715790 0 1
-0.0027511540 0.2562866850 0 1
-0.0051016480 0.2582864120 0 1
-0.0068858540 0.2594636000 0 1
-0.0079072510 0.2597401290 0 1
-0.0080451060 0.2590692010 0 1
-0.0072723310 0.2574336390 0 1
-0.0056620830 0.2548466510 0 1
-0.0033784860 0.2513577170 0 1
-0.0006528900 0.2470594600 0 1
0.0022469390 0.2420878080 0 1
0.0050472510 0.2366114250 0 1
0.0074955680 0.2308132130 0 1
0.0093856470 0.2248703710 0 1
0.0105796840 0.2189378970 0 1
0.0110232040 0.2131365140 0 1
0.0107473240 0.2075445990 0 1
0.0098567390 0.2021948140 0 1
0.0085060390 0.1970771150 0 1
0.0068708110 0.1921488230 0 1
0.0051225680 0.1873491080 0 1
0.0034142880 0.1826132270 0 1
0.0018760130 0.1778841540 0 1
0.0006141640 0.1731218110 0 1
-0.0002904900 0.1683087900 0 1
-0.0007854920 0.1634500130 0 1
-0.0008466940 0.1585653680 0 1
-0.0004753370 0.1536770220 0 1
0.0003041300 0.1487952990 0 1
0.0014421920 0.1439086450 0 1
0.0028600960 0.1389825350 0 1
0.0044489450 0.1339685650 0 1
0.0060754100 0.1288200350 0 1
0.0075933780 0.1235071500 0 1
0.0088592440 0.1180252480 0 1
0.0097477450 0.1123926650 0 1
0.0101649650 0.1066395890 0 1
0.0100583640 0.1007952580 0 1
0.0094265160 0.0948833270 0 1
0.0083266440 0.0889279030 0 1
0.0068715610 0.0829627200 0 1
0.0052112470 0.0770353930 0 1
0.0035054550 0.0712055260 0 1
0.0018992300 0.0655385600 0 1
0.0005097170 0.0600957480 0 1
-0.0005742930 0.0549204470 0 1
-0.0012851010 0.0500235000 0 1
-0.0015689030 0.0453732570 0 1
-0.0013838120 0.0408960210 0 1
-0.0007045020 0.0364889270 0 1
0.0004668170 0.0320422860 0 1
0.0020862750 0.0274656930 0 0
0.0040585510 0.0227112640 0 0
0.0062388580 0.0177870300 0 0
0.0084478570 0.0127560480 0 0
0.0104941930 0.0077225030 0 0
0.0121977540 0.0028103290 0 0
0.0134087520 -0.0018601890 0 0
0.0140204860 -0.0061931080 0 0
0.0139755360 -0.0101295530 0 0
0.0132665340 -0.0136487550 0 0
0.0119341960 -0.0167587510 0 0
0.0100649460 -0.0194837030 0 0
0.0077872170 -0.0218566010 0 0
0.0052632720 -0.0239204340 0 0
0.0026746440 -0.0257318990 0 0
0.0002025950 -0.0273597370 0 0
-0.0019921960 -0.0288769350 0 0
-0.0037857660 -0.0303532160 0 -1
-0.0050999340 -0.0318535200 0 -1
-0.0059052910 -0.0334412140 0 -1
-0.0062218460 -0.0351794490 0 -1
-0.0061183390 -0.0371253030 0 -1
-0.0057048890 -0.0393179100 0 -1
-0.0051128090 -0.0417680230 0 -1
-0.0044638210 -0.0444571270 0 -1
-0.0038393240 -0.0473486160 0 -1
-0.0032608150 -0.0504056850 0 -1
-0.0026877650 -0.0536052710 0 -1
-0.0020350780 -0.0569391200 0 -1
-0.0012075800 -0.0604021690 0 -1
-0.0001417650 -0.0639758880 0 -1
0.0011604150 -0.0676131280 0 -1
0.0026191230 -0.0712274940 0 -1
0.0040901930 -0.0746918540 0 -1
0.0053990710 -0.0778519660 0 -1
0.0063829900 -0.0805553980 0 -1
0.0069273400 -0.0826876920 0 -1
0.0069849570 -0.0842050800 0 -1
0.0065750790 -0.0851545160 0 -1
0.0057670320 -0.0856735660 0 -1
0.0046568010 -0.0859670290 0 -1
0.0033448880 -0.0862656990 0 -1
0.0019227650 -0.0867807490 0 -1
0.0004696950 -0.0876687050 0 -1
-0.0009458290 -0.0890156910 0 -1
-0.0022668850 -0.0908399950 0 -1
-0.0034539080 -0.0931053580 0 -1
-0.0044946320 -0.0957363850 0 -1
-0.0054136420 -0.0986299920 0 -1
-0.0062733610 -0.1016594400 0 -1
-0.0071600900 -0.1046717470 0 -1
-0.0081567880 -0.1074869560 0 -1
-0.0093130810 -0.1099118900 0 -1
-0.0106250340 -0.1117717430 0 -1
-0.0120300810 -0.1129479070 0 -1
-0.0134140430 -0.1134059510 0 -1
-0.0146260850 -0.1132051150 0 -1
-0.0155014150 -0.1124889910 0 -1
-0.0158921010 -0.1114613240 0 -1
-0.0157002070 -0.1103529440 0 -1
-0.0149014820 -0.1093874870 0 -1
-0.0135505850 -0.1087533840 0 -1
-0.0117679620 -0.1085862760 0 -1
-0.0097152210 -0.1089617770 0 -1
-0.0075673810 -0.1098965910 0 -1
-0.0054886510 -0.1113554880 0 -1
-0.0036142930 -0.1132615390 0 -1
-0.0020383200 -0.1155080270 0 -1
-0.0008080440 -0.1179713640 0 -1
0.0000730391 -0.1205238490 0 -1
0.0006355600 -0.1230450370 0 -1
0.0009308330 -0.1254309180 0 -1
0.0010153970 -0.1275995420 0 -1
0.0009364490 -0.1294915440 0 -1
0.0007238170 -0.1310665550 0 -1
0.0003914890 -0.1322990860 0 -1
-0.0000534569 -0.1331766880 0 -1
-0.0005989340 -0.1337006610 0 -1
-0.0012186180 -0.1338880640 0 -1
-0.0018713580 -0.1337730870 0 -1
-0.0025103920 -0.1334066850 0 -1
-0.0030959950 -0.1328556340 0 -1
-0.0036028570 -0.1322010140 0 -1
-0.0040199020 -0.1315332210 0 -1
-0.0043473540 -0.1309431180 0 -1
-0.0045941590 -0.1305141560 0 -1
-0.0047736380 -0.1303189100 0 -1
-0.0048966340 -0.1304179000 0 -1
-0.0049663090 -0.1308568900 0 -1
-0.0049786950 -0.1316610450 0 -1
-0.0049281780 -0.1328271780 0 -1
-0.0048131140 -0.1343178050 0 -1
-0.0046371300 -0.1360606810 0 -1
-0.0044056780 -0.1379542030 0 -1
-0.0041210730 -0.1398762720 0 -1
-0.0037791720 -0.1416956620 0 -1
-0.0033685300 -0.1432874960 0 -1
-0.0028727010 -0.1445523090 0 -1
-0.0022771210 -0.1454333890 0 -1
-0.0015794880 -0.1459259090 0 -1
-0.0007988690 -0.1460749080 0 -1
0.0000205916 -0.1459631600 0 -1
0.0008118240 -0.1456919980 0 -1
0.0014909760 -0.1453594690 0 -1
0.0019652640 -0.1450408040 0 -1
0.0021412970 -0.1447748700 0 -1
0.0019355330 -0.1445584230 0 -1
0.0012896870 -0.1443504400 0 -1
0.0001887510 -0.1440886120 0 -1
-0.0013275620 -0.1437148480 0 -1
-0.0031685360 -0.1432004600 0 -1
-0.0052125700 -0.1425609600 0 -1
-0.0073367130 -0.1418546060 0 -1
-0.0094426930 -0.1411651260 0 -1
-0.0114671300 -0.1405752640 0 -1
-0.0133732580 -0.1401412000 0 -1
-0.0151331270 -0.1398772880 0 -1
-0.0167117850 -0.1397562650 0 -1
-0.0180594030 -0.1397239210 0 -1
-0.0191126350 -0.1397224670 0 -1
-0.0198038900 -0.1397147780 0 -1
-0.0200743750 -0.1397012620 0 -1
-0.0198868360 -0.1397227920 0 -1
-0.0192361080 -0.1398482040 0 -1
-0.0181560150 -0.1401511960 0 -1
-0.0167201040 -0.1406853710 0 -1
-0.0150348190 -0.1414654900 0 -1
-0.0132274870 -0.1424592120 0 -1
-0.0114330010 -0.1435896800 0 -1
-0.0097807840 -0.1447472980 0 -1
-0.0083815120 -0.1458082660 0 -1
-0.0073133660 -0.1466565290 0 -1
-0.0066100450 -0.1472045310 0 -1
-0.0062558770 -0.1474076540 0 -1
-0.0061924460 -0.1472690460 0 -1
-0.0063351640 -0.1468348950 0 -1
-0.0065931830 -0.1461835170 0 -1
-0.0068859290 -0.1454126230 0 -1
-0.0071531300 -0.1446269280 0 -1
-0.0073589100 -0.1439254540 0 -1
-0.0074918150 -0.1433881310 0 -1
-0.0075621220 -0.1430635960 0 -1
-0.0075974260 -0.1429618290 0 -1
-0.0076376490 -0.1430554540 0 -1
-0.0077306180 -0.1432910040 0 -1
-0.0079286770 -0.1436065570 0 -1
-0.0082849430 -0.1439485500 0 -1
-0.0088475540 -0.1442819890 0 -1
-0.0096521450 -0.1445925510 0 -1
-0.0107136690 -0.1448822180 0 -1
-0.0120187040 -0.1451604940 0 -1
-0.0135205060 -0.1454325040 0 -1
-0.0151404680 -0.1456867130 0 -1
-0.0167792610 -0.1458884070 0 -1
-0.0183373380 -0.1459845030 0 -1
-0.0197367450 -0.1459188820 0 -1
-0.0209312500 -0.1456517160 0 -1
-0.0218999220 -0.1451755530 0 -1
-0.0226336290 -0.1445236940 0 -1
-0.0231264560 -0.1437693700 0 -1
-0.0233749500 -0.1430157930 0 -1
-0.0233812740 -0.1423778440 0 -1
-0.0231560080 -0.1419579900 0 -1
-0.0227178740 -0.1418229340 0 -1
-0.0220898610 -0.1419902370 0 -1
-0.0212946890 -0.1424301860 0 -1
-0.0203545920 -0.1430793080 0 -1
-0.0192977430 -0.1438560050 0 -1
-0.0181683940 -0.1446707090 0 -1
-0.0170331050 -0.1454298770 0 -1
-0.0159744530 -0.1460388370 0 -1
-0.0150708520 -0.1464091650 0 -1
-0.0143720370 -0.1464731290 0 -1
-0.0138829510 -0.1462024600 0 -1
-0.0135634530 -0.1456234570 0 -1
-0.0133437410 -0.1448201620 0 -1
-0.0131486530 -0.1439223540 0 -1
-0.0129209680 -0.1430805270 0 -1
-0.0126355170 -0.1424337730 0 -1
-0.0123005960 -0.1420800450 0 -1
-0.0119494030 -0.1420592350 0 -1
-0.0116282190 -0.1423545550 0 -1
-0.0113858140 -0.1429094690 0 -1
-0.0112640660 -0.1436510540 0 -1
-0.0112892800 -0.1445094980 0 -1
-0.0114659560 -0.1454279040 0 -1
-0.0117750680 -0.1463631040 0 -1
-0.0121778720 -0.1472815370 0 -1
-0.0126248200 -0.1481539020 0 -1
-0.0130671830 -0.1489512170 0 -1
-0.0134673430 -0.1496445720 0 -1
-0.0138036530 -0.1502090190 0 -1
-0.0140687050 -0.1506282460 0 -1
-0.0142645440 -0.1508950850 0 -1
-0.0143989490 -0.1510067690 0 -1
-0.0144830830 -0.1509595900 0 -1
-0.0145288300 -0.1507490470 0 -1
-0.0145458820 -0.1503768860 0 -1
-0.0145400150 -0.1498600640 0 -1
-0.0145132070 -0.1492347080 0 -1
-0.0144655870 -0.1485522810 0 -1
-0.0143985920 -0.1478709310 0 -1
-0.0143179520 -0.1472462570 0 -1
-0.0142361380 -0.1467225200 0 -1
-0.0141745250 -0.1463239530 0 -1
-0.0141622100 -0.1460490130 0 -1
-0.0142279950 -0.1458726440 0 -1
-0.0143888840 -0.1457581400 0 -1
-0.0146422350 -0.1456735690 0 -1
-0.0149647110 -0.1456045840 0 -1
-0.0153171800 -0.1455580370 0 -1
-0.0156536180 -0.1455562790 0 -1
-0.0159302770 -0.1456259260 0 -1
-0.0161109390 -0.1457863650 0 -1
-0.0161678310 -0.1460428720 0 -1
-0.0160811350 -0.1463857940 0 -1
-0.0158388160 -0.1467926340 0 -1
-0.0154365870 -0.1472296410 0 -1
-0.0148785300 -0.1476535540 0 -1
-0.0141799900 -0.1480163100 0 -1
-0.0133728810 -0.1482731470 0 -1
-0.0125103760 -0.1483911190 0 -1
-0.0116659680 -0.1483540980 0 -1
-0.0109238110 -0.1481624890 0 -1
-0.0103632500 -0.1478302600 0 -1
-0.0100438220 -0.1473839830 0 -1
-0.0099948630 -0.1468652100 0 -1
-0.0102110200 -0.1463326000 0 -1
-0.0106532740 -0.1458595390 0 -1
-0.0112541000 -0.1455257260 0 -1
-0.0119262000 -0.1454035750 0 -1
-0.0125742870 -0.1455426000 0 -1
-0.0131074180 -0.1459574490 0 -1
-0.0134488310 -0.1466248210 0 -1
-0.0135416850 -0.1474901530 0 -1
-0.0133513940 -0.1484806730 0 -1
-0.0128673400 -0.1495202990 0 -1
-0.0121059950 -0.1505424810 0 -1
-0.0111136130 -0.1514982150 0 -1
-0.0099648270 -0.1523581440 0 -1
-0.0087561640 -0.1531092710 0 -1
-0.0075969070 -0.1537474750 0 -1
-0.0066001250 -0.1542679050 0 -1
-0.0058736310 -0.1546569350 0 -1
-0.0055080090 -0.1548896310 0 -1
-0.0055613020 -0.1549345530 0 -1
-0.0060455470 -0.1547642670 0 -1
-0.0069224290 -0.1543668640 0 -1
-0.0081113920 -0.1537525850 0 -1
-0.0095079690 -0.1529516070 0 -1
-0.0110068180 -0.1520039890 0 -1
-0.0125213330 -0.1509477850 0 -1
-0.0139918730 -0.1498120660 0 -1
-0.0153803730 -0.1486175230 0 -1
-0.0166562900 -0.1473828160 0 -1
-0.0177825230 -0.1461336020 0 -1
-0.0187089910 -0.1449116950 0 -1
-0.0193771910 -0.1437812880 0 -1
-0.0197333630 -0.1428275980 0 -1
-0.0197443490 -0.1421439600 0 -1
-0.0194103690 -0.1418096150 0 -1
-0.0187704950 -0.1418688120 0 -1
-0.0178984880 -0.1423222920 0 -1
-0.0168901250 -0.1431327060 0 -1
-0.0158468190 -0.1442373460 0 -1
-0.0148609450 -0.1455612700 0 -1
-0.0140057620 -0.1470266640 0 -1
-0.0133298840 -0.1485572750 0 -1
-0.0128540900 -0.1500804720 0 -1
-0.0125682350 -0.1515307890 0 -1
-0.0124292630 -0.1528561490 0 -1
-0.0123642830 -0.1540247960 0 -1
-0.0122810900 -0.1550288980 0 -1
-0.0120847670 -0.1558804280 0 -1
-0.0116968130 -0.1565984190 0 -1
-0.0110725040 -0.1571933150 0 -1
-0.0102123530 -0.1576574610 0 -1
-0.0091647470 -0.1579665500 0 -1
-0.0080188950 -0.1580892820 0 -1
-0.0068892420 -0.1579990140 0 -1
-0.0058945400 -0.1576838190 0 -1
-0.0051366520 -0.1571541690 0 -1
-0.0046841100 -0.1564466780 0 -1
-0.0045635960 -0.1556214940 0 -1
-0.0047607870 -0.1547530080 0 -1
-0.0052294490 -0.1539166290 0 -1
-0.0059050400 -0.1531752970 0 -1
-0.0067188580 -0.1525682500 0 -1
-0.0076106420 -0.1521039400 0 -1
-0.0085380070 -0.1517591850 0 -1
-0.0094798810 -0.1514862060 0 -1
-0.0104328770 -0.1512266880 0 -1
-0.0114043640 -0.1509278350 0 -1
-0.0124075870 -0.1505538070 0 -1
-0.0134607160 -0.1500888640 0 -1
-0.0145859300 -0.1495329790 0 -1
-0.0158015520 -0.1488931970 0 -1
-0.0171066160 -0.1481740050 0 -1
-0.0184681290 -0.1473698160 0 -1
-0.0198211550 -0.1464640590 0 -1
-0.0210810720 -0.1454393100 0 -1
-0.0221601880 -0.1442977630 0 -1
-0.0229821410 -0.1430823950 0 -1
-0.0234911270 -0.1418850740 0 -1
-0.0236553720 -0.1408350550 0 -1
-0.0234653950 -0.1400732710 0 -1
-0.0229294010 -0.1397232180 0 -1
-0.0220698910 -0.1398666900 0 -1
-0.0209242200 -0.1405280200 0 -1
-0.0195478900 -0.1416679530 0 -1
-0.0180163540 -0.1431878190 0 -1
-0.0164210970 -0.1449441060 0 -1
-0.0148589230 -0.1467711200 0 -1
-0.0134179760 -0.1485069050 0 -1
-0.0121661420 -0.1500166090 0 -1
-0.0111455930 -0.1512074760 0 -1
-0.0103740990 -0.1520316610 0 -1
-0.0098516150 -0.1524784210 0 -1
-0.0095697850 -0.1525621840 0 -1
-0.0095219790 -0.1523124870 0 -1
-0.0097108700 -0.1517673350 0 -1
-0.0101503440 -0.1509689310 0 -1
-0.0108603440 -0.1499616670 0 -1
-0.0118564730 -0.1487932520 0 -1
-0.0131384670 -0.1475176820 0 -1
-0.0146811410 -0.1461960250 0 -1
-0.0164292700 -0.1448917660 0 -1
-0.0182970240 -0.1436616840 0 -1
-0.0201734190 -0.1425464950 0 -1
-0.0219351130 -0.1415653100 0 -1
-0.0234651130 -0.1407152100 0 -1
-0.0246717450 -0.1399750470 0 -1
-0.0255005280 -0.1393128240 0 -1
-0.0259354090 -0.1386961920 0 -1
-0.0259918130 -0.1381031560 0 -1
-0.0257065510 -0.1375284830 0 -1
-0.0251290170 -0.1369839190 0 -1
-0.0243162310 -0.1364936720 0 -1
-0.0233323810 -0.1360870910 0 -1
-0.0222518230 -0.1357903220 0 -1
-0.0211622790 -0.1356197000 0 -1
-0.0201633150 -0.1355791530 0 -1
-0.0193572240 -0.1356614870 0 -1
-0.0188341430 -0.1358518590 0 -1
-0.0186560580 -0.1361316260 0 -1
-0.0188434240 -0.1364815720 0 -1
-0.0193672780 -0.1368844860 0 -1
-0.0201508850 -0.1373273040 0 -1
-0.0210828750 -0.1378024380 0 -1
-0.0220376070 -0.1383068830 0 -1
-0.0228957590 -0.1388378710 0 -1
-0.0235616830 -0.1393869280 0 -1
-0.0239775560 -0.1399362720 0 -1
-0.0241326950 -0.1404581060 0 -1
-0.0240635800 -0.1409136120 0 -1
-0.0238421640 -0.1412513870 0 -1
-0.0235549060 -0.1414102190 0 -1
-0.0232785570 -0.1413293590 0 -1
-0.0230610940 -0.1409627890 0 -1
-0.0229141770 -0.1402912260 0 -1
-0.0228160640 -0.1393281560 0 -1
-0.0227196580 -0.1381198030 0 -1
-0.0225634550 -0.1367407710 0 -1
-0.0222860920 -0.1352863860 0 -1
-0.0218419290 -0.1338614900 0 -1
-0.0212115510 -0.1325667090 0 -1
-0.0204037830 -0.1314854030 0 -1
-0.0194509830 -0.1306744690 0 -1
-0.0184017600 -0.1301604450 0 -1
-0.0173140350 -0.1299406160 0 -1
-0.0162486690 -0.1299868700 0 -1
-0.0152630460 -0.1302490570 0 -1
-0.0144051380 -0.1306577560 0 -1
-0.0137088210 -0.1311305090 0 -1
-0.0131908700 -0.1315843140 0 -1
-0.0128502270 -0.1319515280 0 -1
-0.0126702550 -0.1321925450 0 -1
-0.0126238140 -0.1322991250 0 -1
-0.0126794990 -0.1322865940 0 -1
-0.0128069140 -0.1321799830 0 -1
-0.0129798420 -0.1320029620 0 -1
-0.0131775790 -0.1317749670 0 -1
-0.0133850640 -0.1315149410 0 -1
-0.0135922140 -0.1312461610 0 -1
-0.0137934160 -0.1309973590 0 -1
-0.0139880570 -0.1307989460 0 -1
-0.0141807690 -0.1306763820 0 -1
-0.0143798730 -0.1306436790 0 -1
-0.0145956390 -0.1306985650 0 -1
-0.0148399930 -0.1308195180 0 -1
-0.0151258040 -0.1309654240 0 -1
-0.0154637670 -0.1310795230 0 -1
-0.0158579480 -0.1310983350 0 -1
-0.0163030670 -0.1309641580 0 -1
-0.0167867810 -0.1306372510 0 -1
-0.0172968010 -0.1301027080 0 -1
-0.0178270540 -0.1293699590 0 -1
-0.0183777270 -0.1284680160 0 -1
-0.0189499630 -0.1274407040 0 -1
-0.0195382400 -0.1263429570 0 -1
-0.0201234640 -0.1252378440 0 -1
-0.0206712340 -0.1241944620 0 -1
-0.0211381600 -0.1232848210 0 -1
-0.0214839670 -0.1225754180 0 -1
-0.0216839010 -0.1221121400 0 -1
-0.0217369680 -0.1219042720 0 -1
-0.0216684240 -0.1219171390 0 -1
-0.0215264570 -0.1220791010 0 -1
-0.0213736550 -0.1223003690 0 -1
-0.0212746790 -0.1224950070 0 -1
-0.0212812890 -0.1225977580 0 -1
-0.0214169030 -0.1225722560 0 -1
-0.0216665160 -0.1224114130 0 -1
-0.0219776070 -0.1221317140 0 -1
-0.0222717000 -0.1217630130 0 -1
-0.0224616090 -0.1213365160 0 -1
-0.0224693730 -0.1208747770 0 -1
-0.0222412980 -0.1203869010 0 -1
-0.0217575240 -0.1198702550 0 -1
-0.0210346040 -0.1193171520 0 -1
-0.0201218510 -0.1187222940 0 -1
-0.0190945850 -0.1180869380 0 -1
-0.0180468740 -0.1174193610 0 -1
-0.0170836340 -0.1167341960 0 -1
-0.0163108000 -0.1160522580 0 -1
-0.0158235510 -0.1153997880 0 -1
-0.0156942950 -0.1148050170 0 -1
-0.0159623430 -0.1142903640 0 -1
-0.0166262060 -0.1138611120 0 -1
-0.0176393010 -0.1134958380 0 -1
-0.0189125490 -0.1131445680 0 -1
-0.0203282340 -0.1127350990 0 -1
-0.0217621690 -0.1121839570 0 -1
-0.0231035860 -0.1114100950 0 -1
-0.0242658870 -0.1103507510 0 -1
-0.0251897700 -0.1089767930 0 -1
-0.0258431790 -0.1073030540 0 -1
-0.0262208460 -0.1053899160 0 -1
-0.0263423120 -0.1033353630 0 -1
-0.0262449860 -0.1012599960 0 -1
-0.0259731760 -0.0992893990 0 -1
-0.0255706520 -0.0975378530 0 -1
-0.0250826690 -0.0960958620 0 -1
-0.0245641740 -0.0950224790 0 -1
-0.0240846420 -0.0943424010 0 -1
-0.0237228320 -0.0940476060 0 -1
-0.0235524480 -0.0941032880 0 -1
-0.0236245660 -0.0944555510 0 -1
-0.0239522140 -0.0950364610 0 -1
-0.0245014350 -0.0957653270 0 -1
-0.0251930590 -0.0965501700 0 -1
-0.0259161410 -0.0972926800 0 -1
-0.0265487540 -0.0978953110 0 -1
-0.0269798350 -0.0982674660 0 -1
-0.0271267320 -0.0983296040 0 -1
-0.0269450780 -0.0980157820 0 -1
-0.0264303960 -0.0972773040 0 -1
-0.0256134120 -0.0960921680 0 -1
-0.0245515930 -0.0944811480 0 -1
-0.0233185760 -0.0925219250 0 -1
-0.0219927060 -0.0903488540 0 -1
-0.0206468240 -0.0881331030 0 -1
-0.0193432810 -0.0860489070 0 -1
-0.0181373240 -0.0842382240 0 -1
-0.0170861480 -0.0827854240 0 -1
-0.0162554550 -0.0817078250 0 -1
-0.0157169830 -0.0809619460 0 -1
-0.0155371020 -0.0804618420 0 -1
-0.0157615760 -0.0801039970 0 -1
-0.0164030310 -0.0797920010 0 -1
-0.0174356380 -0.0794536220 0 -1
-0.0187973950 -0.0790448280 0 -1
-0.0203966790 -0.0785416840 0 -1
-0.0221192300 -0.0779283710 0 -1
-0.0238350150 -0.0771909180 0 -1
-0.0254079350 -0.0763199880 0 -1
-0.0267099660 -0.0753189470 0 -1
-0.0276373140 -0.0742110570 0 -1
-0.0281252000 -0.0730402920 0 -1
-0.0281591690 -0.0718616400 0 -1
-0.0277804440 -0.0707215650 0 -1
-0.0270818930 -0.0696377450 0 -1
-0.0261925260 -0.0685910850 0 -1
-0.0252530630 -0.0675357140 0 -1
-0.0243899200 -0.0664203970 0 -1
-0.0236950620 -0.0652090590 0 -1
-0.0232152110 -0.0638916370 0 -1
-0.0229503680 -0.0624828250 0 -1
-0.0228600960 -0.0610118640 0 -1
-0.0228764890 -0.0595108420 0 -1
-0.0229233920 -0.0580084660 0 -1
-0.0229383080 -0.0565296000 0 -1
-0.0228886720 -0.0550950370 0 -1
-0.0227762020 -0.0537172980 0 -1
-0.0226301060 -0.0523939760 0 -1
-0.0224937560 -0.0511039940 0 -1
-0.0224105450 -0.0498114680 0 -1
-0.0224151670 -0.0484772280 0 -1
-0.0225335560 -0.0470727540 0 -1
-0.0227901520 -0.0455899700 0 -1
-0.0232186390 -0.0440426480 0 -1
-0.0238696820 -0.0424582830 0 -1
-0.0248074340 -0.0408630290 0 -1
-0.0260911820 -0.0392672790 0 -1
-0.0277481220 -0.0376612490 0 -1
-0.0297489980 -0.0360238400 0 -1
-0.0319955250 -0.0343373070 -1 -1
-0.0343229870 -0.0325948770 -1 -1
-0.0365191270 -0.0307931700 -1 -1
-0.0383574620 -0.0289130470 -1 0
-0.0396368150 -0.0269027790 -1 0
-0.0402151690 -0.0246771950 -1 0
-0.0400288390 -0.0221356060 -1 0
-0.0390943270 -0.0191897880 -1 0
-0.0374955630 -0.0157898350 -1 0
-0.0353625060 -0.0119390590 -1 0
-0.0328484030 -0.0076947920 -1 0
-0.0301118260 -0.0031574380 -1 0
-0.0273061940 0.0015477490 0 0
-0.0245753370 0.0062923370 0 0
-0.0220504590 0.0109658590 0 0
-0.0198450230 0.0154918660 0 0
-0.0180487740 0.0198358490 0 0
-0.0167229590 0.0240046070 0 0
-0.0158964550 0.0280394220 0 0
-0.0155626050 0.0320079290 0 1
-0.0156772710 0.0359978050 0 1
-0.0161593620 0.0401096750 0 1
-0.0168969100 0.0444462150 0 1
-0.0177610580 0.0491026900 0 1
-0.0186260640 0.0541681270 0 1
-0.0193882950 0.0597375880 0 1
-0.0199760170 0.0659244040 0 1
-0.0203481930 0.0728587310 0 1
-0.0204871660 0.0806668100 0 1
-0.0203909500 0.0894374570 0 1
-0.0200697840 0.0991885210 0 1
-0.0195489930 0.1098437890 0 1
-0.0188761260 0.1212273030 0 1
-0.0181277550 0.1330799400 0 1
-0.0174107820 0.1450978700 0 1
-0.0168547460 0.1569837220 0 1
-0.0165956110 0.1684948280 0 1
-0.0167548270 0.1794743790 0 1
-0.0174192080 0.1898597030 0 1
-0.0186270320 0.1996708850 0 1
-0.0203631850 0.2089884000 0 1
-0.0225629920 0.2179295340 0 1
-0.0251221290 0.2266302420 0 1
-0.0279092790 0.2352333600 0 1
-0.0307793710 0.2438801150 -1 1
-0.0335864280 0.2527025530 -1 1
-0.0361953080 0.2618165320 -1 1
-0.0384925400 0.2713146200 -1 1
-0.0403961470 0.2812576220 -1 1
-0.0418613350 0.2916650230 -1 1
-0.0428787660 0.3025077730 -1 1
-0.0434668540 0.3137084130 -1 1
-0.0436623530 0.3251500490 -1 1
-0.0435117310 0.3366903900 -1 1
-0.0430640100 0.3481766280 -1 1
-0.0423660980 0.3594596290 -1 1
-0.0414613990 0.3704070670 -1 1
-0.0403912320 0.3809155810 -1 1
-0.0391981880 0.3909204820 -1 1
-0.0379302960 0.4003972070 -1 1
-0.0366442390 0.4093502640 -1 1
-0.0354050190 0.4177965870 -1 1
-0.0342791130 0.4257568010 -1 1
-0.0333213470 0.4332584630 -1 1
-0.0325618930 0.4403398290 -1 1
-0.0320002550 0.4470394920 -1 1
-0.0316062190 0.4533716300 -1 1
-0.0313238430 0.4593040920 -1 1
-0.0310779370 0.4647580540 -1 1
-0.0307848980 0.4696330240 -1 1
-0.0303673490 0.4738457110 -1 1
-0.0297694320 0.4773660870 0 1
-0.0289692200 0.4802369700 0 1
-0.0279852430 0.4825701720 0 1
-0.0268753060 0.4845210730 0 1
-0.0257279300 0.4862521630 0 1
-0.0246490310 0.4879006400 0 1
-0.0237472900 0.4895619180 0 1
-0.0231202220 0.4912915870 0 1
-0.0228420580 0.4931200590 0 1
-0.0229551000 0.4950712600 0 1
-0.0234657530 0.4971779090 0 1
-0.0243448780 0.4994891780 0 1
-0.0255323710 0.5020710750 0 1
-0.0269468740 0.5050037590 0 1
-0.0284997950 0.5083791150 0 1
-0.0301094970 0.5122960060 -1 1
-0.0317102180 0.5168480440 -1 1
-0.0332529630 0.5221037840 -1 1
-0.0346997990 0.5280848400 -1 1
-0.0360150960 0.5347475550 -1 1
-0.0371582730 0.5419709860 -1 1
-0.0380834650 0.5495538840 -1 1
-0.0387477910 0.5572280990 -1 1
-0.0391226730 0.5646971550 -1 1
-0.0392003530 0.5716964700 -1 1
-0.0389933750 0.5780515540 -1 1
-0.0385323540 0.5837034740 -1 1
-0.0378676130 0.5886894190 -1 1
-0.0370718970 0.5930943400 -1 1
-0.0362359860 0.5970027350 -1 1
-0.0354545310 0.6004726480 -1 1
-0.0348082130 0.6035379150 -1 1
-0.0343504900 0.6062305180 -1 1
-0.0341030770 0.6086079230 -1 1
-0.0340596120 0.6107704360 -1 1
-0.0341954180 0.6128596210 -1 1
-0.0344810900 0.6150395420 -1 1
-0.0348953780 0.6174717620 -1 1
-0.0354312470 0.6202950410 -1 1
-0.0360928840 0.6236132790 -1 1
-0.0368874160 0.6274902030 -1 1
-0.0378158730 0.6319496530 -1 1
-0.0388640410 0.6369805520 -1 1
-0.0399936630 0.6425441650 -1 1
-0.0411392280 0.6485798120 -1 1
-0.0422152070 0.6550024600 -1 1
-0.0431304570 0.6616869920 -1 1
-0.0438011540 0.6684479400 -1 1
-0.0441569050 0.6750372140 -1 1
-0.0441422250 0.6811746920 -1 1
-0.0437202090 0.6866030540 -1 1
-0.0428820780 0.6911437910 -1 1
-0.0416580980 0.6947341020 -1 1
-0.0401213970 0.6974348600 -1 1
-0.0383799070 0.6994105500 -1 1
-0.0365594380 0.7008904040 -1 1
-0.0347871010 0.7021247090 -1 1
-0.0331832300 0.7033498770 -1 1
-0.0318615190 0.7047689220 -1 1
-0.0309296760 0.7065429010 -1 1
-0.0304838710 0.7087830860 -1 1
-0.0305971470 0.7115394450 -1 1
-0.0313060700 0.7147923370 -1 1
-0.0325993060 0.7184584260 -1 1
-0.0344122600 0.7224133440 -1 1
-0.0366318460 0.7265224280 -1 1
-0.0391107320 0.7306691800 -1 1
-0.0416865230 0.7347759280 -1 1
-0.0442024660 0.7388132620 -1 1
-0.0465275110 0.7427951530 -1 1
-0.0485718980 0.7467605170 -1 1
-0.0502934540 0.7507493060 -1 1
-0.0516935340 0.7547848070 -1 1
-0.0528062950 0.7588691160 -1 1
-0.0536852150 0.7629917190 -1 1
-0.0543885120 0.7671456870 -1 1
-0.0549646480 0.7713379270 -1 1
-0.0554406960 0.7755769930 -1 1
-0.0558170490 0.7798380170 -1 1
-0.0560702640 0.7840280680 -1 1
-0.0561628820 0.7879801850 -1 1
-0.0560568120 0.7914864770 -1 1
-0.0557265230 0.7943571950 -1 1
-0.0551683600 0.7964786640 -1 1
-0.0544025630 0.7978454680 -1 1
-0.0534678290 0.7985577060 -1 1
-0.0524132270 0.7987891880 -1 1
-0.0512930690 0.7987405240 -1 1
-0.0501664110 0.7985942410 -1 1
-0.0490987430 0.7984864260 -1 1
-0.0481615330 0.7984999480 -1 1
-0.0474267390 0.7986748860 -1 1
-0.0469575000 0.7990258770 -1 1
-0.0467989790 0.7995546710 -1 1
-0.0469725900 0.8000000000 -1 1
-0.0474745910 0.8000000000 -1 1
-0.0482778020 0.8000000000 -1 1
-0.0493346980 0.8000000000 -1 1
-0.0505819470 0.8000000000 -1 1
-0.0519481480 0.8000000000 -1 1
-0.0533653620 0.8000000000 -1 1
-0.0547811310 0.8000000000 -1 1
-0.0561646820 0.8000000000 -1 1
-0.0575039520 0.8000000000 -1 1
-0.0587975780 0.8000000000 -1 1
-0.0600487530 0.8000000000 -1 1
-0.0612620730 0.8000000000 -1 1
-0.0624385780 0.8000000000 -1 1
-0.0635681700 0.8000000000 -1 1
-0.0646265370 0.8000000000 -1 1
-0.0655816000 0.8000000000 -1 1
-0.0664045390 0.8000000000 -1 1
-0.0670768610 0.8000000000 -1 1
-0.0675904660 0.8000000000 -1 1
-0.0679452870 0.8000000000 -1 1
-0.0681506920 0.8000000000 -1 1
-0.0682290300 0.8000000000 -1 1
-0.0682131960 0.8000000000 -1 1
-0.0681368170 0.8000000000 -1 1
-0.0680245930 0.8000000000 -1 1
-0.0678888280 0.8000000000 -1 1
-0.0677321280 0.8000000000 -1 1
-0.0675533620 0.8000000000 -1 1
-0.0673541470 0.8000000000 -1 1
-0.0671447170 0.8000000000 -1 1
-0.0669484590 0.8000000000 -1 1
-0.0668044390 0.8000000000 -1 1
-0.0667682150 0.8000000000 -1 1
-0.0669102060 0.8000000000 -1 1
-0.0673080470 0.8000000000 -1 1
-0.0680301030 0.8000000000 -1 1
-0.0691112950 0.8000000000 -1 1
-0.0705267480 0.8000000000 -1 1
-0.0721736590 0.8000000000 -1 1
-0.0738736210 0.8000000000 -1 1
-0.0753999750 0.8000000000 -1 1
-0.0765219160 0.8000000000 -1 1
-0.0770504560 0.8000000000 -1 1
-0.0768737240 0.8000000000 -1 1
-0.0759746490 0.8000000000 -1 1
-0.0744294140 0.8000000000 -1 1
-0.0723900140 0.8000000000 -1 1
-0.0700577070 0.8000000000 -1 1
-0.0676545950 0.8000000000 -1 1
-0.0653980250 0.8000000000 -1 1
-0.0634787260 0.8000000000 -1 1
-0.0620418750 0.8000000000 -1 1
-0.0611723180 0.8000000000 -1 1
-0.0608879480 0.8000000000 -1 1
-0.0611445430 0.8000000000 -1 1
-0.0618507970 0.8000000000 -1 1
-0.0628877250 0.8000000000 -1 1
-0.0641257190 0.8000000000 -1 1
-0.0654363740 0.8000000000 -1 1
-0.0667001730 0.8000000000 -1 1
-0.0678119460 0.8000000000 -1 1
-0.0686857640 0.8000000000 -1 1
-0.0692607680 0.8000000000 -1 1
-0.0695072980 0.8000000000 -1 1
-0.0694304850 0.8000000000 -1 1
-0.0690695360 0.8000000000 -1 1
-0.0684931820 0.8000000000 -1 1
-0.0677924260 0.8000000000 -1 1
-0.0670712950 0.8000000000 -1 1
-0.0664345370 0.8000000000 -1 1
-0.0659710840 0.8000000000 -1 1
-0.0657368690 0.8000000000 -1 1
-0.0657448870 0.8000000000 -1 1
-0.0659677160 0.8000000000 -1 1
-0.0663505080 0.8000000000 -1 1
-0.0668266180 0.8000000000 -1 1
-0.0673275300 0.8000000000 -1 1
-0.0677841240 0.8000000000 -1 1
-0.0681239710 0.8000000000 -1 1
-0.0682728040 0.8000000000 -1 1
-0.0681645050 0.8000000000 -1 1
-0.0677570560 0.7988494770 -1 1
-0.0670482780 0.7931106170 -1 1
-0.0660851050 0.7873386050 -1 1
-0.0649626060 0.7815929980 -1 1
-0.0638126930 0.7759354830 -1 1
-0.0627844590 0.7704149470 -1 1
-0.0620188960 0.7650500110 -1 1
-0.0616239460 0.7598179240 -1 1
-0.0616581160 0.7546567210 -1 1
-0.0621267610 0.7494810800 -1 1
-0.0629883060 0.7442041630 -1 1
-0.0641640860 0.7387545170 -1 1
-0.0655464920 0.7330809600 -1 1
-0.0670043800 0.7271461960 -1 1
-0.0683896320 0.7209167780 -1 1
-0.0695507990 0.7143579690 -1 1
-0.0703557880 0.7074362050 -1 1
-0.0707169210 0.7001262340 -1 1
-0.0706077510 0.6924199390 -1 1
-0.0700662130 0.6843355570 -1 1
-0.0691854950 0.6759245020 -1 1
-0.0680972410 0.6672713420 -1 1
-0.0669527660 0.6584857710 -1 1
-0.0659064760 0.6496904700 -1 1
-0.0651011030 0.6410085850 -1 1
-0.0646527760 0.6325499180 -1 1
-0.0646389270 0.6243941090 -1 1
-0.0650954770 0.6165751400 -1 1
-0.0660242500 0.6090761950 -1 1
-0.0674027070 0.6018396590 -1 1
-0.0691872690 0.5947873500 -1 1
-0.0713095950 0.5878396510 -1 1
-0.0736723130 0.5809244470 -1 1
-0.0761502370 0.5739757330 -1 1
-0.0785990840 0.5669295480 -1 1
-0.0808703770 0.5597251180 -1 1
-0.0828287610 0.5523128760 -1 1
-0.0843670380 0.5446655700 -1 1
-0.0854151490 0.5367873830 -1 1
-0.0859417940 0.5287172710 -1 1
-0.0859506130 0.5205250690 -1 1
-0.0854741850 0.5123015500 -1 1
-0.0845679070 0.5041450510 -1 1
-0.0833047750 0.4961471250 -1 1
-0.0817717030 0.4883800420 -1 1
-0.0800676500 0.4808896550 -1 1
-0.0783035260 0.4736963870 -1 1
-0.0766029150 0.4668043570 -1 1
-0.0751016380 0.4602146950 -1 1
-0.0739436760 0.4539364390 -1 1
-0.0732702340 0.4479897520 -1 1
-0.0732006330 0.4424004630 -1 1
-0.0738096620 0.4371887940 -1 1
-0.0751089740 0.4323562770 -1 1
-0.0770373580 0.4278744330 -1 1
-0.0794630500 0.4236797090 -1 1
-0.0821998560 0.4196789440 -1 1
-0.0850337940 0.4157649270 -1 1
-0.0877527660 0.4118363850 -1 1
-0.0901736110 0.4078160160 -1 1
-0.0921643840 0.4036628880 -1 1
-0.0936603650 0.3993778510 -1 1
-0.0946707050 0.3950007990 -1 1
-0.0952722510 0.3905992850 -1 1
-0.0955904170 0.3862515890 -1 1
-0.0957717260 0.3820302940 -1 1
-0.0959553520 0.3779909990 -1 1
-0.0962501780 0.3741665450 -1 1
-0.0967210060 0.3705648340 -1 1
-0.0973850940 0.3671691080 -1 1
-0.0982181090 0.3639399900 -1 1
-0.0991669140 0.3608182990 -1 1
-0.1001659590 0.3577290860 -1 1
-0.1011531410 0.3545887630 -1 1
-0.1020802910 0.3513162990 -1 1
-0.1029166100 0.3478474410 -1 1
-0.1036475170 0.3441492300 -1 1
-0.1042708180 0.3402307570 -1 1
-0.1047892200 0.3361462140 -1 1
-0.1051994110 0.3319883630 -1 1
-0.1054827450 0.3278730860 -1 1
-0.1056043070 0.3239184670 -1 1
-0.1055221150 0.3202245210 -1 1
-0.1052023890 0.3168592880 -1 1
-0.1046349670 0.3138528270 -1 1
-0.1038434990 0.3111973180 -1 1
-0.1028870220 0.3088516540 -1 1
-0.1018533200 0.3067502030 -1 1
-0.1008477160 0.3048148980 -1 1
-0.0999805600 0.3029679450 -1 1
-0.0993544480 0.3011417880 -1 1
-0.0990519720 0.2992852190 -1 1
-0.0991265150 0.2973666110 -1 1
-0.0995984560 0.2953746730 -1 1
-0.1004568420 0.2933162490 -1 1
-0.1016652350 0.2912119670 -1 1
-0.1031698790 0.2890928720 -1 1
-0.1049074090 0.2870013630 -1 1
-0.1068100370 0.2849966660 -1 1
-0.1088092700 0.2831599300 -1 1
-0.1108412940 0.2815909150 -1 1
-0.1128555890 0.2803910350 -1 1
-0.1148241900 0.2796358610 -1 1
-0.1167462420 0.2793484700 -1 1
-0.1186435210 0.2794868930 -1 1
-0.1205461900 0.2799521890 -1 1
-0.1224722810 0.2806116510 -1 1
-0.1244085470 0.2813233180 -1 1
-0.1263011150 0.2819509920 -1 1
-0.1280598050 0.2823698160 -1 1
-0.1295738550 0.2824695510 -1 1
-0.1307335420 0.2821606880 -1 1
-0.1314516890 0.2813826190 -1 1
-0.1316805960 0.2801102080 -1 1
-0.1314221120 0.2783562710 -1 1
-0.1307292150 0.2761694430 -1 1
-0.1296986270 0.2736282890 -1 1
-0.1284579760 0.2708343250 -1 1
-0.1271528080 0.2679073090 -1 1
-0.1259344610 0.2649829150 -1 1
-0.1249455610 0.2622080650 -1 1
-0.1243021480 0.2597291750 -1 1
-0.1240768890 0.2576736700 -1 1
-0.1242897290 0.2561294200 -1 1
-0.1249092010 0.2551281200 -1 1
-0.1258638240 0.2546384030 -1 1
-0.1270613560 0.2545723330 -1 1
-0.1284116910 0.2548047180 -1 1
-0.1298453360 0.2551994710 -1 1
-0.1313194980 0.2556337460 -1 1
-0.1328104950 0.2560119590 -1 1
-0.1342990860 0.2562677460 -1 1
-0.1357576370 0.2563573690 -1 1
-0.1371440000 0.2562498850 -1 1
-0.1384012820 0.2559187970 -1 1
-0.1394605890 0.2553388670 -1 1
-0.1402451630 0.2544897950 -1 1
-0.1406750260 0.2533647330 -1 1
-0.1406718240 0.2519790710 -1 1
-0.1401663420 0.2503749550 -1 1
-0.1391126840 0.2486182630 -1 1
-0.1375089190 0.2467882160 -1 1
-0.1354165160 0.2449654060 -1 1
-0.1329677110 0.2432254780 -1 1
-0.1303550550 0.2416391900 -1 1
-0.1278062830 0.2402729270 -1 1
-0.1255533980 0.2391849230 -1 1
-0.1238050170 0.2384175080 -1 1
-0.1227269550 0.2379886280 -1 1
-0.1224314540 0.2378859420 -1 1
-0.1229731480 0.2380657890 -1 1
-0.1243490240 0.2384581860 -1 1
-0.1265001690 0.2389774850 -1 1
-0.1293156990 0.2395361990 -1 1
-0.1326413090 0.2400579050 -1 1
-0.1362939540 0.2404855590 -1 1
-0.1400814170 0.2407840130 -1 1
-0.1438224030 0.2409384140 -1 1
-0.1473615050 0.2409515430 -1 1
-0.1505758290 0.2408421460 -1 1
-0.1533747830 0.2406437820 -1 1
-0.1556974730 0.2404021910 -1 1
-0.1575113980 0.2401696170 -1 1
-0.1588133150 0.2399959850 -1 1
-0.1596296800 0.2399187150 -1 1
-0.1600117530 0.2399539740 -1 1
-0.1600237690 0.2400911170 -1 1
-0.1597299320 0.2402909830 -1 1
-0.1591875370 0.2404891860 -1 1
-0.1584466000 0.2406055410 -1 1
-0.1575503050 0.2405584310 -1 1
-0.1565323600 0.2402803340 -1 1
-0.1554135320 0.2397306400 -1 1
-0.1542029640 0.2389034160 -1 1
-0.1529071170 0.2378291470 -1 1
-0.1515436220 0.2365706250 -1 1
-0.1501533720 0.2352146460 -1 1
-0.1488044830 0.2338614960 -1 1
-0.1475864900 0.2326135520 -1 1
-0.1465991880 0.2315650360 -1 1
-0.1459422700 0.2307963070 -1 1
-0.1457067700 0.2303736780 -1 1
-0.1459638140 0.2303498460 -1 1
-0.1467483080 0.2307575480 -1 1
-0.1480427990 0.2315946760 -1 1
-0.1497705260 0.2328079390 -1 1
-0.1518022960 0.2342858950 -1 1
-0.1539750600 0.2358690230 -1 1
-0.1561172470 0.2373773690 -1 1
-0.1580756440 0.2386478320 -1 1
-0.1597374780 0.2395668810 -1 1
-0.1610414190 0.2400862340 -1 1
-0.1619753400 0.2402186080 -1 1
-0.1625640570 0.2400200210 -1 1
-0.1628525350 0.2395682460 -1 1
-0.1628901060 0.2389449910 -1 1
-0.1627211760 0.2382255120 -1 1
-0.1623855330 0.2374761010 -1 1
-0.1619268020 0.2367578240 -1 1
-0.1614032230 0.2361329360 -1 1
-0.1608925720 0.2356682610 -1 1
-0.1604856710 0.2354304830 -1 1
-0.1602702640 0.2354738440 -1 1
-0.1603127970 0.2358264430 -1 1
-0.1606454100 0.2364820310 -1 1
-0.1612614380 0.2374007840 -1 1
-0.1621197790 0.2385183710 -1 1
-0.1631573150 0.2397583500 -1 1
-0.1643055230 0.2410414670 -1 1
-0.1655049920 0.2422900580 -1 1
-0.1667142300 0.2434318570 -1 1
-0.1679137740 0.2444069740 -1 1
-0.1691072080 0.2451766930 -1 1
-0.1703174120 0.2457298940 -1 1
-0.1715752280 0.2460842100 -1 1
-0.1729028200 0.2462816550 -1 1
-0.1742994230 0.2463799900 -1 1
-0.1757356360 0.2464427400 -1 1
-0.1771571480 0.2465321150 -1 1
-0.1784948300 0.2467066270 -1 1
-0.1796754980 0.2470199400 -1 1
-0.1806281480 0.2475161100 -1 1
-0.1812860090 0.2482199870 -1 1
-0.1815894640 0.2491258620 -1 1
-0.1814929060 0.2501896580 -1 1
-0.1809738190 0.2513291430 -1 1
-0.1800408030 0.2524329930 -1 1
-0.1787380230 0.2533761820 -1 1
-0.1771453650 0.2540384710 -1 1
-0.1753753890 0.2543227280 -1 1
-0.1735669550 0.2541691570 -1 1
-0.1718721710 0.2535623720 -1 1
-0.1704348950 0.2525310200 -1 1
-0.1693665980 0.2511420570 -1 1
-0.1687303710 0.2494926660 -1 1
-0.1685393100 0.2477023040 -1 1
-0.1687666830 0.2459058770 -1 1
-0.1693613450 0.2442470080 -1 1
-0.1702627380 0.2428685660 -1 1
-0.1714121970 0.2418978320 -1 1
-0.1727594840 0.2414275830 -1 1
-0.1742650870 0.2415001780 -1 1
-0.1758993870 0.2421028620 -1 1
-0.1776392750 0.2431757910 -1 1
-0.1794622350 0.2446272420 -1 1
-0.1813392220 0.2463495010 -1 1
-0.1832292320 0.2482316150 -1 1
-0.1850775780 0.2501681050 -1 1
-0.1868179360 0.2520643280 -1 1
-0.1883773610 0.2538389260 -1 1
-0.1896831580 0.2554235410 -1 1
-0.1906708290 0.2567616670 -1 1
-0.1912925140 0.2578099730 -1 1
-0.1915248770 0.2585435860 -1 1
-0.1913747230 0.2589627160 -1 1
-0.1908806200 0.2590963700 -1 1
-0.1901092020 0.2590009580 -1 1
-0.1891464170 0.2587542160 -1 1
-0.1880870030 0.2584462030 -1 1
-0.1870264230 0.2581695990 -1 1
-0.1860559370 0.2580107220 -1 1
-0.1852578610 0.2580415930 -1 1
-0.1846993240 0.2583138560 -1 1
-0.1844260020 0.2588556390 -1 1
-0.1844577130 0.2596707170 -1 1
-0.1847866870 0.2607382210 -1 1
-0.1853794150 0.2620125110 -1 1
-0.1861825140 0.2634251040 -1 1
-0.1871315350 0.2648905160 -1 1
-0.1881609250 0.2663152440 -1 1
-0.1892126760 0.2676069920 -1 1
-0.1902404330 0.2686831990 -1 1
-0.1912077830 0.2694809320 -1 1
-0.1920831520 0.2699680880 -1 1
-0.1928351840 0.2701504550 -1 1
-0.1934316340 0.2700688270 -1 1
-0.1938421930 0.2697867240 -1 1
-0.1940429860 0.2693763190 -1 1
-0.1940203360 0.2689107930 -1 1
-0.1937740330 0.2684638600 -1 1
-0.1933218280 0.2681095330 -1 1
-0.1927044830 0.2679166980 -1 1
-0.1919876760 0.2679402690 -1 1
-0.1912574200 0.2682139170 -1 1
-0.1906094340 0.2687469420 -1 1
-0.1901374470 0.2695250700 -1 1
-0.1899261450 0.2705146740 -1 1
-0.1900490050 0.2716704700 -1 1
-0.1905654530 0.2729454970 -1 1
-0.1915132550 0.2742998460 -1 1
-0.1928977730 0.2757040940 -1 1
-0.1946822250 0.2771363390 -1 1
-0.1967832750 0.2785756600 -1 1
-0.1990763560 0.2799957830 -1 1
-0.2014117790 0.2813611620 -1 1
-0.2036368510 0.2826273920 -1 1
-0.2056168520 0.2837471560 -1 1
-0.2072504480 0.2846793850 -1 1
-0.2084789740 0.2853972240 -1 1
-0.2092903720 0.2858929270 -1 1
-0.2097172650 0.2861806970 -1 1
-0.2098280540 0.2862976660 -1 1
-0.2097121630 0.2863006880 -1 1
-0.2094640130 0.2862573010 -1 1
-0.2091714290 0.2862333810 -1 1
-0.2089108190 0.2862822830 -1 1
-0.2087465860 0.2864385300 -1 1
-0.2087314120 0.2867162890 -1 1
-0.2089063240 0.2871110210 -1 1
-0.2092994810 0.2876022680 -1 1
-0.2099218260 0.2881561400 -1 1
-0.2107606610 0.2887271760 -1 1
-0.2117758590 0.2892609890 -1 1
-0.2129027670 0.2896994700 -1 1
-0.2140615240 0.2899884510 -1 1
-0.2151689490 0.2900861140 -1 1
-0.2161489280 0.2899708940 -1 1
-0.2169394420 0.2896475270 -1 1
-0.2174957180 0.2891490420 -1 1
-0.2177900930 0.2885336300 -1 1
-0.2178112050 0.2878777800 -1 1
-0.2175649780 0.2872676640 -1 1
-0.2170765000 0.2867892400 -1 1
-0.2163900980 0.2865167540 -1 1
-0.2155673370 0.2865009640 -1 1
-0.2146846760 0.2867609830 -1 1
-0.2138312320 0.2872838310 -1 1
-0.2131057570 0.2880330300 -1 1
-0.2126127710 0.2889626660 -1 1
-0.2124576750 0.2900291740 -1 1
-0.2127386890 0.2911945150 -1 1
-0.2135328360 0.2924217800 -1 1
-0.2148760480 0.2936701540 -1 1
-0.2167425840 0.2948952200 -1 1
-0.2190326320 0.2960550070 -1 1
-0.2215749240 0.2971173770 -1 1
-0.2241444600 0.2980635390 -1 1
-0.2264907250 0.2988851520 -1 1
-0.2283717120 0.2995767970 -1 1
-0.2295890850 0.3001290510 -1 1
-0.2300178120 0.3005271290 -1 1
-0.2296236540 0.3007560760 -1 1
-0.2284654580 0.3008095790 -1 1
-0.2266834680 0.3006978800 -1 1
-0.2244773220 0.3004508500 -1 1
-0.2220783250 0.3001148670 -1 1
-0.2197206180 0.2997454500 -1 1
-0.2176150060 0.2993989500 -1 1
-0.2159290580 0.2991253000 -1 1
-0.2147769770 0.2989622360 -1 1
-0.2142196810 0.2989318090 -1 1
-0.2142712730 0.2990407320 -1 1
-0.2149076880 0.2992844470 -1 1
-0.2160755630 0.2996521120 -1 1
-0.2176997440 0.3001286460 -1 1
-0.2196879110 0.3006930120 -1 1
-0.2219331720 0.3013180510 -1 1
-0.2243171560 0.3019784290 -1 1
-0.2267147760 0.3026653540 -1 1
-0.2290004510 0.3033979370 -1 1
-0.2310560620 0.3042216200 -1 1
-0.2327798400 0.3051922620 -1 1
-0.2340926730 0.3063515680 -1 1
-0.2349390200 0.3077024940 -1 1
-0.2352846270 0.3091937830 -1 1
-0.2351167600 0.3107201020 -1 1
-0.2344496890 0.3121381990 -1 1
-0.2333312100 0.3132939890 -1 1
-0.2318435720 0.3140532040 -1 1
-0.2300962760 0.3143282220 -1 1
-0.2282131890 0.3140946930 -1 1
-0.2263191810 0.3133935180 -1 1
-0.2245311410 0.3123177890 -1 1
-0.2229540580 0.3109898970 -1 1
-0.2216786440 0.3095377650 -1 1
-0.2207775120 0.3080779290 -1 1
-0.2203012040 0.3067081560 -1 1
-0.2202769320 0.3055072510 -1 1
-0.2207090240 0.3045373730 -1 1
-0.2215771460 0.3038449910 -1 1
-0.2228315370 0.3034594750 -1 1
-0.2243900100 0.3033910690 -1 1
-0.2261421550 0.3036311740 -1 1
-0.2279619380 0.3041564070 -1 1
-0.2297259890 0.3049342410 -1 1
-0.2313322320 0.3059264020 -1 1
-0.2327118930 0.3070895090 -1 1
-0.2338311130 0.3083753690 -1 1
-0.2346853920 0.3097312970 -1 1
-0.2352918720 0.3110982510 -1 1
-0.2356803110 0.3124072150 -1 1
-0.2358835630 0.3135782790 -1 1
-0.2359320050 0.3145262140 -1 1
-0.2358536900 0.3151723260 -1 1
-0.2356766960 0.3154593600 -1 1
-0.2354307330 0.3153652750 -1 1
-0.2351474820 0.3149113650 -1 1
-0.2348590950 0.3141614210 -1 1
-0.2345951370 0.3132124390 -1 1
-0.2343802700 0.3121808270 -1 1
-0.2342345350 0.3111879610 -1 1
-0.2341751440 0.3103468670 -1 1
-0.2342171180 0.3097505580 -1 1
-0.2343715390 0.3094623420 -1 1
-0.2346426870 0.3095084000 -1 1
-0.2350261810 0.3098734640 -1 1
-0.2355096160 0.3105019840 -1 1
-0.2360768060 0.3113083150 -1 1
-0.2367157530 0.3121969900 -1 1
-0.2374276810 0.3130879590 -1 1
-0.2382318310 0.3139374840 -1 1
-0.2391624120 0.3147468550 -1 1
-0.2402586050 0.3155561850 -1 1
-0.2415517270 0.3164262500 -1 1
-0.2430543330 0.3174163540 -1 1
-0.2447549980 0.3185679640 -1 1
-0.2466181820 0.3198990710 -1 1
-0.2485845160 0.3214051150 -1 1
-0.2505699600 0.3230581710 -1 1
-0.2524685120 0.3248020370 -1 1
-0.2541620500 0.3265495250 -1 1
-0.2555344680 0.3281892370 -1 1
-0.2564854590 0.3296024360 -1 1
-0.2569419970 0.3306838120 -1 1
-0.2568677750 0.3313591620 -1 1
-0.2562717530 0.3315970990 -1 1
-0.2552157180 0.3314151110 -1 1
-0.2538160610 0.3308799200 -1 1
-0.2522326930 0.3301004740 -1 1
-0.2506448350 0.3292125840 -1 1
-0.2492223690 0.3283574860 -1 1
-0.2481021740 0.3276595200 -1 1
-0.2473735210 0.3272085950 -1 1
-0.2470724360 0.3270509570 -1 1
-0.2471836790 0.3271882910 -1 1
-0.2476487520 0.3275832740 -1 1
-0.2483786670 0.3281696480 -1 1
-0.2492696460 0.3288648180 -1 1
-0.2502179670 0.3295834290 -1 1
-0.2511301090 0.3302511250 -1 1
-0.2519286030 0.3308166420 -1 1
-0.2525576710 0.3312588660 -1 1
-0.2529901170 0.3315863480 -1 1
-0.2532318010 0.3318296220 -1 1
-0.2533197750 0.3320293550 -1 1
-0.2533143240 0.3322241430 -1 1
-0.2532880220 0.3324409930 -1 1
-0.2533146580 0.3326910580 -1 1
-0.2534601440 0.3329721420 -1 1
-0.2537761640 0.3332761820 -1 1
-0.2542954360 0.3335965090 -1 1
-0.2550277370 0.3339308380 -1 1
-0.2559584450 0.3342804840 -1 1
-0.2570521240 0.3346488510 -1 1
-0.2582615010 0.3350414570 -1 1
-0.2595391910 0.3354677580 -1 1
-0.2608465280 0.3359434280 -1 1
-0.2621537950 0.3364908030 -1 1
-0.2634317300 0.3371358850 -1 1
-0.2646411770 0.3379020400 -1 1
-0.2657285130 0.3388017260 -1 1
-0.2666286550 0.3398279030 -1 1
-0.2672728260 0.3409474540 -1 1
-0.2675989110 0.3421000270 -1 1
-0.2675641320 0.3432052040 -1 1
-0.2671590260 0.3441775010 -1 1
-0.2664184950 0.3449438650 -1 1
-0.2654237520 0.3454568400 -1 1
-0.2642926690 0.3457001100 -1 1
-0.2631624580 0.3456875330 -1 1
-0.2621709140 0.3454573800 -1 1
-0.2614399550 0.3450627570 -1 1
-0.2610620940 0.3445613120 -1 1
-0.2610901390 0.3440094260 -1 1
-0.2615318030 0.3434629220 -1 1
-0.2623504050 0.3429799270 -1 1
-0.2634709220 0.3426193120 -1 1
-0.2647906510 0.3424326240 -1 1
-0.2661947740 0.3424535810 -1 1
-0.2675758520 0.3426914430 -1 1
-0.2688533290 0.3431322710 -1 1
-0.2699874510 0.3437479440 -1 1
-0.2709819490 0.3445090550 -1 1
-0.2718734770 0.3453957460 -1 1
-0.2727139600 0.3464017930 -1 1
-0.2735560150 0.3475311420 -1 1
-0.2744457040 0.3487894150 -1 1
-0.2754194410 0.3501737000 -1 1
-0.2765011110 0.3516641490 -1 1
-0.2776985410 0.3532209920 -1 1
-0.2789998980 0.3547880080 -1 1
-0.2803705940 0.3562992300 -1 1
-0.2817517780 0.3576855750 -1 1
-0.2830613350 0.3588817920 -1 1
-0.2841979900 0.3598344800 -1 1
-0.2850498500 0.3605086280 -1 1
-0.2855086660 0.3608895790 -1 1
-0.2854879460 0.3609810220 -1 1
-0.2849403660 0.3608023090 -1 1
-0.2838704920 0.3603874660 -1 1
-0.2823392870 0.3597863000 -1 1
-0.2804569090 0.3590661880 -1 1
-0.2783650350 0.3583113420 -1 1
-0.2762167080 0.3576159520 -1 1
-0.2741614240 0.3570708710 -1 1
-0.2723367830 0.3567484460 -1 1
-0.2708632670 0.3566920090 -1 1
-0.2698383280 0.3569133060 -1 1
-0.2693289040 0.3573955860 -1 1
-0.2693648510 0.3580975360 -1 1
-0.2699362880 0.3589569010 -1 1
