0.0174060140 0.0065097600 0 0
0.0196069820 0.0077965080 0 0
0.0214118050 0.0088759380 0 0
0.0226908430 0.0096254560 0 0
0.0233666100 0.0099579340 0 0
0.0234174530 0.0098298820 0 0
0.0228786610 0.0092443940 0 0
0.0218391240 0.0082495070 0 0
0.0204323320 0.0069330560 0 0
0.0188222720 0.0054152630 0 0
0.0171862840 0.0038397200 0 0
0.0156985290 0.0023622370 0 0
0.0145169790 0.0011371740 0 0
0.0137721230 0.0003024110 0 0
0.0135532560 -0.0000348655 0 0
0.0138931930 0.0001903470 0 0
0.0147582600 0.0009930580 0 0
0.0160495330 0.0023344050 0 0
0.0176150960 0.0041222670 0 0
0.0192680510 0.0062176140 0 0
0.0208058680 0.0084473280 0 0
0.0220310620 0.0106222580 0 0
0.0227733740 0.0125572610 0 0
0.0229090730 0.0140899760 0 0
0.0223729900 0.0150967660 0 0
0.0211637090 0.0155052580 0 0
0.0193438230 0.0153020890 0 0
0.0170351690 0.0145338570 0 0
0.0144087130 0.0133002780 0 0
0.0116693030 0.0117407220 0 0
0.0090356510 0.0100172350 0 0
0.0067176370 0.0082975230 0 0
0.0048957830 0.0067397230 0 0
0.0037065500 0.0054793240 0 0
0.0032328720 0.0046184670 0 0
0.0034989100 0.0042179850 0 0
0.0044703980 0.0042928590 0 0
0.0060608670 0.0048123230 0 0
0.0081415550 0.0057051410 0 0
0.0105530310 0.0068686690 0 0
0.0131169840 0.0081794690 0 0
0.0156465290 0.0095040840 0 0
0.0179561230 0.0107098640 0 0
0.0198761770 0.0116761190 0 0
0.0212738590 0.0123054810 0 0
0.0220719110 0.0125343220 0 0
0.0222566570 0.0123401310 0 0
0.0218763880 0.0117444420 0 0
0.0210357050 0.0108115860 0 0
0.0198863280 0.0096433640 0 0
0.0186112970 0.0083689810 0 0
0.0174020420 0.0071307500 0 0
0.0164325530 0.0060676990 0 0
0.0158371420 0.0052992840 0 0
0.0156966640 0.0049112290 0 0
0.0160338530 0.0049455500 0 0
0.0168147480 0.0053964690 0 0
0.0179530900 0.0062131110 0 0
0.0193168000 0.0073082260 0 0
0.0207368140 0.0085695310 0 0
0.0220198730 0.0098698950 0 0
0.0229681370 0.0110757520 0 0
0.0234051390 0.0120560940 0 0
0.0232016700 0.0126938160 0 0
0.0222945950 0.0128988760 0 0
0.0206950950 0.0126207220 0 0
0.0184850810 0.0118563210 0 0
0.0158034970 0.0106505340 0 0
0.0128277370 0.0090876510 0 0
0.0097548390 0.0072771550 0 0
0.0067830410 0.0053403130 0 0
0.0040923220 0.0034019590 0 0
0.0018254530 0.0015855330 0 0
0.0000749838 0.0000069197 0 0
-0.0011193340 -0.0012349140 0 0
-0.0017638120 -0.0020691450 0 0
-0.0019008320 -0.0024623880 0 0
-0.0016017240 -0.0024220040 0 0
-0.0009635460 -0.0019926940 0 0
-0.0001067660 -0.0012500680 0 0
0.0008290860 -0.0002950460 0 0
0.0016939940 0.0007515250 0 0
0.0023414240 0.0017573230 0 0
0.0026449280 0.0025908520 0 0
0.0025128120 0.0031355490 0 0
0.0019002120 0.0033037310 0 0
0.0008195530 0.0030485470 0 0
-0.0006551980 0.0023716230 0 0
-0.0023969140 0.0013243590 0 0
-0.0042436640 0.0000017850 0 0
-0.0060164490 -0.0014701280 0 0
-0.0075313940 -0.0029503020 0 0
-0.0086131990 -0.0042980340 0 0
-0.0091162590 -0.0053867440 0 0
-0.0089479200 -0.0061157470 0 0
-0.0080837170 -0.0064196430 0 0
-0.0065713590 -0.0062745940 0 0
-0.0045255590 -0.0057003540 0 0
-0.0021157930 -0.0047576560 0 0
0.0004520410 -0.0035420100 0 0
0.0029587320 -0.0021749440 0 0
0.0051952870 -0.0007926180 0 0
0.0069815820 0.0004679770 0 0
0.0081796500 0.0014834610 0 0
0.0087053650 0.0021567470 0 0
0.0085389840 0.0024265150 0 0
0.0077302770 0.0022730410 0 0
0.0063949160 0.0017203020 0 0
0.0047023780 0.0008336000 0 0
0.0028573090 -0.0002883120 0 0
0.0010767770 -0.0015252250 0 0
-0.0004337000 -0.0027479790 0 0
-0.0015027800 -0.0038297130 0 0
-0.0020119780 -0.0046572440 0 0
-0.0019075360 -0.0051434390 0 0
-0.0012028880 -0.0052382750 0 0
0.0000289794 -0.0049349800 0 0
0.0016703550 -0.0042696170 0 0
0.0035745340 -0.0033157130 0 0
0.0055775520 -0.0021767200 0 0
0.0075071380 -0.0009769460 0 0
0.0091929590 0.0001503210 0 0
0.0104788000 0.0010773650 0 0
0.0112345180 0.0016964140 0 0
0.0113671900 0.0019302610 0 0
0.0108321650 0.0017372550 0 0
0.0096429520 0.0011120720 0 0
0.0078769710 0.0000854793 0 0
0.0056731050 -0.0012756720 0 0
0.0032177400 -0.0028700560 0 0
0.0007212810 -0.0045675010 0 0
-0.0016074450 -0.0062196910 0 0
-0.0035825350 -0.0076759890 0 0
-0.0050568100 -0.0088027950 0 0
-0.0059328130 -0.0095019810 0 0
-0.0061682770 -0.0097227070 0 0
-0.0057753610 -0.0094636850 0 0
-0.0048152870 -0.0087674120 0 0
-0.0033910370 -0.0077103380 0 0
-0.0016401110 -0.0063924480 0 0
0.0002725070 -0.0049283080 0 0
0.0021639310 -0.0034399150 0 0
0.0038486980 -0.0020501180 0 0
0.0051588170 -0.0008751980 0 0
0.0059640230 -0.0000166952 0 0
0.0061888390 0.0004467340 0 0
0.0058245860 0.0004673660 0 0
0.0049330340 0.0000359724 0 0
0.0036383500 -0.0008127860 0 0
0.0021090700 -0.0019992520 0 0
0.0005363070 -0.0034038050 0 0
-0.0008862370 -0.0048787320 0 0
-0.0019787380 -0.0062651540 0 0
-0.0025905700 -0.0074115410 0 0
-0.0026171960 -0.0081910340 0 0
-0.0020155110 -0.0085158010 0 0
-0.0008101840 -0.0083464960 0 0
0.0009107400 -0.0076949850 0 0
0.0030058170 -0.0066203910 0 0
0.0052929960 -0.0052208730 0 0
0.0075670350 -0.0036233620 0 0
0.0096214170 -0.0019715480 0 0
0.0112706620 -0.0004121010 0 0
0.0123690130 0.0009194660 0 0
0.0128237200 0.0019113560 0 0
0.0126023730 0.0024855700 0 0
0.0117343440 0.0026052080 0 0
0.0103067220 0.0022777930 0 0
0.0084554780 0.0015535980 0 0
0.0063529400 0.0005200900 0 0
0.0041929090 -0.0007057250 0 0
0.0021744430 -0.0019867860 0 0
0.0004845910 -0.0031777760 0 0
-0.0007197780 -0.0041390100 0 0
-0.0013290500 -0.0047514880 0 0
-0.0012931760 -0.0049312040 0 0
-0.0006269350 -0.0046399350 0 0
0.0005913020 -0.0038906230 0 0
0.0022264820 -0.0027471840 0 0
0.0041001890 -0.0013191130 0 0
0.0060105710 0.0002492910 0 0
0.0077560170 0.0017948590 0 0
0.0091576600 0.0031543850 0 0
0.0100765470 0.0041832780 0 0
0.0104235920 0.0047719850 0 0
0.0101633780 0.0048586560 0 0
0.0093149850 0.0044361840 0 0
0.0079516370 0.0035520390 0 0
0.0061977200 0.0023004140 0 0
0.0042212930 0.0008083620 0 0
0.0022220770 -0.0007802320 0 0
0.0004147410 -0.0023196830 0 0
-0.0009938490 -0.0036758340 0 0
-0.0018315650 -0.0047371280 0 0
-0.0019853050 -0.0054220910 0 0
-0.0014161550 -0.0056830650 0 0
-0.0001637240 -0.0055073740 0 0
0.0016590730 -0.0049169790 0 0
0.0038798290 -0.0039672390 0 0
0.0062879370 -0.0027449380 0 0
0.0086599150 -0.0013643780 0 0
0.0107840130 0.0000404198 0 0
0.0124805790 0.0013286420 0 0
0.0136173050 0.0023694240 0 0
0.0141198790 0.0030584330 0 0
0.0139775880 0.0033298590 0 0
0.0132423900 0.0031618380 0 0
0.0120213210 0.0025765100 0 0
0.0104639510 0.0016371760 0 0
0.0087464640 0.0004435560 0 0
0.0070551720 -0.0008760140 0 0
0.0055738560 -0.0021767400 0 0
0.0044745590 -0.0033129370 0 0
0.0039050220 -0.0041536660 0 0
0.0039689260 -0.0045955000 0 0
0.0047050660 -0.0045720150 0 0
0.0060754880 -0.0040609380 0 0
0.0079667110 -0.0030889450 0 0
0.0102017950 -0.0017326520 0 0
0.0125610080 -0.0001135830 0 0
0.0148096020 0.0016141740 0 0
0.0167283680 0.0032818900 0 0
0.0181402790 0.0047256670 0 0
0.0189272330 0.0058043550 0 0
0.0190350180 0.0064144440 0 0
0.0184705250 0.0065005370 0 0
0.0172967430 0.0060598090 0 0
0.0156265610 0.0051401950 0 0
0.0136131790 0.0038336100 0 0
0.0114369480 0.0022659250 0 0
0.0092906140 0.0005851970 0 0
0.0073642740 -0.0010510930 0 0
0.0058294220 -0.0024898480 0 0
0.0048211350 -0.0035970800 0 0
0.0044208210 -0.0042725140 0 0
0.0046447710 -0.0044617060 0 0
0.0054407960 -0.0041623410 0 0
0.0066922920 -0.0034230220 0 0
0.0082313730 -0.0023355610 0 0
0.0098614360 -0.0010230890 0 0
0.0113831000 0.0003731050 0 0
0.0126162820 0.0017057770 0 0
0.0134165340 0.0028337050 0 0
0.0136868620 0.0036353290 0 0
0.0133852640 0.0040230570 0 0
0.0125275060 0.0039543230 0 0
0.0111848880 0.0034359600 0 0
0.0094759370 0.0025208820 0 0
0.0075516990 0.0012986520 0 0
0.0055788790 -0.0001165920 0 0
0.0037264020 -0.0015974580 0 0
0.0021542540 -0.0030126790 0 0
0.0009993670 -0.0042354940 0 0
0.0003594370 -0.0051522200 0 0
0.0002817810 -0.0056713890 0 0
0.0007614110 -0.0057331120 0 0
0.0017443240 -0.0053172400 0 0
0.0031298690 -0.0044481610 0 0
0.0047735210 -0.0031944810 0 0
0.0064977070 -0.0016632620 0 0
0.0081130990 0.0000101680 0 0
0.0094429530 0.0016751390 0 0
0.0103418350 0.0031796050 0 0
0.0107070890 0.0043842920 0 0
0.0104861160 0.0051762190 0 0
0.0096809790 0.0054797500 0 0
0.0083491120 0.0052632560 0 0
0.0065981840 0.0045407550 0 0
0.0045744890 0.0033691330 0 0
0.0024475540 0.0018423960 0 0
0.0003964140 0.0000841916 0 0
-0.0013994480 -0.0017612730 0 0
-0.0027682380 -0.0035402140 0 0
-0.0035592860 -0.0051021440 0 0
-0.0036620630 -0.0063138890 0 0
-0.0030236940 -0.0070725250 0 0
-0.0016575000 -0.0073145000 0 0
0.0003592270 -0.0070207990 0 0
0.0028941340 -0.0062207020 0 0
0.0057698090 -0.0049946690 0 0
0.0087740690 -0.0034725100 0 0
0.0116741020 -0.0018223680 0 0
0.0142360170 -0.0002307220 0 0
0.0162481390 0.0011214760 0 0
0.0175455170 0.0020808550 0 0
0.0180311690 0.0025388550 0 0
0.0176885210 0.0024433790 0 0
0.0165824060 0.0018045330 0 0
0.0148502010 0.0006938620 0 0
0.0126866740 -0.0007631580 0 0
0.0103248120 -0.0024010020 0 0
0.0080129150 -0.0040335480 0 0
0.0059886920 -0.0054765320 0 0
0.0044530790 -0.0065688650 0 0
0.0035485220 -0.0071897590 0 0
0.0033456510 -0.0072705730 0 0
0.0038385100 -0.0068004660 0 0
0.0049478080 -0.0058251200 0 0
0.0065327620 -0.0044397740 0 0
0.0084094070 -0.0027791020 0 0
0.0103700800 -0.0010053250 0 0
0.0122003790 0.0007053720 0 0
0.0136944660 0.0021781830 0 0
0.0146722590 0.0032562760 0 0
0.0149996450 0.0038172200 0 0
0.0146079160 0.0037871280 0 0
0.0135065770 0.0031503240 0 0
0.0117853430 0.0019523670 0 0
0.0096044300 0.0002953350 0 0
0.0071759540 -0.0016732270 0 0
0.0047412330 -0.0037752310 0 0
0.0025473040 -0.0058196740 0 0
0.0008226160 -0.0076219810 0 0
-0.0002492610 -0.0090230370 0 0
-0.0005555470 -0.0099062950 0 0
-0.0000721466 -0.0102113910 0 0
0.0011335910 -0.0099414330 0 0
0.0029156990 -0.0091614880 0 0
0.0050733470 -0.0079884040 0 0
0.0073798320 -0.0065741640 0 0
0.0096101950 -0.0050859950 0 0
0.0115614670 -0.0036869360 0 0
0.0130654970 -0.0025200890 0 0
0.0139997590 -0.0016977780 0 0
0.0142990510 -0.0012945740 0 0
0.0139638350 -0.0013424670 0 0
0.0130590610 -0.0018284520 0 0
0.0117032710 -0.0026968080 0 0
0.0100541470 -0.0038566970 0 0
0.0082955060 -0.0051927630 0 0
0.0066243190 -0.0065761290 0 0
0.0052332320 -0.0078750450 0 0
0.0042879490 -0.0089652910 0 0
0.0039047350 -0.0097396660 0 0
0.0041353330 -0.0101154150 0 0
0.0049634450 -0.0100395190 0 0
0.0063115970 -0.0094932520 0 0
0.0080539550 -0.0084969000 0 0
0.0100305660 -0.0071128090 0 0
0.0120604380 -0.0054435060 0 0
0.0139541570 -0.0036235420 0 0
0.0155282220 -0.0018062860 0 0
0.0166209890 -0.0001481570 0 0
0.0171083710 0.0012073050 0 0
0.0169182360 0.0021438460 0 0
0.0160422690 0.0025842560 0 0
0.0145423700 0.0024981610 0 0
0.0125485670 0.0019048690 0 0
0.0102465570 0.0008713500 0 0
0.0078553070 -0.0004942850 0 0
0.0055987190 -0.0020536070 0 0
0.0036778840 -0.0036525580 0 0
0.0022495650 -0.0051382920 0 0
0.0014136950 -0.0063745400 0 0
0.0012104360 -0.0072523450 0 0
0.0016262210 -0.0076965240 0 0
0.0026048650 -0.0076708120 0 0
0.0040561100 -0.0071833090 0 0
0.0058578300 -0.0062909050 0 0
0.0078573380 -0.0050989820 0 0
0.0098793460 -0.0037525530 0 0
0.0117420950 -0.0024189180 0 0
0.0132775470 -0.0012663530 0 0
0.0143501600 -0.0004437620 0 0
0.0148707190 -0.0000640349 0 0
0.0148048860 -0.0001924920 0 0
0.0141770540 -0.0008409590 0 0
0.0130686310 -0.0019672380 0 0
0.0116098790 -0.0034799100 0 0
0.0099664500 -0.0052486170 0 0
0.0083224620 -0.0071183980 0 0
0.0068617570 -0.0089250390 0 0
0.0057507730 -0.0105088070 0 0
0.0051268110 -0.0117260960 0 0
0.0050901070 -0.0124601200 0 0
0.0056943690 -0.0126315950 0 0
0.0069354510 -0.0122084270 0 0
0.0087432670 -0.0112113930 0 0
0.0109815520 -0.0097133120 0 0
0.0134584500 -0.0078318980 0 0
0.0159482250 -0.0057181460 0 0
0.0182191200 -0.0035421590 0 0
0.0200604600 -0.0014780780 0 0
0.0213051250 0.0003109500 0 0
0.0218465250 0.0016875450 0 0
0.0216498040 0.0025538630 0 0
0.0207556840 0.0028625780 0 0
0.0192745970 0.0026231390 0 0
0.0173721560 0.0019021300 0 0
0.0152509110 0.0008172580 0 0
0.0131322610 -0.0004752410 0 0
0.0112379460 -0.0017989020 0 0
0.0097683770 -0.0029784850 0 0
0.0088786480 -0.0038614740 0 0
0.0086588360 -0.0043365910 0 0
0.0091248310 -0.0043461310 0 0
0.0102194550 -0.0038894210 0 0
0.0118196320 -0.0030171950 0 0
0.0137474300 -0.0018198780 0 0
0.0157867540 -0.0004145280 0 0
0.0177075290 0.0010661860 0 0
0.0192939200 0.0024831980 0 0
0.0203690080 0.0037008240 0 0
0.0208113940 0.0045979410 0 0
0.0205640840 0.0050787930 0 0
0.0196372970 0.0050817270 0 0
0.0181058630 0.0045858430 0 0
0.0161014220 0.0036153600 0 0
0.0137997660 0.0022400740 0 0
0.0114031910 0.0005703010 0 0
0.0091175980 -0.0012535700 0 0
0.0071274130 -0.0030747730 0 0
0.0055757080 -0.0047346130 0 0
0.0045558270 -0.0060870990 0 0
0.0041139040 -0.0070140200 0 0
0.0042550900 -0.0074386580 0 0
0.0049458140 -0.0073350110 0 0
0.0061106850 -0.0067311530 0 0
0.0076306360 -0.0057071770 0 0
0.0093499170 -0.0043879310 0 0
0.0110922210 -0.0029302920 0 0
0.0126795430 -0.0015054410 0 0
0.0139477240 -0.0002781390 0 0
0.0147571760 0.0006135550 0 0
0.0150013980 0.0010743270 0 0
0.0146168260 0.0010605310 0 0
0.0135942300 0.0005811850 0 0
0.0119866600 -0.0003072400 0 0
0.0099080660 -0.0015094950 0 0
0.0075221980 -0.0029020860 0 0
0.0050262490 -0.0043454340 0 0
0.0026330370 -0.0056975910 0 0
0.0005532150 -0.0068281390 0 0
-0.0010221310 -0.0076298550 0 0
-0.0019387200 -0.0080264300 0 0
-0.0020959530 -0.0079766920 0 0
-0.0014622230 -0.0074773700 0 0
-0.0000859872 -0.0065659540 0 0
0.0019020040 -0.0053224030 0 0
0.0043001430 -0.0038660400 0 0
0.0068616200 -0.0023447340 0 0
0.0093281780 -0.0009168490 0 0
0.0114629620 0.0002702410 0 0
0.0130763810 0.0010994240 0 0
0.0140426870 0.0014962260 0 0
0.0143065880 0.0014331090 0 0
0.0138805400 0.0009277380 0 0
0.0128359560 0.0000383834 0 0
0.0112933330 -0.0011414260 0 0
0.0094139870 -0.0024894240 0 0
0.0073902020 -0.0038641860 0 0
0.0054281690 -0.0051184210 0 0
0.0037244560 -0.0061142480 0 0
0.0024446110 -0.0067372900 0 0
0.0017104210 -0.0069076220 0 0
0.0015934100 -0.0065880860 0 0
0.0021085790 -0.0057906150 0 0
0.0032076150 -0.0045788680 0 0
0.0047769840 -0.0030645570 0 0
0.0066464890 -0.0013964390 0 0
0.0086089940 0.0002562990 0 0
0.0104469970 0.0017230760 0 0
0.0119599920 0.0028510790 0 0
0.0129879450 0.0035222590 0 0
0.0134282510 0.0036644110 0 0
0.0132446920 0.0032543310 0 0
0.0124681190 0.0023158270 0 0
0.0111896470 0.0009167930 0 0
0.0095482780 -0.0008333550 0 0
0.0077162240 -0.0027873270 0 0
0.0058844180 -0.0047679890 0 0
0.0042476140 -0.0065842830 0 0
0.0029875620 -0.0080546460 0 0
0.0022555660 -0.0090317810 0 0
0.0021572820 -0.0094213500 0 0
0.0027401930 -0.0091911660 0 0
0.0039833360 -0.0083716760 0 0
0.0057924390 -0.0070499340 0 0
0.0080055110 -0.0053586580 0 0
0.0104102840 -0.0034613060 0 0
0.0127704080 -0.0015347560 0 0
0.0148549220 0.0002478930 0 0
0.0164657000 0.0017323130 0 0
0.0174595370 0.0027947730 0 0
0.0177626550 0.0033504980 0 0
0.0173747630 0.0033587610 0 0
0.0163617710 0.0028254760 0 0
0.0148415650 0.0018036100 0 0
0.0129689330 0.0003903890 0 0
0.0109217140 -0.0012799540 0 0
0.0088866650 -0.0030480030 0 0
0.0070438280 -0.0047444320 0 0
0.0055504720 -0.0062067230 0 0
0.0045271220 -0.0072951040 0 0
0.0040487200 -0.0079061170 0 0
0.0041431120 -0.0079831240 0 0
0.0047953210 -0.0075229810 0 0
0.0059520460 -0.0065776400 0 0
0.0075219360 -0.0052497220 0 0
0.0093737460 -0.0036822200 0 0
0.0113403050 -0.0020436950 0 0
0.0132342630 -0.0005109340 0 0
0.0148728310 0.0007496260 0 0
0.0161031110 0.0016005010 0 0
0.0168207840 0.0019498180 0 0
0.0169774940 0.0017637090 0 0
0.0165773560 0.0010715540 0 0
0.0156702550 -0.0000387908 0 0
0.0143481730 -0.0014360940 0 0
0.0127418780 -0.0029675060 0 0
0.0110128430 -0.0044805110 0 0
0.0093396480 -0.0058386450 0 0
0.0079006090 -0.0069283690 0 0
0.0068543140 -0.0076608040 0 0
0.0063203470 -0.0079747660 0 0
0.0063635210 -0.0078429090 0 0
0.0069854080 -0.0072767600 0 0
0.0081257260 -0.0063266310 0 0
0.0096726180 -0.0050764020 0 0
0.0114781410 -0.0036354700 0 0
0.0133761080 -0.0021295970 0 0
0.0152003950 -0.0006908880 0 0
0.0168005880 0.0005536070 0 0
0.0180524420 0.0014943770 0 0
0.0188643280 0.0020511490 0 0
0.0191826440 0.0021810060 0 0
0.0189976380 0.0018814000 0 0
0.0183490370 0.0011893090 0 0
0.0173290710 0.0001788380 0 0
0.0160783570 -0.0010425510 0 0
0.0147712950 -0.0023410160 0 0
0.0135929600 -0.0035679160 0 0
0.0127130700 -0.0045758360 0 0
0.0122621320 -0.0052371630 0 0
0.0123136390 -0.0054615200 0 0
0.0128754140 -0.0052081490 0 0
0.0138919390 -0.0044908800 0 0
0.0152569160 -0.0033757380 0 0
0.0168313560 -0.0019730020 0 0
0.0184601160 -0.0004255490 0 0
0.0199838280 0.0011057910 0 0
0.0212493770 0.0024590610 0 0
0.0221217760 0.0034883820 0 0
0.0224953710 0.0040794090 0 0
0.0223021350 0.0041610260 0 0
0.0215189550 0.0037115810 0 0
0.0201753450 0.0027588650 0 0
0.0183581120 0.0013747100 0 0
0.0162087090 -0.0003336700 0 0
0.0139121790 -0.0022332350 0 0
0.0116783570 -0.0041744640 0 0
0.0097173990 -0.0060008670 0 0
0.0082143800 -0.0075597510 0 0
0.0073080220 -0.0087154040 0 0
0.0070763930 -0.0093645050 0 0
0.0075309770 -0.0094506380 0 0
0.0086188650 -0.0089734920 0 0
0.0102304120 -0.0079904700 0 0
0.0122098340 -0.0066108650 0 0
0.0143683040 -0.0049833470 0 0
0.0164994910 -0.0032782700 0 0
0.0183965310 -0.0016683010 0 0
0.0198695550 -0.0003112100 0 0
0.0207639950 0.0006642140 0 0
0.0209788990 0.0011700180 0 0
0.0204817120 0.0011677140 0 0
0.0193153100 0.0006706540 0 0
0.0175946610 -0.0002608980 0 0
0.0154924680 -0.0015291950 0 0
0.0132163710 -0.0030091080 0 0
0.0109836310 -0.0045577110 0 0
0.0089989500 -0.0060247680 0 0
0.0074377100 -0.0072652800 0 0
0.0064344660 -0.0081532220 0 0
0.0060758030 -0.0085942560 0 0
0.0063957760 -0.0085353400 0 0
0.0073717700 -0.0079700240 0 0
0.0089215120 -0.0069394170 0 0
0.0109053870 -0.0055293340 0 0
0.0131379400 -0.0038635710 0 0
0.0154095030 -0.0020926490 0 0
0.0175144870 -0.0003781900 0 0
0.0192769120 0.0011248950 0 0
0.0205635960 0.0022849460 0 0
0.0212848440 0.0030061410 0 0
0.0213913290 0.0032360910 0 0
0.0208754550 0.0029688500 0 0
0.0197786740 0.0022444380 0 0
0.0181989400 0.0011454950 0 0
0.0162898060 -0.0002094800 0 0
0.0142469740 -0.0016769210 0 0
0.0122847660 -0.0031025640 0 0
0.0106085430 -0.0043377380 0 0
0.0093889400 -0.0052551930 0 0
0.0087415380 -0.0057621550 0 0
0.0087138380 -0.0058092870 0 0
0.0092808920 -0.0053954990 0 0
0.0103499970 -0.0045688200 0 0
0.0117736170 -0.0034230460 0 0
0.0133686680 -0.0020890360 0 0
0.0149388240 -0.0007196980 0 0
0.0162957420 0.0005294760 0 0
0.0172766000 0.0015195180 0 0
0.0177580490 0.0021424530 0 0
0.0176678670 0.0023300670 0 0
0.0169941630 0.0020580740 0 0
0.0157895640 0.0013464860 0 0
0.0141664520 0.0002560570 0 0
0.0122816890 -0.0011188400 0 0
0.0103152210 -0.0026598120 0 0
0.0084507780 -0.0042356220 0 0
0.0068633110 -0.0057140530 0 0
0.0057101370 -0.0069736290 0 0
0.0051202060 -0.0079147740 0 0
0.0051809280 -0.0084700860 0 0
0.0059261490 -0.0086121570 0 0
0.0073272740 -0.0083557730 0 0
0.0092882200 -0.0077525340 0 0
0.0116482820 -0.0068805810 0 0
0.0141972810 -0.0058344640 0 0
0.0167009650 -0.0047171900 0 0
0.0189295150 -0.0036333760 0 0
0.0206827950 -0.0026827580 0 0
0.0218093800 -0.0019544110 0 0
0.0222195500 -0.0015215780 0 0
0.0218933110 -0.0014362670 0 0
0.0208834080 -0.0017229500 0 0
0.0193117720 -0.0023716760 0 0
0.0173570890 -0.0033328440 0 0
0.0152339680 -0.0045169930 0 0
0.0131692350 -0.0058011780 0 0
0.0113807590 -0.0070410050 0 0
0.0100589930 -0.0080868380 0 0
0.0093488120 -0.0088026280 0 0
0.0093313610 -0.0090845670 0 0
0.0100100530 -0.0088761210 0 0
0.0113080090 -0.0081768660 0 0
0.0130807980 -0.0070438690 0 0
0.0151392790 -0.0055853550 0 0
0.0172726860 -0.0039474570 0 0
0.0192669410 -0.0022957950 0 0
0.0209202890 -0.0007946780 0 0
0.0220597270 0.0004127590 0 0
0.0225580820 0.0012203780 0 0
0.0223488940 0.0015684430 0 0
0.0214359300 0.0014457250 0 0
0.0198949750 0.0008854360 0 0
0.0178666760 -0.0000423513 0 0
0.0155407930 -0.0012391190 0 0
0.0131347830 -0.0025862510 0 0
0.0108713510 -0.0039542430 0 0
0.0089572650 -0.0052128340 0 0
0.0075631660 -0.0062402890 0 0
0.0068066930 -0.0069305410 0 0
0.0067437220 -0.0071996260 0 0
0.0073682270 -0.0069939990 0 0
0.0086163650 -0.0063008900 0 0
0.0103722160 -0.0051572130 0 0
0.0124768240 -0.0036521360 0 0
0.0147426810 -0.0019204550 0 0
0.0169730770 -0.0001275400 0 0
0.0189827170 0.0015506180 0 0
0.0206147660 0.0029475340 0 0
0.0217512720 0.0039231170 0 0
0.0223172230 0.0043769870 0 0
0.0222816370 0.0042592900 0 0
0.0216599320 0.0035777230 0 0
0.0205181080 0.0023975150 0 0
0.0189746590 0.0008330560 0 0
0.0171955220 -0.0009666700 0 0
0.0153798270 -0.0028350330 0 0
0.0137380180 -0.0046040050 0 0
0.0124665130 -0.0061187230 0 0
0.0117218820 -0.0072509390 0 0
0.0115972400 -0.0079116160 0 0
0.0121068400 -0.0080611570 0 0
0.0131849780 -0.0077141050 0 0
0.0146991800 -0.0069356170 0 0
0.0164723200 -0.0058301130 0 0
0.0183082550 -0.0045259430 0 0
0.0200165280 -0.0031604680 0 0
0.0214319870 -0.0018677910 0 0
0.0224273470 -0.0007691430 0 0
0.0229197050 0.0000349162 0 0
0.0228720390 0.0004712440 0 0
0.0222896630 0.0004999670 0 0
0.0212139590 0.0001189970 0 0
0.0197180570 -0.0006333880 0 0
0.0179057890 -0.0016789610 0 0
0.0159108430 -0.0029042770 0 0
0.0138917060 -0.0041706280 0 0
0.0120179770 -0.0053289780 0 0
0.0104470840 -0.0062379290 0 0
0.0092985470 -0.0067816140 0 0
0.0086364680 -0.0068846220 0 0
0.0084651140 -0.0065213940 0 0
0.0087348880 -0.0057182720 0 0
0.0093538280 -0.0045482660 0 0
0.0102012060 -0.0031204010 0 0
0.0111407600 -0.0015662800 0 0
0.0120320160 -0.0000267172 0 0
0.0127403400 0.0013594580 0 0
0.0131475820 0.0024640870 0 0
0.0131643710 0.0031775230 0 0
0.0127431280 0.0034173430 0 0
0.0118881420 0.0031372990 0 0
0.0106583730 0.0023343140 0 0
0.0091609890 0.0010516780 0 0
0.0075373340 -0.0006225140 0 0
0.0059462740 -0.0025617330 0 0
0.0045498500 -0.0046111710 0 0
0.0035017170 -0.0066005330 0 0
0.0029349280 -0.0083588030 0 0
0.0029477970 -0.0097301990 0 0
0.0035922930 -0.0105902340 0 0
0.0048693880 -0.0108607360 0 0
0.0067299270 -0.0105220120 0 0
0.0090770800 -0.0096188310 0 0
0.0117686810 -0.0082568320 0 0
0.0146202950 -0.0065891300 0 0
0.0174126620 -0.0047964530 0 0
0.0199089120 -0.0030653000 0 0
0.0218825350 -0.0015681810 0 0
0.0231495550 -0.0004487610 0 0
0.0235949770 0.0001878350 0 0
0.0231868950 0.0002820110 0 0
0.0219787570 -0.0001742250 0 0
0.0201040930 -0.0011341840 0 0
0.0177640910 -0.0025002460 0 0
0.0152045320 -0.0041353060 0 0
0.0126839880 -0.0058791190 0 0
0.0104428500 -0.0075654220 0 0
0.0086813230 -0.0090371330 0 0
0.0075466340 -0.0101594270 0 0
0.0071252320 -0.0108312740 0 0
0.0074370620 -0.0109946720 0 0
0.0084322040 -0.0106400790 0 0
0.0099928320 -0.0098074470 0 0
0.0119437180 -0.0085829950 0 0
0.0140707440 -0.0070919910 0 0
0.0161430430 -0.0054878940 0 0
0.0179355750 -0.0039379350 0 0
0.0192513960 -0.0026058110 0 0
0.0199427810 -0.0016337560 0 0
0.0199296830 -0.0011271760 0 0
0.0192122400 -0.0011442890 0 0
0.0178721890 -0.0016915060 0 0
0.0160605270 -0.0027238420 0 0
0.0139738460 -0.0041493760 0 0
0.0118249860 -0.0058376520 0 0
0.0098157470 -0.0076317370 0 0
0.0081193920 -0.0093624290 0 0
0.0068746170 -0.0108632350 0 0
0.0061843420 -0.0119860580 0 0
0.0061112100 -0.0126168060 0 0
0.0066689960 -0.0126880670 0 0
0.0078158840 -0.0121862960 0 0
0.0094541390 -0.0111534210 0 0
0.0114370400 -0.0096839240 0 0
0.0135828180 -0.0079170690 0 0
0.0156920230 -0.0060229230 0 0
0.0175636320 -0.0041831260 0 0
0.0190114460 -0.0025705440 0 0
0.0198847240 -0.0013315640 0 0
0.0200904630 -0.0005730070 0 0
0.0196091710 -0.0003545080 0 0
0.0184970640 -0.0006859040 0 0
0.0168738020 -0.0015282780 0 0
0.0149026670 -0.0027986130 0 0
0.0127720810 -0.0043788820 0 0
0.0106810940 -0.0061285100 0 0
0.0088253130 -0.0078969080 0 0
0.0073813160 -0.0095334300 0 0
0.0064921980 -0.0108955390 0 0
0.0062572290 -0.0118580990 0 0
0.0067252380 -0.0123251990 0 0
0.0078892380 -0.0122427760 0 0
0.0096800180 -0.0116083800 0 0
0.0119593280 -0.0104752180 0 0
0.0145193220 -0.0089494770 0 0
0.0170978680 -0.0071806510 0 0
0.0194121870 -0.0053448230 0 0
0.0212018820 -0.0036227820 0 0
0.0222679200 -0.0021775570 0 0
0.0224978050 -0.0011362810 0 0
0.0218744420 -0.0005783580 0 0
0.0204721240 -0.0005294320 0 0
0.0184437130 -0.0009605090 0 0
0.0160007120 -0.0017921120 0 0
0.0133886020 -0.0029034110 0 0
0.0108611080 -0.0041456870 0 0
0.0086546980 -0.0053583050 0 0
0.0069633660 -0.0063849480 0 0
0.0059180340 -0.0070891510 0 0
0.0055768740 -0.0073689970 0 0
0.0059267790 -0.0071698000 0 0
0.0068906070 -0.0064921200 0 0
0.0083374900 -0.0053928730 0 0
0.0100970080 -0.0039790710 0 0
0.0119757240 -0.0023950010 0 0
0.0137732120 -0.0008041380 0 0
0.0152981560 0.0006318250 0 0
0.0163862970 0.0017727420 0 0
0.0169190240 0.0025139560 0 0
0.0168390950 0.0027918890 0 0
0.0161600160 0.0025830110 0 0
0.0149667130 0.0019010990 0 0
0.0134057060 0.0007963720 0 0
0.0116647790 -0.0006444550 0 0
0.0099476320 -0.0023005370 0 0
0.0084510750 -0.0040235940 0 0
0.0073465190 -0.0056491150 0 0
0.0067628380 -0.0070122320 0 0
0.0067700140 -0.0079679280 0 0
0.0073674590 -0.0084123800 0 0
0.0084836430 -0.0082992430 0 0
0.0099908440 -0.0076460670 0 0
0.0117292560 -0.0065304870 0 0
0.0135287110 -0.0050784260 0 0
0.0152223310 -0.0034468770 0 0
0.0166564010 -0.0018042600 0 0
0.0177013070 -0.0003117360 0 0
0.0182612730 0.0008923770 0 0
0.0182790780 0.0017042830 0 0
0.0177382690 0.0020617350 0 0
0.0166667750 0.0019455900 0 0
0.0151396380 0.0013768820 0 0
0.0132766520 0.0004122010 0 0
0.0112345940 -0.0008607360 0 0
0.0091949680 -0.0023279690 0 0
0.0073470550 -0.0038566880 0 0
0.0058678080 -0.0053064250 0 0
0.0049027900 -0.0065429650 0 0
0.0045519240 -0.0074518170 0 0
0.0048612250 -0.0079486120 0 0
0.0058189260 -0.0079859660 0 0
0.0073538950 -0.0075574050 0 0
0.0093370730 -0.0066987150 0 0
0.0115896540 -0.0054863000 0 0
0.0139004410 -0.0040313190 0 0
0.0160497960 -0.0024692740 0 0
0.0178338840 -0.0009470890 0 0
0.0190829750 0.0003895050 0 0
0.0196714960 0.0014077110 0 0
0.0195240150 0.0019996460 0 0
0.0186235360 0.0020943530 0 0
0.0170219450 0.0016676010 0 0
0.0148445780 0.0007469920 0 0
0.0122812700 -0.0005890600 0 0
0.0095641200 -0.0022188960 0 0
0.0069395310 -0.0039912370 0 0
0.0046423310 -0.0057426200 0 0
0.0028737850 -0.0073148870 0 0
0.0017812970 -0.0085699200 0 0
0.0014414860 -0.0094015430 0 0
0.0018531000 -0.0097455830 0 0
0.0029428490 -0.0095876310 0 0
0.0045797390 -0.0089662520 0 0
0.0065910490 -0.0079693070 0 0
0.0087771050 -0.0067230790 0 0
0.0109275080 -0.0053761470 0 0
0.0128422230 -0.0040812990 0 0
0.0143556040 -0.0029785300 0 0
0.0153555010 -0.0021805710 0 0
0.0157895980 -0.0017616680 0 0
0.0156587410 -0.0017514150 0 0
0.0150058650 -0.0021353230 0 0
0.0139101480 -0.0028610630 0 0
0.0124874980 -0.0038470840 0 0
0.0108898990 -0.0049913350 0 0
0.0092961840 -0.0061802030 0 0
0.0078930730 -0.0072983230 0 0
0.0068509040 -0.0082385240 0 0
0.0063009580 -0.0089105230 0 0
0.0063204360 -0.0092477410 0 0
0.0069267810 -0.0092124390 0 0
0.0080785020 -0.0087994060 0 0
0.0096801430 -0.0080376250 0 0
0.0115916820 -0.0069886230 0 0
0.0136417320 -0.0057410040 0 0
0.0156422410 -0.0044020570 0 0
0.0174039090 -0.0030880670 0 0
0.0187531810 -0.0019147240 0 0
0.0195511720 -0.0009883370 0 0
0.0197129330 -0.0003976900 0 0
0.0192224370 -0.0002059250 0 0
0.0181369850 -0.0004422280 0 0
0.0165779570 -0.0010945470 0 0
0.0147114220 -0.0021062520 0 0
0.0127255810 -0.0033795810 0 0
0.0108110220 -0.0047858780 0 0
0.0091472650 -0.0061801900 0 0
0.0078950100 -0.0074175680 0 0
0.0071891650 -0.0083689920 0 0
0.0071274110 -0.0089350450 0 0
0.0077539950 -0.0090560050 0 0
0.0090451900 -0.0087180930 0 0
0.0109051720 -0.0079557330 0 0
0.0131754500 -0.0068487210 0 0
0.0156532000 -0.0055135100 0 0
0.0181130980 -0.0040895420 0 0
0.0203316840 -0.0027227610 0 0
0.0221124460 -0.0015490050 0 0
0.0233056160 -0.0006799670 0 0
0.0238197790 -0.0001929280 0 0
0.0236291050 -0.0001241350 0 0
0.0227784370 -0.0004659600 0 0
0.0213812310 -0.0011685530 0 0
0.0196047260 -0.0021462060 0 0
0.0176448110 -0.0032875350 0 0
0.0157001230 -0.0044679530 0 0
0.0139540210 -0.0055623200 0 0
0.0125651870 -0.0064553060 0 0
0.0116604250 -0.0070480470 0 0
0.0113239230 -0.0072621080 0 0
0.0115836930 -0.0070438580 0 0
0.0124015420 -0.0063712910 0 0
0.0136729570 -0.0052620810 0 0
0.0152383180 -0.0037792500 0 0
0.0169022450 -0.0020309630 0 0
0.0184568160 -0.0001626360 0 0
0.0197046060 0.0016580340 0 0
0.0204782010 0.0032602230 0 0
0.0206546660 0.0044893620 0 0
0.0201658780 0.0052235540 0 0
0.0190062390 0.0053861580 0 0
0.0172382330 0.0049548130 0 0
0.0149940100 0.0039658120 0 0
0.0124680150 0.0025116260 0 0
0.0098963480 0.0007314010 0 0
0.0075257010 -0.0012033780 0 0
0.0055813400 -0.0031059280 0 0
0.0042421420 -0.0047925080 0 0
0.0036247810 -0.0061006610 0 0
0.0037750680 -0.0069057060 0 0
0.0046645360 -0.0071334730 0 0
0.0061937720 -0.0067674710 0 0
0.0082051060 -0.0058499640 0 0
0.0105028820 -0.0044774780 0 0
0.0128759590 -0.0027907340 0 0
0.0151180420 -0.0009585010 0 0
0.0170429230 0.0008426830 0 0
0.0184942570 0.0024477420 0 0
0.0193541330 0.0037171080 0 0
0.0195546150 0.0045460070 0 0
0.0190902140 0.0048717420 0 0
0.0180244020 0.0046799340 0 0
0.0164838450 0.0040076280 0 0
0.0146403960 0.0029401500 0 0
0.0126889660 0.0016002970 0 0
0.0108299420 0.0001321780 0 0
0.0092564390 -0.0013151140 0 0
0.0081407070 -0.0026002600 0 0
0.0076169480 -0.0035993080 0 0
0.0077642820 -0.0042143540 0 0
0.0085963780 -0.0043819500 0 0
0.0100610880 -0.0040800170 0 0
0.0120480620 -0.0033318060 0 0
0.0144010860 -0.0022059610 0 0
0.0169335910 -0.0008119210 0 0
0.0194451440 0.0007093620 0 0
0.0217361920 0.0021983130 0 0
0.0236218170 0.0034920700 0 0
0.0249470810 0.0044418420 0 0
0.0256027890 0.0049317400 0 0
0.0255381020 0.0048962530 0 0
0.0247686760 0.0043316100 0 0
0.0233801120 0.0032977690 0 0
0.0215247520 0.0019111010 0 0
0.0194098520 0.0003296840 0 0
0.0172775560 -0.0012662780 0 0
0.0153786960 -0.0026955540 0 0
0.0139427690 -0.0037953320 0 0
0.0131480720 -0.0044376110 0 0
0.0130987780 -0.0045419530 0 0
0.0138151810 -0.0040831740 0 0
0.0152369520 -0.0030924560 0 0
0.0172334030 -0.0016518340 0 0
0.0196161800 0.0001163860 0 0
0.0221547320 0.0020625780 0 0
0.0245960940 0.0040226220 0 0
0.0266883410 0.0058302430 0 0
0.0282063950 0.0073304290 0 0
0.0289787050 0.0083940850 0 0
0.0289101230 0.0089313270 0 0
0.0279942240 0.0089008160 0 0
0.0263124280 0.0083143210 0 0
0.0240228710 0.0072361180 0 0
0.0213431540 0.0057763960 0 0
0.0185292760 0.0040784380 0 0
0.0158512290 0.0023011100 0 0
0.0135652140 0.0006009400 0 0
0.0118847210 -0.0008818840 0 0
0.0109565740 -0.0020331750 0 0
0.0108478460 -0.0027722270 0 0
0.0115448570 -0.0030576580 0 0
0.0129614360 -0.0028905410 0 0
0.0149529640 -0.0023140460 0 0
0.0173336930 -0.0014089440 0 0
0.0198958540 -0.0002847250 0 0
0.0224290460 0.0009322660 0 0
0.0247379340 0.0021110850 0 0
0.0266570730 0.0031272960 0 0
0.0280630080 0.0038731040 0 0
0.0288836130 0.0042669270 0 0
0.0291028400 0.0042620840 0 0
0.0287579820 0.0038533320 0 0
0.0279299750 0.0030794570 0 0
0.0267334380 0.0020205520 0 0
0.0253125310 0.0007895670 0 0
0.0238397700 -0.0004810800 0 0
0.0225083640 -0.0016555880 0 0
0.0215117510 -0.0026100770 0 0
0.0210136720 -0.0032442640 0 0
0.0211196300 -0.0034893400 0 0
0.0218596400 -0.0033135620 0 0
0.0231847360 -0.0027257170 0 0
0.0249738940 -0.0017752460 0 0
0.0270479420 -0.0005486870 0 0
0.0291891990 0.0008370930 0 0
0.0311654650 0.0022453600 1 0
0.0327555300 0.0035339590 1 0
0.0337730680 0.0045717450 1 0
0.0340859070 0.0052535390 1 0
0.0336281710 0.0055111720 1 0
0.0324048620 0.0053201050 1 0
0.0304905630 0.0047016540 1 0
0.0280233920 0.0037205780 0 0
0.0251936120 0.0024780860 0 0
0.0222266030 0.0011015010 0 0
0.0193620460 -0.0002678130 0 0
0.0168322650 -0.0014874140 0 0
0.0148416910 -0.0024275420 0 0
0.0135478400 -0.0029853830 0 0
0.0130444160 -0.0030975330 0 0
0.0133489470 -0.0027468490 0 0
0.0143984220 -0.0019620320 0 0
0.0160561790 -0.0008122530 0 0
0.0181306670 0.0005999550 0 0
0.0204006100 0.0021465050 0 0
0.0226385910 0.0036834620 0 0
0.0246305700 0.0050640220 0 0
0.0261935240 0.0061539910 0 0
0.0271911570 0.0068463160 0 0
0.0275437440 0.0070710300 0 0
0.0272299630 0.0067997720 0 0
0.0262847630 0.0060464210 0 0
0.0247984880 0.0048652870 0 0
0.0229158270 0.0033473280 0 0
0.0208272530 0.0016141770 0 0
0.0187481810 -0.0001908040 0 0
0.0168910000 -0.0019150610 0 0
0.0154409870 -0.0034119990 0 0
0.0145406500 -0.0045562270 0 0
0.0142784760 -0.0052561650 0 0
0.0146797930 -0.0054621940 0 0
0.0157028480 -0.0051693070 0 0
0.0172423060 -0.0044139840 0 0
0.0191393400 -0.0032670580 0 0
0.0211974050 -0.0018261430 0 0
0.0232024540 -0.0002100210 0 0
0.0249445200 0.0014463420 0 0
0.0262374270 0.0029998010 0 0
0.0269356250 0.0043119140 0 0
0.0269487820 0.0052646490 0 0
0.0262536590 0.0057748220 0 0
0.0249003950 0.0058041160 0 0
0.0230097660 0.0053636240 0 0
0.0207612590 0.0045126680 0 0
0.0183758890 0.0033518360 0 0
0.0160970290 0.0020118480 0 0
0.0141681890 0.0006409770 0 0
0.0128060890 -0.0006082350 0 0
0.0121725740 -0.0015937020 0 0
0.0123535730 -0.0021990890 0 0
0.0133503430 -0.0023469700 0 0
0.0150816230 -0.0020078620 0 0
0.0173938310 -0.0012044490 0 0
0.0200783040 -0.0000104262 0 0
0.0228931830 0.0014565040 0 0
0.0255862780 0.0030470340 0 0
0.0279169160 0.0045968770 0 0
0.0296765870 0.0059457760 0 0
0.0307089930 0.0069559980 1 0
0.0309286550 0.0075273390 1 0
0.0303331060 0.0076071740 1 0
0.0290020060 0.0071950130 0 0
0.0270824450 0.0063414280 0 0
0.0247677150 0.0051421190 0 0
0.0222767440 0.0037276530 0 0
0.0198345770 0.0022484880 0 0
0.0176525060 0.0008564790 0 0
0.0159100310 -0.0003129170 0 0
0.0147414670 -0.0011537160 0 0
0.0142282960 -0.0015969970 0 0
0.0143960990 -0.0016141670 0 0
0.0152122140 -0.0012168050 0 0
0.0165821460 -0.0004536390 0 0
0.0183492940 0.0005945570 0 0
0.0203055560 0.0018213400 0 0
0.0222153660 0.0031022950 0 0
0.0238468960 0.0043045580 0 0
0.0250015120 0.0052983620 0 0
0.0255370220 0.0059699390 0 0
0.0253822750 0.0062341170 0 0
0.0245398660 0.0060444940 0 0
0.0230776460 0.0053999410 0 0
0.0211153100 0.0043468360 0 0
0.0188120720 0.0029763290 0 0
0.0163568590 0.0014164620 0 0
0.0139584200 -0.0001800720 0 0
0.0118313970 -0.0016514590 0 0
0.0101763950 -0.0028439450 0 0
0.0091563330 -0.0036277340 0 0
0.0088746330 -0.0039090960 0 0
0.0093610360 -0.0036389590 0 0
0.0105678580 -0.0028191380 0 0
0.0123754370 -0.0015050840 0 0
0.0146042060 0.0001970500 0 0
0.0170327680 0.0021401880 0 0
0.0194213140 0.0041523880 0 0
0.0215372830 0.0060562780 0 0
0.0231797950 0.0076879760 0 0
0.0242002110 0.0089131100 0 0
0.0245161890 0.0096387520 0 0
0.0241184550 0.0098202220 0 0
0.0230719840 0.0094624900 0 0
0.0215119560 0.0086173080 0 0
0.0196307380 0.0073774100 0 0
0.0176530020 0.0058680880 0 0
0.0158043930 0.0042357190 0 0
0.0142845130 0.0026336110 0 0
0.0132499710 0.0012073300 0 0
0.0128057750 0.0000822219 0 0
0.0130017520 -0.0006462770 0 0
0.0138319910 -0.0009208820 0 0
0.0152354520 -0.0007295180 0 0
0.0170973510 -0.0001093200 0 0
0.0192546760 0.0008546910 0 0
0.0215097910 0.0020380070 0 0
0.0236509460 0.0032924520 0 0
0.0254738340 0.0044666310 0 0
0.0268000420 0.0054255120 0 0
0.0274927830 0.0060645270 0 0
0.0274716670 0.0063171720 0 0
0.0267259900 0.0061576740 0 0
0.0253222970 0.0056001220 0 0
0.0234006740 0.0046947490 0 0
0.0211576430 0.0035219040 0 0
0.0188194730 0.0021843900 0 0
0.0166133710 0.0007990920 0 0
0.0147441420 -0.0005110280 0 0
0.0133801590 -0.0016246240 0 0
0.0126447930 -0.0024308550 0 0
0.0126055250 -0.0028401870 0 0
0.0132601110 -0.0027957980 0 0
0.0145284440 -0.0022832970 0 0
0.0162587000 -0.0013364920 0 0
0.0182491680 -0.0000372126 0 0
0.0202796740 0.0014918520 0 0
0.0221418160 0.0031003820 0 0
0.0236596650 0.0046271970 0 0
0.0247001100 0.0059182190 0 0
0.0251761520 0.0068440520 0 0
0.0250466000 0.0073153230 0 0
0.0243156170 0.0072933770 0 0
0.0230338670 0.0067945660 0 0
0.0212995350 0.0058885060 0 0
0.0192566590 0.0046916290 0 0
0.0170888080 0.0033559090 0 0
0.0150056050 0.0020520590 0 0
0.0132204610 0.0009488160 0 0
0.0119221120 0.0001919950 0 0
0.0112468940 -0.0001133420 0 0
0.0112593500 0.0000849110 0 0
0.0119457900 0.0007814050 0 0
0.0132212220 0.0019172400 0 0
0.0149459620 0.0033902520 0 0
0.0169461320 0.0050680050 0 0
0.0190338670 0.0068008910 0 0
0.0210253100 0.0084353290 0 0
0.0227544250 0.0098278460 0 0
0.0240820870 0.0108590570 0 0
0.0249036430 0.0114446730 0 0
0.0251576440 0.0115407900 0 0
0.0248328470 0.0111431420 0 0
0.0239692420 0.0102831970 0 0
0.0226542540 0.0090243500 0 0
0.0210178020 0.0074587210 0 0
0.0192259360 0.0057030000 0 0
0.0174699610 0.0038917040 0 0
0.0159490330 0.0021670980 0 0
0.0148464130 0.0006666160 0 0
0.0143031830 -0.0004905630 0 0
0.0143965960 -0.0012163170 0 0
0.0151291820 -0.0014635280 0 0
0.0164305870 -0.0012305870 0 0
0.0181702130 -0.0005602040 0 0
0.0201755630 0.0004655720 0 0
0.0222507410 0.0017326260 0 0
0.0241929270 0.0031038320 0 0
0.0258079270 0.0044301030 0 0
0.0269267340 0.0055637010 0 0
0.0274232400 0.0063732420 0 0
0.0272297500 0.0067588850 0 0
0.0263456840 0.0066653800 0 0
0.0248380330 0.0060900870 0 0
0.0228347790 0.0050838610 0 0
0.0205115700 0.0037444460 0 0
0.0180717940 0.0022035710 0 0
0.0157237630 0.0006103290 0 0
0.0136611550 -0.0008854520 0 0
0.0120496450 -0.0021468310 0 0
0.0110172350 -0.0030599210 0 0
0.0106440200 -0.0035424080 0 0
0.0109511130 -0.0035515650 0 0
0.0118936020 -0.0030903740 0 0
0.0133623720 -0.0022093930 0 0
0.0151949450 -0.0010034380 0 0
0.0171923580 0.0003969200 0 0
0.0191390290 0.0018389070 0 0
0.0208236130 0.0031650780 0 0
0.0220597570 0.0042320490 0 0
0.0227053870 0.0049266020 0 0
0.0226784090 0.0051761540 0 0
0.0219671260 0.0049530180 0 0
0.0206334460 0.0042735530 0 0
0.0188064150 0.0031933930 0 0
0.0166664080 0.0018002220 0 0
0.0144241530 0.0002060500 0 0
0.0122994720 -0.0014601160 0 0
0.0105022940 -0.0030602500 0 0
0.0092147600 -0.0044575090 0 0
0.0085719630 -0.0055291150 0 0
0.0086432950 -0.0061806110 0 0
0.0094214410 -0.0063583740 0 0
0.0108243160 -0.0060574190 0 0
0.0127092100 -0.0053233730 0 0
0.0148938530 -0.0042487450 0 0
0.0171776530 -0.0029636350 0 0
0.0193587260 -0.0016218870 0 0
0.0212470320 -0.0003849500 0 0
0.0226767260 0.0005948470 0 0
0.0235201030 0.0011906740 0 0
0.0237027950 0.0013153060 0 0
0.0232168920 0.0009307050 0 0
0.0221275510 0.0000525389 0 0
0.0205697360 -0.0012500940 0 0
0.0187345730 -0.0028606270 0 0
0.0168473990 -0.0046275890 0 0
0.0151402910 -0.0063823900 0 0
0.0138227360 -0.0079584060 0 0
0.0130558800 -0.0092077660 0 0
0.0129355390 -0.0100151260 0 0
0.0134867370 -0.0103090380 0 0
0.0146691150 -0.0100698760 0 0
0.0163875830 -0.0093319010 0 0
0.0185009360 -0.0081785330 0 0
0.0208276580 -0.0067322630 0 0
0.0231553090 -0.0051412590 0 0
0.0252582350 -0.0035640590 0 0
0.0269216550 -0.0021536520 0 0
0.0279667150 -0.0010424310 0 0
0.0282714050 -0.0003295710 0 0
0.0277844360 -0.0000727220 0 0
0.0265313160 -0.0002850880 0 0
0.0246117900 -0.0009367810 0 0
0.0221877010 -0.0019586650 0 0
0.0194641410 -0.0032482180 0 0
0.0166704710 -0.0046778120 0 0
0.0140439450 -0.0061057240 0 0
0.0118119730 -0.0073894140 0 0
0.0101695500 -0.0083995880 0 0
0.0092551840 -0.0090331960 0 0
0.0091335290 -0.0092239360 0 0
0.0097906940 -0.0089487090 0 0
0.0111407990 -0.0082287120 0 0
0.0130379480 -0.0071262050 0 0
0.0152907400 -0.0057394890 0 0
0.0176798550 -0.0041960700 0 0
0.0199772910 -0.0026417120 0 0
0.0219649740 -0.0012253690 0 0
0.0234532660 -0.0000831423 0 0
0.0242997200 0.0006751010 0 0
0.0244250960 0.0009742890 0 0
0.0238235040 0.0007783720 0 0
0.0225650270 0.0000925040 0 0
0.0207887690 -0.0010355690 0 0
0.0186856670 -0.0025163820 0 0
0.0164759610 -0.0042242440 0 0
0.0143878330 -0.0060081800 0 0
0.0126378890 -0.0077068910 0 0
0.0114105390 -0.0091647230 0 0
0.0108372070 -0.0102461000 0 0
0.0109807280 -0.0108481740 0 0
0.0118294410 -0.0109120280 0 0
0.0133012180 -0.0104309050 0 0
0.0152544720 -0.0094533630 0 0
0.0175033820 -0.0080804980 0 0
0.0198356270 -0.0064572660 0 0
0.0220314870 -0.0047582300 0 0
0.0238847710 -0.0031686590 0 0
0.0252256590 -0.0018629850 0 0
0.0259402200 -0.0009835240 0 0
0.0259791300 -0.0006232500 0 0
0.0253549030 -0.0008162110 0 0
0.0241343270 -0.0015368880 0 0
0.0224323270 -0.0027074290 0 0
0.0204071870 -0.0042102900 0 0
0.0182521760 -0.0059029860 0 0
0.0161796860 -0.0076320500 0 0
0.0143991180 -0.0092450300 0 0
0.0130932820 -0.0106012650 0 0
0.0123978300 -0.0115828100 0 0
0.0123864050 -0.0121053810 0 0
0.0130619920 -0.0121271270 0 0
0.0143542850 -0.0116531570 0 0
0.0161248680 -0.0107356410 0 0
0.0181834640 -0.0094690880 0 0
0.0203141000 -0.0079791680 0 0
0.0223023320 -0.0064061630 0 0
0.0239550790 -0.0048880520 0 0
0.0251138330 -0.0035473420 0 0
0.0256665640 -0.0024821160 0 0
0.0255597610 -0.0017604860 0 0
0.0248077920 -0.0014177690 0 0
0.0234945200 -0.0014555830 0 0
0.0217623930 -0.0018424480 0 0
0.0197912460 -0.0025160620 0 0
0.0177763280 -0.0033879170 0 0
0.0159117290 -0.0043506160 0 0
0.0143775510 -0.0052875310 0 0
0.0133271090 -0.0060840090 0 0
0.0128729680 -0.0066393120 0 0
0.0130733360 -0.0068779640 0 0
0.0139221100 -0.0067589070 0 0
0.0153462990 -0.0062814280 0 0
0.0172128790 -0.0054874550 0 0
0.0193436320 -0.0044591590 0 0
0.0215343710 -0.0033102160 0 0
0.0235762440 -0.0021707560 0 0
0.0252782090 -0.0011692650 0 0
0.0264882850 -0.0004165600 0 0
0.0271091350 0.0000046653 0 0
0.0271050410 0.0000447277 0 0
0.0265017540 -0.0003119290 0 0
0.0253815540 -0.0010479940 0 0
0.0238729260 -0.0021158710 0 0
0.0221349510 -0.0034406580 0 0
0.0203403840 -0.0049236890 0 0
0.0186609860 -0.0064476990 0 0
0.0172544890 -0.0078841830 0 0
0.0162512390 -0.0091029720 0 0
0.0157416520 -0.0099844960 0 0
0.0157677220 -0.0104349900 0 0
0.0163201280 -0.0104024040 0 0
0.0173401520 -0.0098880150 0 0
0.0187247440 -0.0089493800 0 0
0.0203338120 -0.0076938260 0 0
0.0220005970 -0.0062651280 0 0
0.0235462910 -0.0048268120 0 0
0.0247982710 -0.0035436570 0 0
0.0256102800 -0.0025619200 0 0
0.0258816140 -0.0019907220 0 0
0.0255704850 -0.0018894230 0 0
0.0246973600 -0.0022644530 0 0
0.0233384230 -0.0030741290 0 0
0.0216138660 -0.0042368810 0 0
0.0196757060 -0.0056408700 0 0
0.0176963400 -0.0071556900 0 0
0.0158576990 -0.0086452270 0 0
0.0143394710 -0.0099789260 0 0
0.0133021970 -0.0110405230 0 0
0.0128650590 -0.0117356770 0 0
0.0130864890 -0.0119994630 0 0
0.0139548370 -0.0118027980 0 0
0.0153885290 -0.0111563690 0 0
0.0172432600 -0.0101116420 0 0
0.0193266100 -0.0087583310 0 0
0.0214203030 -0.0072171850 0 0
0.0233071440 -0.0056282990 0 0
0.0247972140 -0.0041372680 0 0
0.0257480100 -0.0028816150 0 0
0.0260764010 -0.0019783430 0 0
0.0257640470 -0.0015125000 0 0
0.0248585640 -0.0015268770 0 0
0.0234690420 -0.0020141250 0 0
0.0217521000 -0.0029143000 0 0
0.0198896310 -0.0041211470 0 0
0.0180666260 -0.0054971840 0 0
0.0164559370 -0.0068932070 0 0
0.0152081170 -0.0081663520 0 0
0.0144410230 -0.0091932100 0 0
0.0142285620 -0.0098780740 0 0
0.0145924080 -0.0101584070 0 0
0.0155000360 -0.0100088020 0 0
0.0168692700 -0.0094430920 0 0
0.0185772330 -0.0085138130 0 0
0.0204717930 -0.0073087940 0 0
0.0223851710 -0.0059447970 0 0
0.0241495320 -0.0045584870 0 0
0.0256113910 -0.0032954730 0 0
0.0266410390 -0.0022978630 0 0
0.0271388550 -0.0016904770 0 0
0.0270438140 -0.0015669820 0 0
0.0263448090 -0.0019779770 0 0
0.0250900590 -0.0029223940 0 0
0.0233896950 -0.0043430650 0 0
0.0214083340 -0.0061278490 0 0
0.0193466200 -0.0081182860 0 0
0.0174153980 -0.0101265570 0 0
0.0158098740 -0.0119583090 0 0
0.0146894010 -0.0134363110 0 0
0.0141638530 -0.0144202590 0 0
0.0142855300 -0.0148202620 0 0
0.0150463130 -0.0146032620 0 0
0.0163787430 -0.0137927240 0 0
0.0181585440 -0.0124632520 0 0
0.0202098080 -0.0107323740 0 0
0.0223181030 -0.0087506110 0 0
0.0242534700 -0.0066895230 0 0
0.0257987520 -0.0047268870 0 0
0.0267770630 -0.0030286860 0 0
0.0270734450 -0.0017297990 0 0
0.0266463550 -0.0009179730 0 0
0.0255275640 -0.0006256540 0 0
0.0238144670 -0.0008307640 0 0
0.0216601800 -0.0014635840 0 0
0.0192623660 -0.0024162340 0 0
0.0168474400 -0.0035541530 0 0
0.0146476410 -0.0047300180 0 0
0.0128730890 -0.0057983990 0 0
0.0116849990 -0.0066287740 0 0
0.0111766880 -0.0071161310 0 0
0.0113657720 -0.0071892980 0 0
0.0121983190 -0.0068168290 0 0
0.0135639230 -0.0060100010 0 0
0.0153162420 -0.0048215890 0 0
0.0172911230 -0.0033392430 0 0
0.0193188600 -0.0016752920 0 0
0.0212326300 0.0000432870 0 0
0.0228759780 0.0016833510 0 0
0.0241109810 0.0031141710 0 0
0.0248283700 0.0042179760 0 0
0.0249594810 0.0049023190 0 0
0.0244868040 0.0051117550 0 0
0.0234487730 0.0048356750 0 0
0.0219376080 0.0041106930 0 0
0.0200926250 0.0030176800 0 0
0.0180918350 0.0016741020 0 0
0.0161416780 0.0002226130 0 0
0.0144614690 -0.0011826340 0 0
0.0132604160 -0.0023904260 0 0
0.0127104980 -0.0032672630 0 0
0.0129214850 -0.0037124300 0 0
0.0139227310 -0.0036717840 0 0
0.0156550690 -0.0031468950 0 0
0.0179761690 -0.0021967050 0 0
0.0206797560 -0.0009311770 0 0
0.0235234480 0.0005016820 0 0
0.0262574820 0.0019333720 0 0
0.0286499530 0.0031944310 0 0
0.0305079500 0.0041330470 1 0
0.0316937460 0.0046307900 1 0
0.0321342680 0.0046145360 1 0
0.0318240100 0.0040639370 1 0
0.0308227130 0.0030135270 1 0
0.0292472930 0.0015483410 0 0
0.0272575620 -0.0002072270 0 0
0.0250384420 -0.0021054500 0 0
0.0227826080 -0.0039922140 0 0
0.0206751430 -0.0057211090 0 0
0.0188797900 -0.0071636120 0 0
0.0175267840 -0.0082168880 0 0
0.0167036050 -0.0088111050 0 0
0.0164503570 -0.0089163590 0 0
0.0167587660 -0.0085470140 0 0
0.0175705660 -0.0077609060 0 0
0.0187740910 -0.0066528080 0 0
0.0202051690 -0.0053440380 0 0
0.0216598970 -0.0039710480 0 0
0.0229201890 -0.0026742290 0 0
0.0237853560 -0.0015860720 0 0
0.0241006290 -0.0008185840 0 0
0.0237767890 -0.0004521800 0 0
0.0227991310 -0.0005280810 0 0
0.0212263600 -0.0010440710 0 0
0.0191814270 -0.0019533110 0 0
0.0168371380 -0.0031677650 0 0
0.0143983250 -0.0045675570 0 0
0.0120807390 -0.0060147650 0 0
0.0100879940 -0.0073683370 0 0
0.0085902100 -0.0084975950 0 0
0.0077076160 -0.0092937980 0 0
0.0074999530 -0.0096799800 0 0
0.0079609080 -0.0096181550 0 0
0.0090177170 -0.0091128710 0 0
0.0105370370 -0.0082114640 0 0
0.0123371470 -0.0070013330 0 0
0.0142060200 -0.0056036630 0 0
0.0159250390 -0.0041635630 0 0
0.0172955610 -0.0028369640 0 0
0.0181620330 -0.0017743070 0 0
0.0184263690 -0.0011027280 0 0
0.0180536740 -0.0009106050 0 0
0.0170730830 -0.0012374350 0 0
0.0155760540 -0.0020693770 0 0
0.0137104180 -0.0033401970 0 0
0.0116672250 -0.0049379780 0 0
0.0096599990 -0.0067175830 0 0
0.0078997160 -0.0085175120 0 0
0.0065708840 -0.0101785680 0 0
0.0058131830 -0.0115611000 0 0
0.0057092940 -0.0125578710 0 0
0.0062770380 -0.0131005810 0 0
0.0074663920 -0.0131603560 0 0
0.0091649680 -0.0127451100 0 0
0.0112130600 -0.0118971070 0 0
0.0134233330 -0.0106918560 0 0
0.0155993340 -0.0092364780 0 0
0.0175523530 -0.0076647040 0 0
0.0191186680 -0.0061271870 0 0
0.0201762720 -0.0047782980 0 0
0.0206577400 -0.0037610880 0 0
0.0205557170 -0.0031906600 0 0
0.0199186830 -0.0031367930 0 0
0.0188378000 -0.0036103240 0 0
0.0174303620 -0.0045589420 0 0
0.0158277700 -0.0058747310 0 0
0.0141711550 -0.0074108720 0 0
0.0126091670 -0.0090022250 0 0
0.0112906900 -0.0104849700 0 0
0.0103513950 -0.0117127830 0 0
0.0098971710 -0.0125690080 0 0
0.0099881660 -0.0129751680 0 0
0.0106286480 -0.0128964790 0 0
0.0117666430 -0.0123447730 0 0
0.0133011450 -0.0113780820 0 0
0.0150915080 -0.0100957440 0 0
0.0169675220 -0.0086289700 0 0
0.0187426480 -0.0071279540 0 0
0.0202317330 -0.0057461900 0 0
0.0212717830 -0.0046226210 0 0
0.0217431810 -0.0038642890 0 0
0.0215868500 -0.0035337450 0 0
0.0208122250 -0.0036438090 0 0
0.0194948200 -0.0041597330 0 0
0.0177659450 -0.0050076700 0 0
0.0157971560 -0.0060870640 0 0
0.0137812810 -0.0072834260 0 0
0.0119122470 -0.0084790170 0 0
0.0103662350 -0.0095612800 0 0
0.0092865800 -0.0104295400 0 0
0.0087732100 -0.0110005980 0 0
0.0088759740 -0.0112141670 0 0
0.0095908810 -0.0110385480 0 0
0.0108589140 -0.0104759660 0 0
0.0125692870 -0.0095662250 0 0
0.0145696330 -0.0083863540 0 0
0.0166815400 -0.0070443580 0 0
0.0187169440 -0.0056674500 0 0
0.0204928950 -0.0043872410 0 0
0.0218451820 -0.0033245960 0 0
0.0226419450 -0.0025763650 0 0
0.0227970200 -0.0022060360 0 0
0.0222814780 -0.0022391430 0 0
0.0211314490 -0.0026623320 0 0
0.0194503530 -0.0034249820 0 0
0.0174030620 -0.0044433660 0 0
0.0152006020 -0.0056073740 0 0
0.0130769400 -0.0067894130 0 0
0.0112610450 -0.0078555410 0 0
0.0099485290 -0.0086786300 0 0
0.0092785870 -0.0091521780 0 0
0.0093202300 -0.0092027970 0 0
0.0100678240 -0.0087997460 0 0
0.0114440450 -0.0079602660 0 0
0.0133089920 -0.0067495460 0 0
0.0154754480 -0.0052743790 0 0
0.0177305470 -0.0036709880 0 0
0.0198617630 -0.0020890400 0 0
0.0216816010 -0.0006742170 0 0
0.0230446550 0.0004481820 0 0
0.0238550680 0.0011861810 0 0
0.0240678260 0.0014891880 0 0
0.0236882600 0.0013510780 0 0
0.0227710070 0.0008093770 0 0
0.0214169840 -0.0000586034 0 0
0.0197665460 -0.0011434100 0 0
0.0179878450 -0.0023156270 0 0
0.0162613690 -0.0034408980 0 0
0.0147637800 -0.0043943420 0 0
0.0136532180 -0.0050715710 0 0
0.0130552800 -0.0053955590 0 0
0.0130482590 -0.0053203930 0 0
0.0136493070 -0.0048333650 0 0
0.0148067210 -0.0039560300 0 0
0.0164031080 -0.0027439810 0 0
0.0182695110 -0.0012848000 0 0
0.0202065310 0.0003062640 0 0
0.0220081600 0.0018935340 0 0
0.0234859910 0.0033316000 0 0
0.0244917720 0.0044791720 0 0
0.0249334110 0.0052148710 0 0
0.0247795230 0.0054527410 0 0
0.0240540680 0.0051542700 0 0
0.0228276550 0.0043342060 0 0
0.0212096320 0.0030591360 0 0
0.0193404910 0.0014395680 0 0
0.0173830550 -0.0003823670 0 0
0.0155121130 -0.0022471770 0 0
0.0139018830 -0.0039929390 0 0
0.0127100680 -0.0054708100 0 0
0.0120599400 -0.0065608440 0 0
0.0120237440 -0.0071861770 0 0
0.0126097550 -0.0073217370 0 0
0.0137563240 -0.0069938450 0 0
0.0153366560 -0.0062710510 0 0
0.0171735840 -0.0052514210 0 0
0.0190605570 -0.0040519890 0 0
0.0207864640 -0.0028014670 0 0
0.0221609640 -0.0016330710 0 0
0.0230340210 -0.0006745450 0 0
0.0233053880 -0.0000355523 0 0
0.0229262990 0.0002052190 0 0
0.0218995430 0.0000103381 0 0
0.0202818180 -0.0006111090 0 0
0.0181861640 -0.0016042980 0 0
0.0157782090 -0.0028749440 0 0
0.0132624780 -0.0042996790 0 0
0.0108607310 -0.0057387700 0 0
0.0087869090 -0.0070496300 0 0
0.0072227290 -0.0081001760 0 0
0.0062973960 -0.0087815130 0 0
0.0060744670 -0.0090190180 0 0
0.0065474830 -0.0087803420 0 0
0.0076438000 -0.0080793820 0 0
0.0092347670 -0.0069758330 0 0
0.0111507930 -0.0055697950 0 0
0.0132001340 -0.0039918680 0 0
0.0151891960 -0.0023908540 0 0
0.0169414430 -0.0009203550 0 0
0.0183128440 0.0002759970 0 0
0.0192033450 0.0010795900 0 0
0.0195654550 0.0014094110 0 0
0.0194097880 0.0012302170 0 0
0.0188029010 0.0005559490 0 0
0.0178536650 -0.0005519190 0 0
0.0166936590 -0.0019912840 0 0
0.0154621310 -0.0036304450 0 0
0.0142988600 -0.0053213140 0 0
0.0133394040 -0.0069133910 0 0
0.0127071520 -0.0082677270 0 0
0.0125011040 -0.0092697910 0 0
0.0127817020 -0.0098395710 0 0
0.0135591030 -0.0099377470 0 0
0.0147878520 -0.0095681010 0 0
0.0163693030 -0.0087767680 0 0
0.0181612590 -0.0076482400 0 0
0.0199931780 -0.0062977220 0 0
0.0216843110 -0.0048602530 0 0
0.0230629480 -0.0034783100 0 0
0.0239856130 -0.0022893470 0 0
0.0243524480 -0.0014131140 0 0
0.0241145110 -0.0009389160 0 0
0.0232742740 -0.0009155600 0 0
0.0218837990 -0.0013466740 0 0
0.0200412420 -0.0021908390 0 0
0.0178837220 -0.0033646660 0 0
0.0155766000 -0.0047491170 0 0
0.0133011400 -0.0062005860 0 0
0.0112417490 -0.0075664280 0 0
0.0095717080 -0.0087025650 0 0
0.0084354740 -0.0094899310 0 0
0.0079289180 -0.0098463750 0 0
0.0080826090 -0.0097321910 0 0
0.0088530940 -0.0091505750 0 0
0.0101254650 -0.0081460320 0 0
0.0117283070 -0.0068018310 0 0
0.0134572140 -0.0052347830 0 0
0.0150999800 -0.0035853720 0 0
0.0164595460 -0.0020035230 0 0
0.0173737060 -0.0006325410 0 0
0.0177301910 0.0004062090 0 0
0.0174762890 0.0010263210 0 0
0.0166234040 0.0011854610 0 0
0.0152462500 0.0008888330 0 0
0.0134768920 0.0001868800 0 0
0.0114943940 -0.0008314200 0 0
0.0095090430 -0.0020484740 0 0
0.0077411830 -0.0033304910 0 0
0.0063986600 -0.0045413140 0 0
0.0056555780 -0.0055557700 0 0
0.0056315470 -0.0062705990 0 0
0.0063735520 -0.0066128650 0 0
0.0078472910 -0.0065472520 0 0
0.0099420960 -0.0060823250 0 0
0.0124864750 -0.0052728090 0 0
0.0152673900 -0.0042145070 0 0
0.0180480320 -0.0030320710 0 0
0.0205844420 -0.0018634870 0 0
0.0226446640 -0.0008451490 0 0
0.0240316740 -0.0000987726 0 0
0.0246080830 0.0002805250 0 0
0.0243185550 0.0002347980 0 0
0.0232030840 -0.0002493550 0 0
0.0213945640 -0.0011385300 0 0
0.0191002820 -0.0023560940 0 0
0.0165724690 -0.0037909580 0 0
0.0140743340 -0.0053096180 0 0
0.0118484500 -0.0067694980 0 0
0.0100934210 -0.0080323290 0 0
0.0089515830 -0.0089766570 0 0
0.0085068050 -0.0095085430 0 0
0.0087872610 -0.0095694820 0 0
0.0097660510 -0.0091406840 0 0
0.0113580350 -0.0082436950 0 0
0.0134202690 -0.0069380670 0 0
0.0157643870 -0.0053170740 0 0
0.0181789220 -0.0035019830 0 0
0.0204522230 -0.0016346050 0 0
0.0223909160 0.0001324950 0 0
0.0238352130 0.0016482620 0 0
0.0246721250 0.0027776630 0 0
0.0248451720 0.0034171800 0 0
0.0243601800 0.0035087640 0 0
0.0232875110 0.0030495920 0 0
0.0217585810 0.0020955990 0 0
0.0199539990 0.0007570600 0 0
0.0180841180 -0.0008142260 0 0
0.0163654870 -0.0024435420 0 0
0.0149971220 -0.0039532200 0 0
0.0141399430 -0.0051809360 0 0
0.0139010680 -0.0059951460 0 0
0.0143229220 -0.0063069030 0 0
0.0153781910 -0.0060774630 0 0
0.0169735120 -0.0053216800 0 0
0.0189626430 -0.0041072400 0 0
0.0211652140 -0.0025492220 0 0
0.0233864040 -0.0007992960 0 0
0.0254352850 0.0009699560 0 0
0.0271408230 0.0025834410 0 0
0.0283646810 0.0038816480 0 0
0.0290111970 0.0047361660 0 0
0.0290362090 0.0050621270 0 0
0.0284547770 0.0048274540 0 0
0.0273433150 0.0040572050 0 0
0.0258312540 0.0028306590 0 0
0.0240844480 0.0012708450 0 0
0.0222877080 -0.0004711900 0 0
0.0206297160 -0.0022339510 0 0
0.0192880750 -0.0038617890 0 0
0.0184137210 -0.0052182480 0 0
0.0181172930 -0.0061966930 0 0
0.0184597200 -0.0067287080 0 0
0.0194475040 -0.0067901710 0 0
0.0210323490 -0.0064042890 0 0
0.0231140180 -0.0056398200 0 0
0.0255449540 -0.0046027160 0 0
0.0281365780 -0.0034223190 0 0
0.0306703140 -0.0022363020 1 0
0.0329171220 -0.0011777130 1 0
0.0346645520 -0.0003639820 1 0
0.0357447370 0.0001136610 1 0
0.0360569790 0.0001998460 1 0
0.0355816690 -0.0001186480 1 0
0.0343826690 -0.0008114330 1 0
0.0325964270 -0.0018074750 1 0
0.0304107990 -0.0030017870 1 0
0.0280403140 -0.0042653190 0 0
0.0257038160 -0.0054575100 0 0
0.0236066320 -0.0064402990 0 0
0.0219262760 -0.0070917280 0 0
0.0207997880 -0.0073181920 0 0
0.0203114070 -0.0070652900 0 0
0.0204811240 -0.0063261260 0 0
0.0212568180 -0.0051447870 0 0
0.0225134200 -0.0036134860 0 0
0.0240625930 -0.0018627710 0 0
0.0256751490 -0.0000459129 0 0
0.0271142290 0.0016787540 0 0
0.0281717140 0.0031634430 0 0
0.0286974430 0.0042831630 0 0
0.0286130200 0.0049456850 0 0
0.0279090290 0.0050997580 0 0
0.0266316640 0.0047402050 0 0
0.0248666770 0.0039081540 0 0
0.0227267310 0.0026861890 0 0
0.0203463660 0.0011895530 0 0
0.0178840700 -0.0004451540 0 0
0.0155236420 -0.0020720450 0 0
0.0134646510 -0.0035474160 0 0
0.0118981050 -0.0047405690 0 0
0.0109742900 -0.0055445850 0 0
0.0107753120 -0.0058865360 0 0
0.0113005150 -0.0057355310 0 0
0.0124663700 -0.0051076470 0 0
0.0141196000 -0.0040673920 0 0
0.0160605920 -0.0027243310 0 0
0.0180719000 -0.0012230850 0 0
0.0199451770 0.0002729500 0 0
0.0215015780 0.0016006660 0 0
0.0226051990 0.0026146800 0 0
0.0231712120 0.0032006830 0 0
0.0231693560 0.0032848170 0 0
0.0226237950 0.0028400890 0 0
0.0216107170 0.0018898880 0 0
0.0202523890 0.0005071170 0 0
0.0187056330 -0.0011923040 0 0
0.0171461440 -0.0030608490 0 0
0.0157517720 -0.0049340800 0 0
0.0146862010 -0.0066472060 0 0
0.0140836140 -0.0080516270 0 0
0.0140347470 -0.0090294120 0 0
0.0145746930 -0.0095047760 0 0
0.0156754460 -0.0094517970 0 0
0.0172483080 -0.0088965870 0 0
0.0191567250 -0.0079123900 0 0
0.0212335080 -0.0066084060 0 0
0.0232951520 -0.0051152640 0 0
0.0251513420 -0.0035706920 0 0
0.0266155210 -0.0021076890 0 0
0.0275236430 -0.0008452240 0 0
0.0277599650 0.0001203770 0 0
0.0272812580 0.0007246070 0 0
0.0261304600 0.0009428120 0 0
0.0244341670 0.0007932030 0 0
0.0223827550 0.0003327950 0 0
0.0201981970 -0.0003525460 0 0
0.0181002970 -0.0011605410 0 0
0.0162812600 -0.0019841760 0 0
0.0148917260 -0.0027216440 0 0
0.0140358520 -0.0032850820 0 0
0.0137709140 -0.0036073780 0 0
0.0141068230 -0.0036459030 0 0
0.0150047900 -0.0033839540 0 0
0.0163797100 -0.0028319330 0 0
0.0181091930 -0.0020286880 0 0
0.0200447970 -0.0010412560 0 0
0.0220204460 0.0000389015 0 0
0.0238602160 0.0011037770 0 0
0.0253909410 0.0020405390 0 0
0.0264610540 0.0027456330 0 0
0.0269614460 0.0031380700 0 0
0.0268409330 0.0031686440 0 0
0.0261103120 0.0028242570 0 0
0.0248356330 0.0021289190 0 0
0.0231269510 0.0011431730 0 0
0.0211276320 -0.0000380169 0 0
0.0190053130 -0.0012906620 0 0
0.0169431110 -0.0024720660 0 0
0.0151279950 -0.0034358770 0 0
0.0137333980 -0.0040498890 0 0
0.0128978450 -0.0042136290 0 0
0.0127060610 -0.0038719560 0 0
0.0131774130 -0.0030216920 0 0
0.0142617950 -0.0017110200 0 0
0.0158422720 -0.0000336439 0 0
0.0177460050 0.0018803960 0 0
0.0197647420 0.0038763190 0 0
0.0216817950 0.0057882680 0 0
0.0232988000 0.0074547540 0 0
0.0244563900 0.0087345050 0 0
0.0250458550 0.0095197640 0 0
0.0250119120 0.0097447190 0 0
0.0243509750 0.0093897220 0 0
0.0231111060 0.0084831090 0 0
0.0213951460 0.0071009450 0 0
0.0193618200 0.0053640870 0 0
0.0172178020 0.0034317160 0 0
0.0151970370 0.0014898370 0 0
0.0135287940 -0.0002664900 0 0
0.0124015200 -0.0016559150 0 0
0.0119331300 -0.0025341600 0 0
0.0121558950 -0.0028128070 0 0
0.0130172870 -0.0024701650 0 0
0.0143933950 -0.0015530770 0 0
0.0161107990 -0.0001702680 0 0
0.0179730340 0.0015207440 0 0
0.0197861240 0.0033309980 0 0
0.0213769860 0.0050607370 0 0
0.0226033800 0.0065220970 0 0
0.0233605110 0.0075607580 0 0
0.0235889850 0.0080726410 0 0
0.0232829180 0.0080129520 0 0
0.0224936010 0.0073970220 0 0
0.0213250410 0.0062944110 0 0
0.0199211470 0.0048182880 0 0
0.0184480480 0.0031115010 0 0
0.0170764880 0.0013308350 0 0
0.0159672590 -0.0003680750 0 0
0.0152595510 -0.0018427060 0 0
0.0150599530 -0.0029718280 0 0
0.0154310860 -0.0036618130 0 0
0.0163830860 -0.0038531850 0 0
0.0178717590 -0.0035271560 0 0
0.0198022720 -0.0027101540 0 0
0.0220351120 -0.0014743750 0 0
0.0243949250 0.0000673874 0 0
0.0266846320 0.0017733760 0 0
0.0287038500 0.0034887660 0 0
0.0302686320 0.0050614660 1 0
0.0312305290 0.0063554950 1 0
0.0314938730 0.0072625420 1 0
0.0310297910 0.0077119750 1 0
0.0298833850 0.0076777150 0 0
0.0281699090 0.0071805390 0 0
0.0260603340 0.0062860570 0 0
0.0237606220 0.0050988360 0 0
0.0214882040 0.0037518780 0 0
0.0194477360 0.0023914330 0 0
0.0178090600 0.0011598230 0 0
0.0166917350 0.0001799090 0 0
0.0161598340 -0.0004568100 0 0
0.0162256360 -0.0006981710 0 0
0.0168561100 -0.0005354540 0 0
0.0179780610 -0.0000033542 0 0
0.0194824490 0.0008242120 0 0
0.0212300070 0.0018415640 0 0
0.0230605330 0.0029210270 0 0
0.0248070140 0.0039248130 0 0
0.0263120790 0.0047188170 0 0
0.0274424200 0.0051871470 0 0
0.0280995960 0.0052446740 0 0
0.0282287570 0.0048448220 0 0
0.0278259940 0.0039820510 0 0
0.0269422850 0.0026908390 0 0
0.0256815130 0.0010432170 0 0
0.0241915330 -0.0008546120 0 0
0.0226489510 -0.0028675950 0 0
0.0212399820 -0.0048409060 0 0
0.0201402880 -0.0066140170 0 0
0.0194954220 -0.0080387910 0 0
0.0194025350 -0.0089979440 0 0
0.0198962630 -0.0094196420 0 0
0.0209444170 -0.0092857320 0 0
0.0224560040 -0.0086327920 0 0
0.0242975810 -0.0075457590 0 0
0.0263113830 -0.0061457130 0 0
0.0283310130 -0.0045754710 0 0
0.0301934520 -0.0029857950 1 0
0.0317486170 -0.0015222900 1 0
0.0328691670 -0.0003122020 1 0
0.0334615560 0.0005478180 1 0
0.0334754400 0.0010003390 1 0
0.0329076280 0.0010298790 1 0
0.0318003270 0.0006598880 1 0
0.0302368880 -0.0000537417 1 0
0.0283375160 -0.0010299880 0 0
0.0262545820 -0.0021694200 0 0
0.0241650330 -0.0033605800 0 0
0.0222563280 -0.0044874350 0 0
0.0207045640 -0.0054384930 0 0
0.0196494750 -0.0061163530 0 0
0.0191745420 -0.0064461010 0 0
0.0192976360 -0.0063821310 0 0
0.0199721870 -0.0059133050 0 0
0.0210956930 -0.0050658100 0 0
0.0225224250 -0.0039030160 0 0
0.0240782440 -0.0025220730 0 0
0.0255765390 -0.0010470270 0 0
0.0268358730 0.0003815780 0 0
0.0276994340 0.0016199500 0 0
0.0280527940 0.0025362330 0 0
0.0278361210 0.0030266770 0 0
0.0270504770 0.0030306130 0 0
0.0257588410 0.0025405380 0 0
0.0240810240 0.0016042920 0 0
0.0221823800 0.0003190110 0 0
0.0202575760 -0.0011812030 0 0
0.0185105570 -0.0027414990 0 0
0.0171323270 -0.0042039750 0 0
0.0162789970 -0.0054244660 0 0
0.0160537410 -0.0062869310 0 0
0.0164969310 -0.0067145110 0 0
0.0175854150 -0.0066760400 0 0
0.0192369300 -0.0061875710 0 0
0.0213159180 -0.0053102460 0 0
0.0236419250 -0.0041455660 0 0
0.0260044650 -0.0028275550 0 0
0.0281847460 -0.0015108370 0 0
0.0299793020 -0.0003545490 0 0
0.0312202290 0.0004962530 1 0
0.0317904660 0.0009282800 1 0
0.0316349170 0.0008736380 1 0
0.0307680370 0.0003181010 1 0
0.0292767310 -0.0006967800 0 0
0.0273139760 -0.0020790110 0 0
0.0250791030 -0.0036988500 0 0
0.0227894210 -0.0054058260 0 0
0.0206551280 -0.0070456830 0 0
0.0188637190 -0.0084742230 0 0
0.0175682540 -0.0095679950 0 0
0.0168730020 -0.0102334070 0 0
0.0168196400 -0.0104142440 0 0
0.0173826140 -0.0100961560 0 0
0.0184767310 -0.0093075450 0 0
0.0199709650 -0.0081170960 0 0
0.0217012360 -0.0066279700 0 0
0.0234822430 -0.0049689830 0 0
0.0251229850 -0.0032836130 0 0
0.0264471940 -0.0017179720 0 0
0.0273146500 -0.0004087960 0 0
0.0276370950 0.0005282090 0 0
0.0273849940 0.0010097480 0 0
0.0265869670 0.0009955900 0 0
0.0253257660 0.0004969090 0 0
0.0237318340 -0.0004206580 0 0
0.0219733980 -0.0016422360 0 0
0.0202424060 -0.0030178880 0 0
0.0187360770 -0.0043829710 0 0
0.0176343900 -0.0055795180 0 0
0.0170757930 -0.0064733410 0 0
0.0171359810 -0.0069643990 0 0
0.0178162910 -0.0069918280 0 0
0.0190459020 -0.0065365360 0 0
0.0206953200 -0.0056229730 0 0
0.0225950590 -0.0043193520 0 0
0.0245562730 -0.0027342460 0 0
0.0263917880 -0.0010080030 0 0
0.0279338040 0.0007008030 0 0
0.0290452750 0.0022318640 0 0
0.0296264490 0.0034399330 0 0
0.0296192730 0.0042100320 0 0
0.0290100270 0.0044695830 0 0
0.0278302190 0.0041958230 0 0
0.0261567970 0.0034179390 0 0
0.0241116240 0.0022146700 0 0
0.0218576530 0.0007075550 0 0
0.0195880770 -0.0009507980 0 0
0.0175066840 -0.0025926920 0 0
0.0158023820 -0.0040530370 0 0
0.0146250690 -0.0051857510 0 0
0.0140697290 -0.0058771810 0 0
0.0141708250 -0.0060566110 0 0
0.0149032630 -0.0057043360 0 0
0.0161847730 -0.0048563780 0 0
0.0178793950 -0.0036033200 0 0
0.0198070560 -0.0020806040 0 0
0.0217629810 -0.0004508150 0 0
0.0235435390 0.0011172020 0 0
0.0249703190 0.0024665580 0 0
0.0259066290 0.0034651350 0 0
0.0262664940 0.0040138730 0 0
0.0260189420 0.0040525210 0 0
0.0251887950 0.0035639180 0 0
0.0238532190 0.0025767000 0 0
0.0221344660 0.0011652580 0 0
0.0201909660 -0.0005546660 0 0
0.0182066770 -0.0024355380 0 0
0.0163752610 -0.0043117750 0 0
0.0148779640 -0.0060158160 0 0
0.0138601200 -0.0073947130 0 0
0.0134133190 -0.0083250990 0 0
0.0135668330 -0.0087240230 0 0
0.0142873590 -0.0085544350 0 0
0.0154848150 -0.0078267110 0 0
0.0170231490 -0.0065979630 0 0
0.0187355370 -0.0049682330 0 0
0.0204423210 -0.0030717220 0 0
0.0219695680 -0.0010633230 0 0
0.0231663620 0.0008977920 0 0
0.0239190960 0.0026659780 0 0
0.0241607470 0.0041259510 0 0
0.0238740480 0.0052047040 0 0
0.0230903060 0.0058753350 0 0
0.0218868600 0.0061530900 0 0
0.0203825820 0.0060876230 0 0
0.0187279510 0.0057565300 0 0
0.0170897160 0.0052610120 0 0
0.0156350670 0.0047195470 0 0
0.0145185350 0.0042568460 0 0
0.0138692740 0.0039911070 0 0
0.0137760710 0.0040247800 0 0
0.0142732320 0.0044400040 0 0
0.0153336570 0.0052939590 0 0
0.0168725970 0.0066094690 0 0
0.0187605140 0.0083639900 0 0
0.0208396770 0.0104863440 0 0
0.0229394890 0.0128669400 0 0
0.0248889410 0.0153784670 0 0
0.0265269920 0.0178995070 0 0
0.0277133500 0.0203339930 0 0
0.0283416940 0.0226215990 0 0
0.0283528600 0.0247389790 0 0
0.0277436590 0.0266969230 0 0
0.0265709370 0.0285376290 0 0
0.0249512530 0.0303309010 0 1
0.0230530580 0.0321672940 0 1
0.0210787820 0.0341492060 0 1
0.0192393980 0.0363807470 0 1
0.0177274020 0.0389567490 0 1
0.0166939310 0.0419546880 0 1
0.0162337040 0.0454331650 0 1
0.0163784600 0.0494335690 0 1
0.0170972310 0.0539781510 0 1
0.0183016920 0.0590630310 0 1
0.0198559730 0.0646506260 0 1
0.0215906730 0.0706666500 0 1
0.0233196340 0.0770040620 0 1
0.0248571090 0.0835338190 0 1
0.0260340760 0.0901208010 0 1
0.0267133910 0.0966420680 0 1
0.0268026690 0.1030037320 0 1
0.0262629130 0.1091529010 0 1
0.0251111780 0.1150822470 0 1
0.0234171940 0.1208267800 0 1
0.0212970080 0.1264550430 0 1
0.0189064950 0.1320591200 0 1
0.0164330600 0.1377471330 0 1
0.0140817220 0.1436382580 0 1
0.0120543860 0.1498572030 0 1
0.0105243560 0.1565248490 0 1
0.0096108790 0.1637434170 0 1
0.0093610350 0.1715777170 0 1
0.0097454610 0.1800375010 0 1
0.0106688180 0.1890674050 0 1
0.0119896490 0.1985487830 0 1
0.0135417020 0.2083125530 0 1
0.0151505380 0.2181575420 0 1
0.0166439070 0.2278687090 0 1
0.0178600690 0.2372334350 0 1
0.0186589430 0.2460568730 0 1
0.0189347070 0.2541764510 0 1
0.0186249360 0.2614735280 0 1
0.0177153280 0.2678804680 0 1
0.0162422650 0.2733829300 0 1
0.0142926190 0.2780177860 0 1
0.0119975360 0.2818672780 0 1
0.0095197810 0.2850503250 0 1
0.0070383840 0.2877114080 0 1
0.0047341300 0.2900068790 0 1
0.0027753550 0.2920894370 0 1
0.0013017330 0.2940930660 0 1
0.0004080120 0.2961210060 0 1
0.0001333670 0.2982374310 0 1
0.0004582930 0.3004616340 0 1
0.0013052290 0.3027643220 0 1
0.0025405880 0.3050681030 0 1
0.0039823610 0.3072547460 0 1
0.0054195930 0.3091795210 0 1
0.0066433600 0.3106901590 0 1
0.0074797240 0.3116467010 0 1
0.0078132320 0.3119387560 0 1
0.0075963270 0.3114973300 0 1
0.0068479670 0.3102999970 0 1
0.0056467300 0.3083707480 0 1
0.0041211730 0.3057767960 0 1
0.0024372140 0.3026231020 0 1
0.0007808690 0.2990439360 0 1
-0.0006635550 0.2951911940 0 1
-0.0017358370 0.2912201190 0 1
-0.0023168190 0.2872734590 0 1
-0.0023364290 0.2834655560 0 1
-0.0017741500 0.2798693770 0 1
-0.0006567910 0.2765098070 0 1
0.0009425880 0.2733641430 0 1
0.0029049550 0.2703679440 0 1
0.0050689450 0.2674237950 0 1
0.0072424140 0.2644115780 0 1
0.0092225110 0.2612001840 0 1
0.0108199550 0.2576607300 0 1
0.0118823150 0.2536802010 0 1
0.0123127750 0.2491740240 0 1
0.0120818790 0.2440968310 0 1
0.0112313190 0.2384509170 0 1
0.0098703260 0.2322907920 0 1
0.0081640730 0.2257212840 0 1
0.0063131540 0.2188881400 0 1
0.0045279380 0.2119630020 0 1
0.0030058940 0.2051259500 0 1
0.0019158220 0.1985481200 0 1
0.0013856360 0.1923759390 0 1
0.0014908950 0.1867182170 0 1
0.0022467110 0.1816372850 0 1
0.0036057810 0.1771447230 0 1
0.0054628160 0.1732012870 0 1
0.0076659000 0.1697207530 0 1
0.0100330930 0.1665783780 0 1
0.0123688400 0.1636240300 0 1
0.0144774200 0.1606979670 0 1
0.0161767030 0.1576465940 0 1
0.0173160440 0.1543370340 0 1
0.0177968410 0.1506702100 0 1
0.0175894280 0.1465914060 0 1
0.0167393450 0.1420967030 0 1
0.0153601160 0.1372344550 0 1
0.0136155670 0.1321015600 0 1
0.0116973570 0.1268340010 0 1
0.0098025210 0.1215917300 0 1
0.0081150370 0.1165403990 0 1
0.0067940790 0.1118343450 0 1
0.0059675030 0.1076033060 0 1
0.0057254280 0.1039420410 0 1
0.0061103530 0.1009020580 0 1
0.0071067380 0.0984869440 0 1
0.0086373400 0.0966529880 0 1
0.0105700070 0.0953147250 0 1
0.0127317150 0.0943534110 0 1
0.0149248210 0.0936268190 0 1
0.0169444710 0.0929796290 0 1
0.0185992180 0.0922541710 0 1
0.0197344910 0.0913021290 0 1
0.0202534910 0.0899982080 0 1
0.0201294760 0.0882546220 0 1
0.0194078290 0.0860326680 0 1
0.0181986600 0.0833479360 0 1
0.0166610030 0.0802681470 0 1
0.0149824070 0.0769044850 0 1
0.0133589710 0.0733979710 0 1
0.0119776290 0.0699028420 0 1
0.0109998900 0.0665691680 0 1
0.0105472590 0.0635269910 0 1
0.0106904610 0.0608739250 0 1
0.0114444540 0.0586671930 0 1
0.0127690880 0.0569203520 0 1
0.0145739440 0.0556048440 0 1
0.0167266570 0.0546561550 0 1
0.0190643810 0.0539833740 0 1
0.0214069630 0.0534802980 0 1
0.0235706170 0.0530362720 0 1
0.0253822860 0.0525450830 0 1
0.0266946550 0.0519110460 0 1
0.0274004560 0.0510532430 0 1
0.0274446800 0.0499101710 0 1
0.0268337970 0.0484458510 0 1
0.0256397460 0.0466561810 0 1
0.0239952910 0.0445733450 0 1
0.0220797650 0.0422661220 0 1
0.0200982780 0.0398345210 0 1
0.0182591170 0.0373985410 0 1
0.0167528930 0.0350830810 0 1
0.0157354720 0.0330028400 0 1
0.0153154640 0.0312505110 0 1
0.0155460840 0.0298891070 0 0
0.0164206290 0.0289474260 0 0
0.0178712420 0.0284176460 0 0
0.0197723000 0.0282551340 0 0
0.0219508130 0.0283815320 0 0
0.0242043190 0.0286924560 0 0
0.0263232660 0.0290694260 0 0
0.0281140400 0.0293929340 0 0
0.0294199390 0.0295534050 0 0
0.0301362170 0.0294596190 1 0
0.0302148950 0.0290455060 1 0
0.0296614450 0.0282751880 0 0
0.0285311130 0.0271460670 0 0
0.0269276530 0.0256907490 0 0
0.0249996570 0.0239775310 0 0
0.0229298360 0.0221073360 0 0
0.0209167020 0.0202052650 0 0
0.0191514290 0.0184071590 0 0
0.0177943450 0.0168435240 0 0
0.0169553790 0.0156235890 0 0
0.0166821200 0.0148214950 0 0
0.0169577840 0.0144659370 0 0
0.0177073050 0.0145346640 0 0
0.0188070880 0.0149556890 0 0
0.0200968460 0.0156162710 0 0
0.0213952680 0.0163781340 0 0
0.0225197130 0.0170951610 0 0
0.0233072470 0.0176300600 0 0
0.0236335220 0.0178682380 0 0
0.0234260530 0.0177284020 0 0
0.0226698620 0.0171694440 0 0
0.0214062780 0.0161929590 0 0
0.0197273100 0.0148418310 0 0
0.0177683540 0.0131964600 0 0
0.0157003020 0.0113691270 0 0
0.0137179460 0.0094951810 0 0
0.0120214930 0.0077204230 0 0
0.0107929090 0.0061863190 0 0
0.0101721130 0.0050153410 0 0
0.0102377750 0.0042974630 0 0
0.0109963440 0.0040791330 0 0
0.0123817930 0.0043577160 0 0
0.0142663100 0.0050832910 0 0
0.0164786660 0.0061661000 0 0
0.0188245210 0.0074860500 0 0
0.0211041910 0.0089019760 0 0
0.0231270800 0.0102610530 0 0
0.0247248230 0.0114103360 0 0
0.0257647610 0.0122111220 0 0
0.0261628320 0.0125544110 0 0
0.0258931870 0.0123746980 0 0
0.0249926920 0.0116596090 0 0
0.0235596630 0.0104536220 0 0
0.0217455740 0.0088546960 0 0
0.0197393750 0.0070034290 0 0
0.0177474230 0.0050661600 0 0
0.0159727900 0.0032153820 0 0
0.0145953430 0.0016114820 0 0
0.0137532880 0.0003886270 0 0
0.0135288450 -0.0003550790 0 0
0.0139411090 -0.0005644150 0 0
0.0149463740 -0.0002311530 0 0
0.0164430550 0.0006052040 0 0
0.0182796510 0.0018605210 0 0
0.0202680240 0.0034131870 0 0
0.0222032300 0.0051148660 0 0
0.0238860630 0.0068032620 0 0
0.0251435450 0.0083154190 0 0
0.0258458940 0.0095012670 0 0
0.0259197280 0.0102376280 0 0
0.0253560730 0.0104417570 0 0
0.0242116680 0.0100819820 0 0
0.0226032970 0.0091831050 0 0
0.0206955400 0.0078258720 0 0
0.0186828270 0.0061405340 0 0
0.0167688780 0.0042939000 0 0
0.0151478000 0.0024699630 0 0
0.0139888070 0.0008470150 0 0
0.0134228110 -0.0004236140 0 0
0.0135285300 -0.0012329300 0 0
0.0143197550 -0.0015224740 0 0
0.0157394440 -0.0012865400 0 0
0.0176645680 -0.0005706850 0 0
0.0199210650 0.0005321380 0 0
0.0223050820 0.0018885910 0 0
0.0246054680 0.0033369560 0 0
0.0266236700 0.0047043260 0 0
0.0281903740 0.0058264860 0 0
0.0291805480 0.0065672650 0 0
0.0295269960 0.0068346920 0 0
0.0292282720 0.0065910450 0 0
0.0283464950 0.0058542170 0 0
0.0269958900 0.0046905750 0 0
0.0253268650 0.0032027240 0 0
0.0235098620 0.0015162320 0 0
0.0217215290 -0.0002323080 0 0
0.0201339750 -0.0019052000 0 0
0.0189042580 -0.0033717980 0 0
0.0181603070 -0.0045164850 0 0
0.0179847960 -0.0052483960 0 0
0.0184031020 -0.0055123250 0 0
0.0193783100 -0.0052973300 0 0
0.0208124120 -0.0046396360 0 0
0.0225543400 -0.0036194770 0 0
0.0244167750 -0.0023535960 0 0
0.0262001900 -0.0009841950 0 0
0.0277176920 0.0003355010 0 0
0.0288137300 0.0014571180 0 0
0.0293751330 0.0022512880 0 0
0.0293378810 0.0026187810 0 0
0.0286915040 0.0024996240 0 0
0.0274789450 0.0018806960 0 0
0.0257900480 0.0008001090 0 0
0.0237509320 -0.0006538590 0 0
0.0215140800 -0.0023506000 0 0
0.0192516800 -0.0041315060 0 0
0.0171488440 -0.0058284410 0 0
0.0153900770 -0.0072827640 0 0
0.0141371950 -0.0083619910 0 0
0.0135053820 -0.0089726160 0 0
0.0135461870 -0.0090683250 0 0
0.0142409250 -0.0086529350 0 0
0.0155032400 -0.0077777860 0 0
0.0171896550 -0.0065345940 0 0
0.0191173370 -0.0050459410 0 0
0.0210859560 -0.0034552630 0 0
0.0228985830 -0.0019165200 0 0
0.0243787810 -0.0005821280 0 0
0.0253848930 0.0004118360 0 0
0.0258230850 0.0009612740 0 0
0.0256578270 0.0010064820 0 0
0.0249164980 0.0005381340 0 0
0.0236862980 -0.0004031630 0 0
0.0221046800 -0.0017312750 0 0
0.0203449410 -0.0033216230 0 0
0.0185970450 -0.0050226920 0 0
0.0170458350 -0.0066729110 0 0
0.0158525710 -0.0081197930 0 0
0.0151442130 -0.0092365310 0 0
0.0150092850 -0.0099332520 0 0
0.0154944010 -0.0101626810 0 0
0.0165961600 -0.0099211950 0 0
0.0182505080 -0.0092464280 0 0
0.0203283960 -0.0082126310 0 0
0.0226445470 -0.0069245400 0 0
0.0249787380 -0.0055095670 0 0
0.0271035940 -0.0041076520 0 0
0.0288118100 -0.0028589970 0 0
0.0299376220 -0.0018907700 0 0
0.0303702840 -0.0013038730 1 0
0.0300607080 -0.0011609460 1 0
0.0290250800 -0.0014774830 0 0
0.0273471110 -0.0022183550 0 0
0.0251753160 -0.0033014970 0 0
0.0227111100 -0.0046083760 0 0
0.0201880290 -0.0059985070 0 0
0.0178456360 -0.0073247100 0 0
0.0159026290 -0.0084470770 0 0
0.0145338940 -0.0092455190 0 0
0.0138548850 -0.0096312710 0 0
0.0139136000 -0.0095564860 0 0
0.0146882080 -0.0090200170 0 0
0.0160888590 -0.0080676640 0 0
0.0179639370 -0.0067864510 0 0
0.0201123900 -0.0052946310 0 0
0.0223034820 -0.0037303820 0 0
0.0243033040 -0.0022408050 0 0
0.0259047350 -0.0009704470 0 0
0.0269541810 -0.0000480131 0 0
0.0273673120 0.0004284430 0 0
0.0271312280 0.0004050790 0 0
0.0262974990 -0.0001193570 0 0
0.0249720430 -0.0010933910 0 0
0.0233042520 -0.0024213910 0 0
0.0214741860 -0.0039778460 0 0
0.0196761880 -0.0056226930 0 0
0.0180994940 -0.0072147030 0 0
0.0169088270 -0.0086224050 0 0
0.0162280610 -0.0097328300 0 0
0.0161284250 -0.0104584560 0 0
0.0166216920 -0.0107430080 0 0
0.0176590640 -0.0105663330 0 0
0.0191368130 -0.0099478210 0 0
0.0209086540 -0.0089477920 0 0
0.0228025910 -0.0076661210 0 0
0.0246385050 -0.0062365780 0 0
0.0262428200 -0.0048154560 0 0
0.0274580560 -0.0035648710 0 0
0.0281489450 -0.0026334080 0 0
0.0282110830 -0.0021377940 0 0
0.0275867250 -0.0021486310 0 0
0.0262846770 -0.0026812040 0 0
0.0243940530 -0.0036912860 0 0
0.0220816320 -0.0050774710 0 0
0.0195702820 -0.0066927690 0 0
0.0171059260 -0.0083654170 0 0
0.0149246380 -0.0099237650 0 0
0.0132280620 -0.0112180410 0 0
0.0121687610 -0.0121343060 0 0
0.0118412490 -0.0126003050 0 0
0.0122735030 -0.0125858340 0 0
0.0134204330 -0.0121007690 0 0
0.0151660700 -0.0111924260 0 0
0.0173374000 -0.0099421050 0 0
0.0197258800 -0.0084598840 0 0
0.0221105510 -0.0068771790 0 0
0.0242789730 -0.0053370940 0 0
0.0260451950 -0.0039825830 0 0
0.0272648600 -0.0029428840 0 0
0.0278463910 -0.0023196500 0 0
0.0277575700 -0.0021750170 0 0
0.0270291190 -0.0025239720 0 0
0.0257555400 -0.0033322420 0 0
0.0240885150 -0.0045191940 0 0
0.0222183990 -0.0059649600 0 0
0.0203467380 -0.0075220470 0 0
0.0186593110 -0.0090313680 0 0
0.0173079950 -0.0103407100 0 0
0.0164019300 -0.0113223130 0 0
0.0160031550 -0.0118866300 0 0
0.0161242110 -0.0119905380 0 0
0.0167297680 -0.0116397910 0 0
0.0177440630 -0.0108862170 0 0
0.0190618110 -0.0098198900 0 0
0.0205581640 -0.0085573600 0 0
0.0220965360 -0.0072287850 0 0
0.0235370730 -0.0059668530 0 0
0.0247473360 -0.0048981810 0 0
0.0256129360 -0.0041356370 0 0
0.0260462760 -0.0037689910 0 0
0.0259949670 -0.0038530360 0 0
0.0254511630 -0.0043968210 0 0
0.0244585380 -0.0053595630 0 0
0.0231120610 -0.0066555510 0 0
0.0215492200 -0.0081661800 0 0
0.0199347630 -0.0097551450 0 0
0.0184419790 -0.0112829320 0 0
0.0172336280 -0.0126190270 0 0
0.0164448020 -0.0136526030 0 0
0.0161682650 -0.0143024800 0 0
0.0164425990 -0.0145251630 0 0
0.0172453000 -0.0143181900 0 0
0.0184932470 -0.0137174180 0 0
0.0200511570 -0.0127900630 0 0
0.0217477140 -0.0116266360 0 0
0.0233979050 -0.0103335000 0 0
0.0248270120 -0.0090258310 0 0
0.0258901830 -0.0078202540 0 0
0.0264847560 -0.0068271270 0 0
0.0265564180 -0.0061426300 0 0
0.0261010130 -0.0058406290 0 0
0.0251631020 -0.0059646220 0 0
0.0238316910 -0.0065204540 0 0
0.0222330860 -0.0074707620 0 0
0.0205205980 -0.0087333430 0 0
0.0188607050 -0.0101865520 0 0
0.0174163110 -0.0116824430 0 0
0.0163307430 -0.0130644880 0 0
0.0157164250 -0.0141857210 0 0
0.0156471920 -0.0149250590 0 0
0.0161501030 -0.0152010520 0 0
0.0171966950 -0.0149820950 0 0
0.0186987870 -0.0142912130 0 0
0.0205140150 -0.0132037950 0 0
0.0224624470 -0.0118381060 0 0
0.0243502740 -0.0103400960 0 0
0.0259933650 -0.0088656930 0 0
0.0272352020 -0.0075641170 0 0
0.0279579010 -0.0065640600 0 0
0.0280884300 -0.0059630220 0 0
0.0276029850 -0.0058198000 0 0
0.0265304930 -0.0061499520 0 0
0.0249530790 -0.0069243260 0 0
0.0230012780 -0.0080714850 0 0
0.0208444530 -0.0094844150 0 0
0.0186779100 -0.0110307380 0 0
0.0167074620 -0.0125657190 0 0
0.0151322400 -0.0139475990 0 0
0.0141263150 -0.0150532640 0 0
0.0138193440 -0.0157909450 0 0
0.0142771870 -0.0161081320 0 0
0.0154854130 -0.0159953630 0 0
0.0173418480 -0.0154868270 0 0
0.0196651440 -0.0146573800 0 0
0.0222197430 -0.0136150800 0 0
0.0247484330 -0.0124893330 0 0
0.0270021670 -0.0114163180 0 0
0.0287639420 -0.0105246320 0 0
0.0298688730 -0.0099238930 0 0
0.0302204580 -0.0096964270 1 0
0.0297995630 -0.0098894900 0 0
0.0286641890 -0.0105072680 0 0
0.0269419270 -0.0115065110 0 0
0.0248173280 -0.0128002830 0 0
0.0225135030 -0.0142696750 0 0
0.0202670960 -0.0157794240 0 0
0.0183006300 -0.0171934890 0 0
0.0167991710 -0.0183887010 0 0
0.0158945030 -0.0192656960 0 0
0.0156558490 -0.0197563860 0 0
0.0160871400 -0.0198272900 0 0
0.0171311500 -0.0194790520 0 0
0.0186781840 -0.0187435200 0 0
0.0205772900 -0.0176799300 0 0
0.0226508640 -0.0163713190 0 0
0.0247126180 -0.0149211410 0 0
0.0265858430 -0.0134483140 0 0
0.0281187980 -0.0120788850 0 0
0.0291967820 -0.0109343410 0 0
0.0297518470 -0.0101182220 0 0
0.0297700900 -0.0097036320 0 0
0.0292944780 -0.0097247670 0 0
0.0284199800 -0.0101740650 0 0
0.0272800080 -0.0110039940 0 0
0.0260274660 -0.0121318740 0 0
0.0248160920 -0.0134471950 0 0
0.0237868870 -0.0148213290 0 0
0.0230608120 -0.0161188140 0 0
0.0227342490 -0.0172091200 0 0
0.0228720880 -0.0179781570 0 0
0.0234968850 -0.0183393070 0 0
0.0245781320 -0.0182436660 0 0
0.0260286120 -0.0176883090 0 0
0.0277120060 -0.0167201060 0 0
0.0294598900 -0.0154327360 0 0
0.0310925520 -0.0139565080 1 0
0.0324387570 -0.0124427810 1 0
0.0333526620 -0.0110459410 1 0
0.0337285950 -0.0099061670 1 0
0.0335133450 -0.0091354590 1 0
0.0327122480 -0.0088076220 1 0
0.0313860860 -0.0089520290 1 0
0.0296410530 -0.0095514050 0 0
0.0276168850 -0.0105435710 0 0
0.0254758330 -0.0118263860 0 0
0.0233907190 -0.0132654600 0 0
0.0215294300 -0.0147052470 0 0
0.0200374460 -0.0159843110 0 0
0.0190233790 -0.0169541610 0 0
0.0185505760 -0.0174987030 0 0
0.0186337760 -0.0175501220 0 0
0.0192381050 -0.0170975510 0 0
0.0202799700 -0.0161868840 0 0
0.0216319380 -0.0149130440 0 0
0.0231328930 -0.0134078050 0 0
0.0246028370 -0.0118254550 0 0
0.0258611130 -0.0103271560 0 0
0.0267463070 -0.0090643930 0 0
0.0271352530 -0.0081626270 0 0
0.0269581950 -0.0077075750 0 0
0.0262064820 -0.0077369120 0 0
0.0249298330 -0.0082386920 0 0
0.0232249660 -0.0091552060 0 0
0.0212218730 -0.0103901560 0 0
0.0190731720 -0.0118183050 0 0
0.0169475120 -0.0132978710 0 0
0.0150229600 -0.0146850970 0 0
0.0134740880 -0.0158486310 0 0
0.0124517440 -0.0166810380 0 0
0.0120623780 -0.0171068940 0 0
0.0123536100 -0.0170884350 0 0
0.0133061240 -0.0166287470 0 0
0.0148305500 -0.0157715710 0 0
0.0167727180 -0.0145975570 0 0
0.0189307540 -0.0132177190 0 0
0.0210812230 -0.0117644170 0 0
0.0230070210 -0.0103794800 0 0
0.0245206860 -0.0091996990 0 0
0.0254808910 -0.0083419480 0 0
0.0258029830 -0.0078910530 0 0
0.0254651220 -0.0078918750 0 0
0.0245111590 -0.0083452890 0 0
0.0230489540 -0.0092077330 0 0
0.0212412610 -0.0103949540 0 0
0.0192886410 -0.0117907960 0 0
0.0174074830 -0.0132600270 0 0
0.0158075980 -0.0146625470 0 0
0.0146726300 -0.0158670530 0 0
0.0141437900 -0.0167636230 0 0
0.0143051600 -0.0172746990 0 0
0.0151697530 -0.0173631460 0 0
0.0166704400 -0.0170358220 0 0
0.0186626140 -0.0163414810 0 0
0.0209411030 -0.0153633370 0 0
0.0232675720 -0.0142090200 0 0
0.0254030410 -0.0130011720 0 0
0.0271396620 -0.0118693520 0 0
0.0283239560 -0.0109414510 0 0
0.0288657930 -0.0103324200 0 0
0.0287349310 -0.0101301430 0 0
0.0279524160 -0.0103816770 0 0
0.0265829970 -0.0110847300 0 0
0.0247307070 -0.0121872550 0 0
0.0225360970 -0.0135944760 0 0
0.0201715240 -0.0151809650 0 0
0.0178321810 -0.0168051830 0 0
0.0157231700 -0.0183234690 0 0
0.0140417710 -0.0196013420 0 0
0.0129539830 -0.0205229320 0 0
0.0125706270 -0.0210004740 0 0
0.0129310510 -0.0209837990 0 0
0.0139960810 -0.0204679720 0 0
0.0156489380 -0.0194970340 0 0
0.0177074050 -0.0181622350 0 0
0.0199496720 -0.0165941640 0 0
0.0221476560 -0.0149492480 0 0
0.0240976390 -0.0133921650 0 0
0.0256417430 -0.0120770710 0 0
0.0266777150 -0.0111311540 0 0
0.0271573740 -0.0106430120 0 0
0.0270784740 -0.0106561840 0 0
0.0264775310 -0.0111661220 0 0
0.0254276570 -0.0121194570 0 0
0.0240383480 -0.0134170530 0 0
0.0224511490 -0.0149228670 0 0
0.0208285130 -0.0164778000 0 0
0.0193380040 -0.0179158550 0 0
0.0181362220 -0.0190807810 0 0
0.0173551060 -0.0198424230 0 0
0.0170894090 -0.0201114900 0 0
0.0173839880 -0.0198504360 0 0
0.0182237200 -0.0190779690 0 0
0.0195304000 -0.0178659100 0 0
0.0211689130 -0.0163291080 0 0
0.0229633650 -0.0146105050 0 0
0.0247211400 -0.0128643410 0 0
0.0262588880 -0.0112406090 0 0
0.0274241200 -0.0098724690 0 0
0.0281096190 -0.0088664950 0 0
0.0282609590 -0.0082955760 0 0
0.0278776420 -0.0081949960 0 0
0.0270077260 -0.0085615410 0 0
0.0257376250 -0.0093542500 0 0
0.0241817410 -0.0104961220 0 0
0.0224749730 -0.0118780450 0 0
0.0207653080 -0.0133671910 0 0
0.0192021290 -0.0148208420 0 0
0.0179212250 -0.0161037450 0 0
0.0170314340 -0.0171046500 0 0
0.0166056580 -0.0177477440 0 0
0.0166758020 -0.0179973640 0 0
0.0172314210 -0.0178573270 0 0
0.0182223090 -0.0173666510 0 0
0.0195636070 -0.0165927360 0 0
0.0211417840 -0.0156233140 0 0
0.0228219420 -0.0145585200 0 0
0.0244580010 -0.0135034770 0 0
0.0259060150 -0.0125614330 0 0
0.0270388740 -0.0118275150 0 0
0.0277599120 -0.0113829330 0 0
0.0280133010 -0.0112890430 0 0
0.0277907510 -0.0115807430 0 0
0.0271349380 -0.0122593590 0 0
0.0261383250 -0.0132862030 0 0
0.0249355340 -0.0145793690 0 0
0.0236902390 -0.0160173020 0 0
0.0225786030 -0.0174514490 0 0
0.0217698660 -0.0187261830 0 0
0.0214048350 -0.0197002920 0 0
0.0215754960 -0.0202642670 0 0
0.0223117260 -0.0203509410 0 0
0.0235798280 -0.0199402220 0 0
0.0252912580 -0.0190593650 0 0
0.0273149010 -0.0177799620 0 0
0.0294884070 -0.0162128070 0 0
0.0316302660 -0.0145004810 1 0
0.0335557610 -0.0128056450 1 0
0.0350950380 -0.0112940200 1 0
0.0361089660 -0.0101145450 1 0
0.0365025370 -0.0093811380 1 0
0.0362378490 -0.0091595760 1 0
0.0353435710 -0.0094611790 1 0
0.0339142300 -0.0102436900 1 0
0.0320976170 -0.0114182230 1 0
0.0300755190 -0.0128602440 1 0
0.0280440820 -0.0144229340 0 0
0.0261971380 -0.0159514050 0 0
0.0247122380 -0.0172961580 0 0
0.0237366120 -0.0183253710 0 0
0.0233712730 -0.0189364860 0 0
0.0236559910 -0.0190668120 0 0
0.0245605740 -0.0187014150 0 0
0.0259857230 -0.0178761430 0 0
0.0277727660 -0.0166746770 0 0
0.0297201450 -0.0152199020 0 0
0.0316052130 -0.0136609860 1 0
0.0332092340 -0.0121582300 1 0
0.0343424880 -0.0108676250 1 0
0.0348671060 -0.0099263100 1 0
0.0347154540 -0.0094394020 1 0
0.0339001820 -0.0094683640 1 0
0.0325117240 -0.0100215820 1 0
0.0307024280 -0.0110496670 1 0
0.0286617980 -0.0124489510 0 0
0.0265902980 -0.0140738710 0 0
0.0246780220 -0.0157553650 0 0
0.0230906140 -0.0173213500 0 0
0.0219609940 -0.0186155480 0 0
0.0213837650 -0.0195122430 0 0
0.0214105180 -0.0199267340 0 0
0.0220466570 -0.0198222090 0 0
0.0232508920 -0.0192132230 0 0
0.0249366400 -0.0181649180 0 0
0.0269739780 -0.0167859210 0 0
0.0291935350 -0.0152145820 0 0
0.0313963990 -0.0136021570 1 0
0.0333725530 -0.0120975800 1 0
0.0349258670 -0.0108359100 1 0
0.0359005090 -0.0099299390 1 0
0.0362028580 -0.0094626050 1 0
0.0358136400 -0.0094779160 1 0
0.0347878560 -0.0099715100 1 0
0.0332447250 -0.0108854360 1 0
0.0313516030 -0.0121114390 1 0
0.0293042460 -0.0135038180 0 0
0.0273058310 -0.0148991970 0 0
0.0255479180 -0.0161381870 0 0
0.0241938540 -0.0170841970 0 0
0.0233626920 -0.0176366430 0 0
0.0231141130 -0.0177378570 0 0
0.0234386920 -0.0173742970 0 0
0.0242580020 -0.0165734650 0 0
0.0254353100 -0.0153984180 0 0
0.0267936280 -0.0139417170 0 0
0.0281366670 -0.0123198760 0 0
0.0292695850 -0.0106675020 0 0
0.0300183140 -0.0091283830 1 0
0.0302475130 -0.0078422800 1 0
0.0298765230 -0.0069302040 0 0
0.0288897360 -0.0064820180 0 0
0.0273365000 -0.0065472840 0 0
0.0253205380 -0.0071283890 0 0
0.0229853670 -0.0081766410 0 0
0.0205018180 -0.0095943370 0 0
0.0180575000 -0.0112449490 0 0
0.0158439780 -0.0129694530 0 0
0.0140393340 -0.0146044150 0 0
0.0127887400 -0.0159991850 0 0
0.0121886220 -0.0170313640 0 0
0.0122789970 -0.0176188910 0 0
0.0130444740 -0.0177262470 0 0
0.0144193340 -0.0173640250 0 0
0.0162922120 -0.0165837770 0 0
0.0185113020 -0.0154707390 0 0
0.0208935130 -0.0141356550 0 0
0.0232383970 -0.0127056830 0 0
0.0253467190 -0.0113141540 0 0
0.0270437180 -0.0100891370 0 0
0.0282031130 -0.0091414920 0 0
0.0287636460 -0.0085540710 0 0
0.0287318310 -0.0083736390 0 0
0.0281721450 -0.0086064310 0 0
0.0271928350 -0.0092175160 0 0
0.0259345210 -0.0101336000 0 0
0.0245618440 -0.0112489440 0 0
0.0232539250 -0.0124346910 0 0
0.0221898840 -0.0135515510 0 0
0.0215293120 -0.0144643810 0 0
0.0213918250 -0.0150567470 0 0
0.0218411290 -0.0152442360 0 0
0.0228773120 -0.0149852770 0 0
0.0244386520 -0.0142876530 0 0
0.0264109280 -0.0132095820 0 0
0.0286398570 -0.0118554010 0 0
0.0309442380 -0.0103656230 1 0
0.0331308430 -0.0089008210 1 0
0.0350112450 -0.0076214320 1 0
0.0364185530 -0.0066684510 1 0
0.0372226070 -0.0061489690 1 0
0.0373431570 -0.0061266660 1 0
0.0367600200 -0.0066162570 1 0
0.0355189170 -0.0075826610 1 0
0.0337309690 -0.0089458520 1 0
0.0315622550 -0.0105901530 1 0
0.0292125630 -0.0123755520 0 0
0.0268893150 -0.0141499800 0 0
0.0247856710 -0.0157629330 0 0
0.0230671350 -0.0170801220 0 0
0.0218639290 -0.0179970040 0 0
0.0212640030 -0.0184481160 0 0
0.0213048120 -0.0184108030 0 0
0.0219660540 -0.0179045070 0 0
0.0231665430 -0.0169877910 0 0
0.0247677560 -0.0157538430 0 0
0.0265854680 -0.0143238420 0 0
0.0284083260 -0.0128377280 0 0
0.0300205140 -0.0114430630 1 0
0.0312262460 -0.0102832250 1 0
0.0318729490 -0.0094853580 1 0
0.0318681420 -0.0091478870 1 0
0.0311868380 -0.0093285880 1 0
0.0298700000 -0.0100356790 0 0
0.0280168960 -0.0112246530 0 0
0.0257747760 -0.0128021090 0 0
0.0233268150 -0.0146353490 0 0
0.0208763560 -0.0165655360 0 0
0.0186268510 -0.0184233050 0 0
0.0167605760 -0.0200458790 0 0
0.0154203500 -0.0212931130 0 0
0.0146971390 -0.0220598900 0 0
0.0146240660 -0.0222846240 0 0
0.0151753710 -0.0219547000 0 0
0.0162692790 -0.0211085590 0 0
0.0177758040 -0.0198331800 0 0
0.0195300250 -0.0182558370 0 0
0.0213489060 -0.0165304360 0 0
0.0230485830 -0.0148208840 0 0
0.0244594780 -0.0132848130 0 0
0.0254394540 -0.0120596490 0 0
0.0258878270 -0.0112509540 0 0
0.0257597080 -0.0109222820 0 0
0.0250753680 -0.0110872430 0 0
0.0239208680 -0.0117059950 0 0
0.0224402710 -0.0126884780 0 0
0.0208208690 -0.0139049660 0 0
0.0192729710 -0.0152019190 0 0
0.0180063840 -0.0164198950 0 0
0.0172066060 -0.0174109400 0 0
0.0170141860 -0.0180538060 0 0
0.0175093800 -0.0182661280 0 0
0.0187028290 -0.0180131600 0 0
0.0205327630 -0.0173119170 0 0
0.0228692600 -0.0162286320 0 0
0.0255262200 -0.0148690200 0 0
0.0282811490 -0.0133640730 0 0
0.0309003530 -0.0118553580 1 0
0.0331653780 -0.0104823060 1 0
0.0348961660 -0.0093718530 1 0
0.0359669130 -0.0086293480 1 0
0.0363132620 -0.0083293190 1 0
0.0359333110 -0.0085064090 1 0
0.0348856790 -0.0091492420 1 0
0.0332859610 -0.0101998850 1 0
0.0313012160 -0.0115591380 1 0
0.0291401150 -0.0130961030 0 0
0.0270342050 -0.0146611380 0 0
0.0252088370 -0.0161023650 0 0
0.0238504030 -0.0172844380 0 0
0.0230813720 -0.0181044910 0 0
0.0229515540 -0.0184999460 0 0
0.0234452110 -0.0184480200 0 0
0.0244954890 -0.0179617210 0 0
0.0259969490 -0.0170870770 0 0
0.0278131530 -0.0159024030 0 0
0.0297828710 -0.0145167040 0 0
0.0317296510 -0.0130640090 1 0
0.0334754390 -0.0116925650 1 0
0.0348552630 -0.0105495500 1 0
0.0357310450 -0.0097635010 1 0
0.0360056870 -0.0094278850 1 0
0.0356381450 -0.0095886210 1 0
0.0346556990 -0.0102373970 1 0
0.0331571340 -0.0113123700 1 0
0.0313028440 -0.0127062270 1 0
0.0292930910 -0.0142794820 0 0
0.0273408170 -0.0158767410 0 0
0.0256462550 -0.0173439830 0 0
0.0243767960 -0.0185447670 0 0
0.0236528700 -0.0193731670 0 0
0.0235402740 -0.0197616530 0 0
0.0240477480 -0.0196833090 0 0
0.0251275530 -0.0191497330 0 0
0.0266787790 -0.0182068070 0 0
0.0285548310 -0.0169298430 0 0
0.0305755880 -0.0154188110 1 0
0.0325432450 -0.0137932590 1 0
0.0342603440 -0.0121851870 1 0
0.0355486180 -0.0107284190 1 0
0.0362674420 -0.0095444320 1 0
0.0363300840 -0.0087265880 1 0
0.0357146000 -0.0083269300 1 0
0.0344663860 -0.0083500820 1 0
0.0326916680 -0.0087560770 1 0
0.0305433790 -0.0094696910 1 0
0.0282021310 -0.0103924470 0 0
0.0258565020 -0.0114149710 0 0
0.0236866620 -0.0124281640 0 0
0.0218521770 -0.0133314790 0 0
0.0204825230 -0.0140380630 0 0
0.0196681600 -0.0144787720 0 0
0.0194506020 -0.0146069810 0 0
0.0198135040 -0.0144032770 0 0
0.0206792850 -0.0138775600 0 0
0.0219131700 -0.0130684340 0 0
0.0233341450 -0.0120418810 0 0
0.0247328720 -0.0108895020 0 0
0.0258957280 -0.0097241440 0 0
0.0266315880 -0.0086708780 0 0
0.0267964410 -0.0078531830 0 0
0.0263103700 -0.0073768380 0 0
0.0251631790 -0.0073153760 0 0
0.0234102420 -0.0076999210 0 0
0.0211638580 -0.0085145740 0 0
0.0185839340 -0.0096971650 0 0
0.0158682670 -0.0111442400 0 0
0.0132399550 -0.0127198170 0 0
0.0109289070 -0.0142686110 0 0
0.0091469030 -0.0156340380 0 0
0.0080606710 -0.0166788690 0 0
0.0077706980 -0.0173036580 0 0
0.0083013130 -0.0174582780 0 0
0.0096022550 -0.0171452320 0 0
0.0115582300 -0.0164164860 0 0
0.0140022470 -0.0153657750 0 0
0.0167307780 -0.0141172930 0 0
0.0195217260 -0.0128115810 0 0
0.0221553630 -0.0115906220 0 0
0.0244351590 -0.0105847420 0 0
0.0262052060 -0.0099022250 0 0
0.0273629410 -0.0096202010 0 0
0.0278665410 -0.0097766020 0 0
0.0277363090 -0.0103657010 0 0
0.0270509040 -0.0113387380 0 0
0.0259397880 -0.0126082120 0 0
0.0245718250 -0.0140545380 0 0
0.0231396080 -0.0155357670 0 0
0.0218402580 -0.0169010600 0 0
0.0208542710 -0.0180062190 0 0
0.0203253330 -0.0187283310 0 0
0.0203451460 -0.0189777450 0 0
0.0209458160 -0.0187068100 0 0
0.0220995710 -0.0179147080 0 0
0.0237236610 -0.0166478890 0 0
0.0256875650 -0.0149961710 0 0
0.0278210820 -0.0130848320 0 0
0.0299255540 -0.0110634220 0 0
0.0317919200 -0.0090929810 1 0
0.0332259000 -0.0073334660 1 0
0.0340756020 -0.0059320930 1 0
0.0342539100 -0.0050123130 1 0
0.0337488510 -0.0046627390 1 0
0.0326200320 -0.0049256000 1 0
0.0309850220 -0.0057863320 1 0
0.0290018760 -0.0071688460 0 0
0.0268520030 -0.0089402770 0 0
0.0247249020 -0.0109248560 0 0
0.0228047190 -0.0129240560 0 0
0.0212574650 -0.0147402150 0 0
0.0202175550 -0.0162000570 0 0
0.0197743070 -0.0171732590 0 0
0.0199608910 -0.0175829320 0 0
0.0207485260 -0.0174087820 0 0
0.0220484550 -0.0166854070 0 0
0.0237221660 -0.0154969230 0 0
0.0255966580 -0.0139674540 0 0
0.0274803710 -0.0122478200 0 0
0.0291776950 -0.0105008230 0 0
0.0305031440 -0.0088875550 1 0
0.0312979770 -0.0075552510 1 0
0.0314497160 -0.0066262340 1 0
0.0309101260 -0.0061873420 1 0
0.0297053160 -0.0062796220 0 0
0.0279345520 -0.0068899080 0 0
0.0257581270 -0.0079478530 0 0
0.0233766620 -0.0093313700 0 0
0.0210055250 -0.0108806860 0 0
0.0188492610 -0.0124186410 0 0
0.0170802990 -0.0137733500 0 0
0.0158246040 -0.0147986400 0 0
0.0151561800 -0.0153891540 0 0
0.0151002680 -0.0154894560 0 0
0.0156407150 -0.0150969090 0 0
0.0167262070 -0.0142580230 0 0
0.0182742340 -0.0130600290 0 0
0.0201740730 -0.0116211940 0 0
0.0222896540 -0.0100818400 0 0
0.0244645130 -0.0085948410 0 0
0.0265330810 -0.0073134880 0 0
0.0283392380 -0.0063769070 0 0
0.0297569610 -0.0058958540 0 0
0.0307073820 -0.0059416010 1 0
0.0311707810 -0.0065386600 1 0
0.0311937230 -0.0076614600 1 0
0.0308898200 -0.0092359000 1 0
0.0304310960 -0.0111467140 1 0
0.0300281740 -0.0132500810 1 0
0.0299018360 -0.0153897720 0 0
0.0302530830 -0.0174146020 1 0
0.0312382290 -0.0191944880 1 0
0.0329505070 -0.0206326770 1 0
0.0354079530 -0.0216729390 1 0
0.0385512190 -0.0223020460 1 0
0.0422550050 -0.0225490120 1 0
0.0463487630 -0.0224824050 1 0
0.0506376250 -0.0222056640 1 0
0.0549195410 -0.0218491970 1 0
0.0589998190 -0.0215581100 1 0
0.0627043890 -0.0214759390 1 0
0.0658935100 -0.0217272640 1 0
0.0684774860 -0.0224028820 1 0
0.0704308880 -0.0235491460 1 0
0.0717976100 -0.0251615810 1 0
0.0726836640 -0.0271834650 1 0
0.0732417810 -0.0295107960 1 0
0.0736528890 -0.0320041630 1 -1
0.0741070920 -0.0345059840 1 -1
0.0747857490 -0.0368600100 1 -1
0.0758460450 -0.0389295910 1 -1
0.0774091470 -0.0406114960 1 -1
0.0795520900 -0.0418437220 1 -1
0.0823018160 -0.0426083120 1 -1
0.0856293430 -0.0429314390 1 -1
0.0894447120 -0.0428815420 1 -1
0.0935973260 -0.0425645610 1 -1
0.0978868300 -0.0421154220 1 -1
0.1020853380 -0.0416856080 1 -1
0.1059660800 -0.0414271890 1 -1
0.1093311380 -0.0414758890 1 -1
0.1120330320 -0.0419374830 1 -1
0.1139881970 -0.0428797700 1 -1
0.1151826390 -0.0443287240 1 -1
0.1156715880 -0.0462667440 1 -1
0.1155741720 -0.0486336430 1 -1
0.1150611080 -0.0513326700 1 -1
0.1143341490 -0.0542415000 1 -1
0.1136015350 -0.0572246210 1 -1
0.1130559730 -0.0601434840 1 -1
0.1128579830 -0.0628642340 1 -1
0.1131238280 -0.0652656900 1 -1
0.1139164270 -0.0672491550 1 -1
0.1152392940 -0.0687484270 1 -1
0.1170359710 -0.0697376370 1 -1
0.1191969640 -0.0702353960 1 -1
0.1215727920 -0.0703038350 1 -1
0.1239897130 -0.0700417850 1 -1
0.1262652610 -0.0695733790 1 -1
0.1282225060 -0.0690344920 1 -1
0.1297034780 -0.0685590970 1 -1
0.1305825440 -0.0682667660 1 -1
0.1307805330 -0.0682518330 1 -1
0.1302787060 -0.0685751060 1 -1
0.1291282290 -0.0692591980 1 -1
0.1274499870 -0.0702870780 1 -1
0.1254233100 -0.0716028100 1 -1
0.1232664090 -0.0731150020 1 -1
0.1212126070 -0.0747046700 1 -1
0.1194852710 -0.0762375600 1 -1
0.1182739770 -0.0775785560 1 -1
0.1177152670 -0.0786060570 1 -1
0.1178801860 -0.0792259550 1 -1
0.1187686620 -0.0793850940 1 -1
0.1203103460 -0.0790824730 1 -1
0.1223716060 -0.0783746990 1 -1
0.1247680780 -0.0773725000 1 -1
0.1272814700 -0.0762276670 1 -1
0.1296788620 -0.0751131970 1 -1
0.1317341100 -0.0742015140 1 -1
0.1332517450 -0.0736452840 1 -1
0.1340904940 -0.0735630190 1 -1
0.1341801240 -0.0740291380 1 -1
0.1335267420 -0.0750670870 1 -1
0.1322071110 -0.0766450430 1 -1
0.1303577640 -0.0786754790 1 -1
0.1281640370 -0.0810209590 1 -1
0.1258477990 -0.0835078380 1 -1
0.1236483200 -0.0859464750 1 -1
0.1217945340 -0.0881535270 1 -1
0.1204747570 -0.0899715530 1 -1
0.1198135010 -0.0912832280 1 -1
0.1198612100 -0.0920196610 1 -1
0.1205961670 -0.0921637710 1 -1
0.1219336970 -0.0917496870 1 -1
0.1237377790 -0.0908578760 1 -1
0.1258335520 -0.0896056620 1 -1
0.1280223620 -0.0881346080 1 -1
0.1301010400 -0.0865972320 1 -1
0.1318847600 -0.0851439210 1 -1
0.1332295470 -0.0839097380 1 -1
0.1340477240 -0.0830024100 1 -1
0.1343110050 -0.0824941960 1 -1
0.1340425680 -0.0824186340 1 -1
0.1333053180 -0.0827707850 1 -1
0.1321926410 -0.0835087480 1 -1
0.1308231230 -0.0845554300 1 -1
0.1293366590 -0.0858023020 1 -1
0.1278869030 -0.0871180090 1 -1
0.1266266150 -0.0883620600 1 -1
0.1256886300 -0.0894006360 1 -1
0.1251690900 -0.0901211680 1 -1
0.1251171210 -0.0904437660 1 -1
0.1255304870 -0.0903288570 1 -1
0.1263557210 -0.0897812750 1 -1
0.1274928570 -0.0888510730 1 -1
0.1288054160 -0.0876300510 1 -1
0.1301346310 -0.0862427570 1 -1
0.1313153620 -0.0848325730 1 -1
0.1321917950 -0.0835455170 1 -1
0.1326330220 -0.0825145950 1 -1
0.1325477760 -0.0818463590 1 -1
0.1318938790 -0.0816100810 1 -1
0.1306780480 -0.0818298610 1 -1
0.1289489660 -0.0824811360 1 -1
0.1267912800 -0.0834930390 1 -1
0.1243231740 -0.0847561420 1 -1
0.1216934200 -0.0861338850 1 -1
0.1190733350 -0.0874766670 1 -1
0.1166420920 -0.0886381020 1 -1
0.1145674210 -0.0894920480 1 -1
0.1129866130 -0.0899469950 1 -1
0.1119919750 -0.0899541010 1 -1
0.1116217560 -0.0895081140 1 -1
0.1118563470 -0.0886436490 1 -1
0.1126201060 -0.0874297570 1 -1
0.1137885420 -0.0859646850 1 -1
0.1152001430 -0.0843707830 1 -1
0.1166727050 -0.0827872780 1 -1
0.1180228770 -0.0813589310 1 -1
0.1190859260 -0.0802219060 1 -1
0.1197329570 -0.0794901480 1 -1
0.1198828600 -0.0792439870 1 -1
0.1195071750 -0.0795206160 1 -1
0.1186302400 -0.0803072270 1 -1
0.1173284480 -0.0815395120 1 -1
0.1157273370 -0.0831071300 1 -1
0.1139915690 -0.0848652980 1 -1
0.1123063630 -0.0866507650 1 -1
0.1108542140 -0.0883001160 1 -1
0.1097927140 -0.0896672650 1 -1
0.1092380940 -0.0906366550 1 -1
0.1092555390 -0.0911309390 1 -1
0.1098543500 -0.0911145230 1 -1
0.1109867780 -0.0905947640 1 -1
0.1125515700 -0.0896213380 1 -1
0.1144034420 -0.0882835700 1 -1
0.1163677500 -0.0867053920 1 -1
0.1182576570 -0.0850369740 1 -1
0.1198909830 -0.0834413490 1 -1
0.1211058690 -0.0820761950 1 -1
0.1217758170 -0.0810745970 1 -1
0.1218233830 -0.0805300950 1 -1
0.1212297540 -0.0804886770 1 -1
0.1200378140 -0.0809465220 1 -1
0.1183483190 -0.0818509050 1 -1
0.1163100280 -0.0831035750 1 -1
0.1141048880 -0.0845683170 1 -1
0.1119300950 -0.0860841310 1 -1
0.1099803150 -0.0874829930 1 -1
0.1084323290 -0.0886091480 1 -1
0.1074300720 -0.0893364350 1 -1
0.1070674830 -0.0895817930 1 -1
0.1073727860 -0.0893142760 1 -1
0.1083014120 -0.0885578640 1 -1
0.1097407260 -0.0873864140 1 -1
0.1115243120 -0.0859122880 1 -1
0.1134508710 -0.0842729430 1 -1
0.1153041760 -0.0826188730 1 -1
0.1168738430 -0.0811028630 1 -1
0.1179769170 -0.0798684750 1 -1
0.1184785650 -0.0790367380 1 -1
0.1183090280 -0.0786920730 1 -1
0.1174733350 -0.0788702190 1 -1
0.1160514380 -0.0795517520 1 -1
0.1141891720 -0.0806632140 1 -1
0.1120813490 -0.0820851070 1 -1
0.1099482500 -0.0836651130 1 -1
0.1080086520 -0.0852355030 1 -1
0.1064540110 -0.0866331630 1 -1
0.1054275690 -0.0877190690 1 -1
0.1050108610 -0.0883930850 1 -1
0.1052187100 -0.0886012140 1 -1
0.1060026190 -0.0883356540 1 -1
0.1072622230 -0.0876300880 1 -1
0.1088628070 -0.0865521730 1 -1
0.1106532530 -0.0851951220 1 -1
0.1124776720 -0.0836705840 1 -1
0.1141799880 -0.0821032300 1 -1
0.1156087310 -0.0806246130 1 -1
0.1166285190 -0.0793640290 1 -1
0.1171368540 -0.0784370950 1 -1
0.1170799570 -0.0779348310 1 -1
0.1164614730 -0.0779150120 1 -1
0.1153411440 -0.0783957670 1 -1
0.1138262330 -0.0793511900 1 -1
0.1120611070 -0.0807094440 1 -1
0.1102161360 -0.0823552090 1 -1
0.1084728430 -0.0841390350 1 -1
0.1070046010 -0.0858939070 1 -1
0.1059568600 -0.0874558950 1 -1
0.1054313870 -0.0886845630 1 -1
0.1054766020 -0.0894797560 1 -1
0.1060842500 -0.0897925470 1 -1
0.1071915810 -0.0896286240 1 -1
0.1086881420 -0.0890434430 1 -1
0.1104266070 -0.0881311640 1 -1
0.1122363260 -0.0870116890 1 -1
0.1139379970 -0.0858193230 1 -1
0.1153593970 -0.0846935550 1 -1
0.1163522560 -0.0837697890 1 -1
0.1168085870 -0.0831672880 1 -1
0.1166738540 -0.0829743630 1 -1
0.1159541540 -0.0832348280 1 -1
0.1147152020 -0.0839407540 1 -1
0.1130737100 -0.0850341140 1 -1
0.1111842530 -0.0864162130 1 -1
0.1092230210 -0.0879608480 1 -1
0.1073675330 -0.0895271240 1 -1
0.1057749690 -0.0909706890 1 -1
0.1045665490 -0.0921549150 1 -1
0.1038215950 -0.0929634120 1 -1
0.1035775540 -0.0933128090 1 -1
0.1038317880 -0.0931629280 1 -1
0.1045439810 -0.0925224980 1 -1
0.1056380330 -0.0914501600 1 -1
0.1070032580 -0.0900503910 1 -1
0.1084986930 -0.0884635120 1 -1
0.1099642200 -0.0868503890 1 -1
0.1112365140 -0.0853749530 1 -1
0.1121657280 -0.0841879220 1 -1
0.1126320540 -0.0834124630 1 -1
0.1125618910 -0.0831310950 1 -1
0.1119398080 -0.0833756200 1 -1
0.1108116500 -0.0841235490 1 -1
0.1092784460 -0.0853017380 1 -1
0.1074851220 -0.0867952160 1 -1
0.1056069970 -0.0884597040 1 -1
0.1038333500 -0.0901370480 1 -1
0.1023473320 -0.0916718080 1 -1
0.1013051680 -0.0929264250 1 -1
0.1008194880 -0.0937930260 1 -1
0.1009494280 -0.0942012490 1 -1
0.1016969070 -0.0941222040 1 -1
0.1030079130 -0.0935691670 1 -1
0.1047787220 -0.0925959900 1 -1
0.1068663740 -0.0912932470 1 -1
0.1091009980 -0.0897809510 1 -1
0.1112980510 -0.0881980190 1 -1
0.1132711410 -0.0866904580 1 -1
0.1148477950 -0.0853998340 1 -1
0.1158883730 -0.0844518520 1 -1
0.1163039800 -0.0839442090 1 -1
0.1160686560 -0.0839340450 1 -1
0.1152242160 -0.0844279470 1 -1
0.1138765080 -0.0853784330 1 -1
0.1121813140 -0.0866889400 1 -1
0.1103225750 -0.0882264740 1 -1
0.1084899360 -0.0898384110 1 -1
0.1068603360 -0.0913687520 1 -1
0.1055832530 -0.0926715970 1 -1
0.1047681040 -0.0936229660 1 -1
0.1044751220 -0.0941321690 1 -1
0.1047122920 -0.0941515780 1 -1
0.1054380990 -0.0936819060 1 -1
0.1065673590 -0.0927709480 1 -1
0.1079780740 -0.0915068270 1 -1
0.1095196790 -0.0900083930 1 -1
0.1110250910 -0.0884140070 1 -1
0.1123280930 -0.0868688740 1 -1
0.1132832730 -0.0855117860 1 -1
0.1137825980 -0.0844626270 1 -1
0.1137650450 -0.0838111830 1 -1
0.1132208680 -0.0836074870 1 -1
0.1121930570 -0.0838553360 1 -1
0.1107753340 -0.0845114540 1 -1
0.1091045620 -0.0854908870 1 -1
0.1073476230 -0.0866770180 1 -1
0.1056847640 -0.0879345770 1 -1
0.1042910500 -0.0891242930 1 -1
0.1033175880 -0.0901171430 1 -1
0.1028760370 -0.0908064100 1 -1
0.1030291450 -0.0911171600 1 -1
0.1037851410 -0.0910131570 1 -1
0.1050930360 -0.0905007620 1 -1
0.1068411020 -0.0896290750 1 -1
0.1088625940 -0.0884859430 1 -1
0.1109493470 -0.0871898290 1 -1
0.1128723150 -0.0858783230 1 -1
0.1144085020 -0.0846944580 1 -1
0.1153718720 -0.0837717910 1 -1
0.1156417490 -0.0832193370 1 -1
0.1151804800 -0.0831080310 1 -1
0.1140366740 -0.0834607080 1 -1
0.1123361850 -0.0842482270 1 -1
0.1102628140 -0.0853935380 1 -1
0.1080306790 -0.0867824780 1 -1
0.1058561700 -0.0882780610 1 -1
0.1039387020 -0.0897351880 1 -1
0.1024507210 -0.0910135890 1 -1
0.1015303840 -0.0919888880 1 -1
0.1012723810 -0.0925632530 1 -1
0.1017180810 -0.0926756260 1 -1
0.1028483210 -0.0923092770 1 -1
0.1045805220 -0.0914948470 1 -1
0.1067714490 -0.0903083730 1 -1
0.1092273540 -0.0888642920 1 -1
0.1117214610 -0.0873042570 1 -1
0.1140171510 -0.0857836420 1 -1
0.1158945830 -0.0844576440 1 -1
0.1171771200 -0.0834678730 1 -1
0.1177528940 -0.0829292210 1 -1
0.1175867030 -0.0829173350 1 -1
0.1167190100 -0.0834589020 1 -1
0.1152541170 -0.0845276290 1 -1
0.1133444810 -0.0860473730 1 -1
0.1111761990 -0.0879013420 1 -1
0.1089543730 -0.0899447850 1 -1
0.1068852040 -0.0920187840 1 -1
0.1051558420 -0.0939638380 1 -1
0.1039162260 -0.0956328250 1 -1
0.1032655350 -0.0969031630 1 -1
0.1032430750 -0.0976872790 1 -1
0.1038234490 -0.0979401810 1 -1
0.1049184560 -0.0976638180 1 -1
0.1063898880 -0.0969084900 1 -1
0.1080730920 -0.0957703690 1 -1
0.1098020870 -0.0943836890 1 -1
0.1114242820 -0.0929077760 1 -1
0.1128024310 -0.0915108530 1 -1
0.1138131760 -0.0903527560 1 -1
0.1143528180 -0.0895680990 1 -1
0.1143523990 -0.0892511570 1 -1
0.1137948340 -0.0894441210 1 -1
0.1127237580 -0.0901308810 1 -1
0.1112389740 -0.0912384360 1 -1
0.1094822820 -0.0926465770 1 -1
0.1076211350 -0.0942035760 1 -1
0.1058335840 -0.0957440210 1 -1
0.1042939890 -0.0971062900 1 -1
0.1031591560 -0.0981489440 1 -1
0.1025550110 -0.0987648180 1 -1
0.1025634640 -0.0988906470 1 -1
0.1032102620 -0.0985112620 1 -1
0.1044564070 -0.0976593480 1 -1
0.1061962780 -0.0964121900 1 -1
0.1082646480 -0.0948858460 1 -1
0.1104531490 -0.0932262310 1 -1
0.1125348890 -0.0915956250 1 -1
0.1142929410 -0.0901537620 1 -1
0.1155461690 -0.0890365220 1 -1
0.1161676960 -0.0883387460 1 -1
0.1160954130 -0.0881058940 1 -1
0.1153362850 -0.0883346110 1 -1
0.1139657360 -0.0889795590 1 -1
0.1121211260 -0.0899635510 1 -1
0.1099874830 -0.0911881070 1 -1
0.1077775260 -0.0925419790 1 -1
0.1057116710 -0.0939071310 1 -1
0.1040000280 -0.0951641560 1 -1
0.1028222730 -0.0961995960 1 -1
0.1023034580 -0.0969159690 1 -1
0.1024928750 -0.0972430450 1 -1
0.1033564850 -0.0971474770 1 -1
0.1047862060 -0.0966383480 1 -1
0.1066201050 -0.0957676460 1 -1
0.1086651900 -0.0946257060 1 -1
0.1107179070 -0.0933326930 1 -1
0.1125811900 -0.0920272120 1 -1
0.1140786750 -0.0908524330 1 -1
0.1150671840 -0.0899402140 1 -1
0.1154485000 -0.0893949950 1 -1
0.1151799750 -0.0892806110 1 -1
0.1142808010 -0.0896131920 1 -1
0.1128298610 -0.0903613410 1 -1
0.1109548200 -0.0914520310 1 -1
0.1088177330 -0.0927797670 1 -1
0.1066022330 -0.0942175650 1 -1
0.1045007770 -0.0956290940 1 -1
0.1026976350 -0.0968810450 1 -1
0.1013483010 -0.0978545250 1 -1
0.1005608310 -0.0984546250 1 -1
0.1003839610 -0.0986179100 1 -1
0.1008036320 -0.0983180030 1 -1
0.1017476450 -0.0975692420 1 -1
0.1030972960 -0.0964274990 1 -1
0.1047037790 -0.0949867870 1 -1
0.1064050390 -0.0933713240 1 -1
0.1080378970 -0.0917237580 1 -1
0.1094447530 -0.0901911090 1 -1
0.1104811960 -0.0889102560 1 -1
0.1110302230 -0.0879942080 1 -1
0.1110199730 -0.0875204270 1 -1
0.1104369720 -0.0875230500 1 -1
0.1093308680 -0.0879900170 1 -1
0.1078100890 -0.0888639560 1 -1
0.1060281440 -0.0900452140 1 -1
0.1041628080 -0.0913977400 1 -1
0.1023940460 -0.0927605230 1 -1
0.1008860150 -0.0939651710 1 -1
0.0997734370 -0.0948566420 1 -1
0.0991496580 -0.0953133390 1 -1
0.0990575210 -0.0952634480 1 -1
0.0994879750 -0.0946946350 1 -1
0.1003869910 -0.0936550470 1 -1
0.1016648920 -0.0922459260 1 -1
0.1032023360 -0.0906084200 1 -1
0.1048518820 -0.0889078400 1 -1
0.1064396620 -0.0873172610 1 -1
0.1077754840 -0.0860011330 1 -1
0.1086752240 -0.0850998590 1 -1
0.1089887040 -0.0847169650 1 -1
0.1086227290 -0.0849095060 1 -1
0.1075550990 -0.0856810060 1 -1
0.1058404800 -0.0869773340 1 -1
0.1036078540 -0.0886879570 1 -1
0.1010476740 -0.0906547660 1 -1
0.0983895360 -0.0926887710 1 -1
0.0958751120 -0.0945925230 1 -1
0.0937317670 -0.0961837120 1 -1
0.0921500890 -0.0973148420 1 -1
0.0912669490 -0.0978859980 1 -1
0.0911544300 -0.0978508270 1 -1
0.0918131120 -0.0972172890 1 -1
0.0931690330 -0.0960445130 1 -1
0.0950774870 -0.0944365000 1 -1
0.0973377730 -0.0925329990 1 -1
0.0997185190 -0.0904976470 1 -1
0.1019869270 -0.0885034360 1 -1
0.1039335380 -0.0867165220 1 -1
0.1053894440 -0.0852802830 1 -1
0.1062383660 -0.0843015340 1 -1
0.1064252280 -0.0838405520 1 -1
0.1059597850 -0.0839067250 1 -1
0.1049141730 -0.0844605760 1 -1
0.1034151000 -0.0854209570 1 -1
0.1016306560 -0.0866749480 1 -1
0.0997507830 -0.0880882050 1 -1
0.0979636900 -0.0895148580 1 -1
0.0964350350 -0.0908075740 1 -1
0.0952959880 -0.0918289190 1 -1
0.0946393200 -0.0924642440 1 -1
0.0945171760 -0.0926345300 1 -1
0.0949373970 -0.0923064780 1 -1
0.0958613550 -0.0914975100 1 -1
0.0972061830 -0.0902746230 1 -1
0.0988511820 -0.0887467870 1 -1
0.1006479660 -0.0870516190 1 -1
0.1024337720 -0.0853392350 1 -1
0.1040447660 -0.0837573380 1 -1
0.1053262280 -0.0824395990 1 -1
0.1061419390 -0.0814961050 1 -1
0.1063883920 -0.0810039630 1 -1
0.1060138810 -0.0809982640 1 -1
0.1050336910 -0.0814661930 1 -1
0.1035317670 -0.0823475890 1 -1
0.1016481640 -0.0835431830 1 -1
0.0995597340 -0.0849286210 1 -1
0.0974607050 -0.0863701110 1 -1
0.0955442050 -0.0877377600 1 -1
0.0939834230 -0.0889152640 1 -1
0.0929129100 -0.0898073110 1 -1
0.0924127500 -0.0903462730 1 -1
0.0924989190 -0.0904978280 1 -1
0.0931220730 -0.0902640870 1 -1
0.0941755250 -0.0896834820 1 -1
0.0955115360 -0.0888276260 1 -1
0.0969616920 -0.0877957800 1 -1
0.0983548260 -0.0867069240 1 -1
0.0995291400 -0.0856884920 1 -1
0.1003415270 -0.0848615650 1 -1
0.1006786650 -0.0843249650 1 -1
0.1004698080 -0.0841425330 1 -1
0.0996966570 -0.0843368060 1 -1
0.0983964410 -0.0848888990 1 -1
0.0966588030 -0.0857421670 1 -1
0.0946199810 -0.0868079760 1 -1
0.0924551620 -0.0879737410 1 -1
0.0903648840 -0.0891137330 1 -1
0.0885519470 -0.0901020490 1 -1
0.0871919900 -0.0908263240 1 -1
0.0864073400 -0.0912000690 1 -1
0.0862533820 -0.0911711780 1 -1
0.0867191130 -0.0907256330 1 -1
0.0877360030 -0.0898881250 1 -1
0.0891886790 -0.0887219570 1 -1
0.0909251050 -0.0873277960 1 -1
0.0927676190 -0.0858379050 1 -1
0.0945271730 -0.0844035860 1 -1
0.0960214070 -0.0831775530 1 -1
0.0970946110 -0.0822951650 1 -1
0.0976359160 -0.0818582210 1 -1
0.0975925770 -0.0819241790 1 -1
0.0969768730 -0.0825021740 1 -1
0.0958659800 -0.0835550070 1 -1
0.0943944680 -0.0850048020 1 -1
0.0927397540 -0.0867403470 1 -1
0.0911010680 -0.0886255890 1 -1
0.0896739690 -0.0905096210 1 -1
0.0886266690 -0.0922383150 1 -1
0.0880849960 -0.0936674210 1 -1
0.0881265590 -0.0946764020 1 -1
0.0887791960 -0.0951811710 1 -1
0.0900203680 -0.0951433300 1 -1
0.0917781110 -0.0945748340 1 -1
0.0939345050 -0.0935383710 1 -1
0.0963315520 -0.0921428590 1 -1
0.0987804450 -0.0905326650 1 -1
0.1010756210 -0.0888713840 1 -1
0.1030136950 -0.0873239510 1 -1
0.1044163700 -0.0860404270 1 -1
0.1051536350 -0.0851429210 1 -1
0.1051606020 -0.0847161380 1 -1
0.1044441670 -0.0848008230 1 -1
0.1030813290 -0.0853885970 1 -1
0.1012119570 -0.0864193550 1 -1
0.0990261430 -0.0877852330 1 -1
0.0967447560 -0.0893430670 1 -1
0.0945934630 -0.0909326130 1 -1
0.0927752050 -0.0923960610 1 -1
0.0914491070 -0.0935952360 1 -1
0.0907201180 -0.0944241770 1 -1
0.0906368180 -0.0948166210 1 -1
0.0911917420 -0.0947492740 1 -1
0.0923216350 -0.0942415950 1 -1
0.0939101640 -0.0933525570 1 -1
0.0957964840 -0.0921748890 1 -1
0.0977886810 -0.0908267920 1 -1
0.0996791310 -0.0894409040 1 -1
0.1012618730 -0.0881513800 1 -1
0.1023531240 -0.0870811300 1 -1
0.1028122590 -0.0863304920 1 -1
0.1025581960 -0.0859676250 1 -1
0.1015789930 -0.0860212670 1 -1
0.0999351890 -0.0864767870 1 -1
0.0977563060 -0.0872763080 1 -1
0.0952299040 -0.0883234940 1 -1
0.0925854060 -0.0894929040 1 -1
0.0900741350 -0.0906427490 1 -1
0.0879440390 -0.0916299510 1 -1
0.0864099470 -0.0923262970 1 -1
0.0856246370 -0.0926329170 1 -1
0.0856564040 -0.0924896210 1 -1
0.0864788690 -0.0918787740 1 -1
0.0879780070 -0.0908263560 1 -1
0.0899747070 -0.0894014260 1 -1
0.0922536820 -0.0877127060 1 -1
0.0945892070 -0.0859013160 1 -1
0.0967643100 -0.0841295780 1 -1
0.0985862410 -0.0825655600 1 -1
0.0999011390 -0.0813639690 1 -1
0.1006063690 -0.0806467120 1 -1
0.1006570300 -0.0804880020 1 -1
0.1000665030 -0.0809072190 1 -1
0.0989045290 -0.0818693800 1 -1
0.0972935110 -0.0832910940 1 -1
0.0953984440 -0.0850502600 1 -1
0.0934085200 -0.0869987660 1 -1
0.0915158320 -0.0889770980 1 -1
0.0898975720 -0.0908285960 1 -1
0.0887033640 -0.0924115670 1 -1
0.0880460480 -0.0936090090 1 -1
0.0879941390 -0.0943364740 1 -1
0.0885651880 -0.0945484770 1 -1
0.0897197630 -0.0942430800 1 -1
0.0913571730 -0.0934637120 1 -1
0.0933175340 -0.0922973380 1 -1
0.0953963400 -0.0908675290 1 -1
0.0973712100 -0.0893214390 1 -1
0.0990313490 -0.0878126300 1 -1
0.1001999830 -0.0864841400 1 -1
0.1007478550 -0.0854552670 1 -1
0.1006017310 -0.0848123320 1 -1
0.0997518270 -0.0846017220 1 -1
0.0982585400 -0.0848242050 1 -1
0.0962549000 -0.0854321900 1 -1
0.0939405730 -0.0863335850 1 -1
0.0915657700 -0.0874037540 1 -1
0.0894046680 -0.0885021920 1 -1
0.0877185800 -0.0894887350 1 -1
0.0867145210 -0.0902370000 1 -1
0.0865119260 -0.0906459400 1 -1
0.0871295480 -0.0906500850 1 -1
0.0884943360 -0.0902267400 1 -1
0.0904631160 -0.0893980290 1 -1
0.0928455400 -0.0882277460 1 -1
0.0954222550 -0.0868148200 1 -1
0.0979586850 -0.0852847890 1 -1
0.1002191930 -0.0837789530 1 -1
0.1019872000 -0.0824406130 1 -1
0.1030909880 -0.0813994570 1 -1
0.1034274860 -0.0807566440 1 -1
0.1029760570 -0.0805726690 1 -1
0.1017993530 -0.0808587620 1 -1
0.1000322390 -0.0815729840 1 -1
0.0978622300 -0.0826234510 1 -1
0.0955059320 -0.0838799090 1 -1
0.0931844060 -0.0851912200 1 -1
0.0910986360 -0.0864040710 1 -1
0.0894074610 -0.0873792670 1 -1
0.0882119760 -0.0880043880 1 -1
0.0875496290 -0.0882027020 1 -1
0.0873978000 -0.0879381630 1 -1
0.0876833500 -0.0872172430 1 -1
0.0882946370 -0.0860893930 1 -1
0.0890942050 -0.0846460190 1 -1
0.0899310180 -0.0830148310 1 -1
0.0906524590 -0.0813474820 1 -1
0.0911175100 -0.0798026770 1 -1
0.0912105390 -0.0785289220 1 -1
0.0908533170 -0.0776493910 1 -1
0.0900138860 -0.0772497000 1 -1
0.0887100390 -0.0773693980 1 -1
0.0870045740 -0.0779979340 1 -1
0.0849946680 -0.0790749290 1 -1
0.0828013530 -0.0804944410 1 -1
0.0805605850 -0.0821135290 1 -1
0.0784134600 -0.0837651500 1 -1
0.0764965090 -0.0852740870 1 -1
0.0749358810 -0.0864740890 1 -1
0.0738447800 -0.0872244430 1 -1
0.0733180840 -0.0874237060 1 -1
0.0734206950 -0.0870180330 1 -1
0.0741733910 -0.0860033630 1 -1
0.0755414520 -0.0844236780 1 -1
0.0774282280 -0.0823684510 1 -1
0.0796769090 -0.0799696060 1 -1
0.0820853110 -0.0773950290 1 -1
0.0844322500 -0.0748354420 1 -1
0.0865070780 -0.0724848120 1 -1
0.0881347830 -0.0705183100 1 -1
0.0891924780 -0.0690728420 1 -1
0.0896162740 -0.0682336380 1 -1
0.0894023440 -0.0680284740 1 -1
0.0886070360 -0.0684294960 1 -1
0.0873448240 -0.0693607250 1 -1
0.0857783600 -0.0707084460 1 -1
0.0840982830 -0.0723323510 1 -1
0.0824968590 -0.0740763600 1 -1
0.0811428330 -0.0757793670 1 -1
0.0801635700 -0.0772875670 1 -1
0.0796374410 -0.0784688850 1 -1
0.0795960690 -0.0792271500 1 -1
0.0800314570 -0.0795128250 1 -1
0.0808996820 -0.0793286050 1 -1
0.0821175050 -0.0787295170 1 -1
0.0835581780 -0.0778169800 1 -1
0.0850560340 -0.0767266710 1 -1
0.0864232680 -0.0756120750 1 -1
0.0874745500 -0.0746269500 1 -1
0.0880520260 -0.0739092360 1 -1
0.0880453260 -0.0735676280 1 -1
0.0874046110 -0.0736711800 1 -1
0.0861454270 -0.0742420710 1 -1
0.0843444870 -0.0752523170 1 -1
0.0821294260 -0.0766257400 1 -1
0.0796684010 -0.0782454280 1 -1
0.0771606710 -0.0799654410 1 -1
0.0748225840 -0.0816251510 1 -1
0.0728647000 -0.0830649450 1 -1
0.0714632670 -0.0841421760 1 -1
0.0707352400 -0.0847460280 1 -1
0.0707252420 -0.0848097590 1 -1
0.0714050730 -0.0843185000 1 -1
0.0726806750 -0.0833108640 1 -1
0.0744042510 -0.0818740430 1 -1
0.0763920670 -0.0801337180 1 -1
0.0784448600 -0.0782407250 1 -1
0.0803653480 -0.0763565680 1 -1
0.0819708090 -0.0746393730 1 -1
0.0831038520 -0.0732309030 1 -1
0.0836454920 -0.0722451150 1 -1
0.0835298390 -0.0717590720 1 -1
0.0827546340 -0.0718065300 1 -1
0.0813833630 -0.0723740030 1 -1
0.0795393530 -0.0733999480 1 -1
0.0773925310 -0.0747787660 1 -1
0.0751399140 -0.0763707880 1 -1
0.0729849910 -0.0780176830 1 -1
0.0711209300 -0.0795608220 1 -1
0.0697166130 -0.0808591320 1 -1
0.0689030310 -0.0818033180 1 -1
0.0687610660 -0.0823246190 1 -1
0.0693133240 -0.0823980190 1 -1
0.0705219700 -0.0820417920 1 -1
0.0722920960 -0.0813151880 1 -1
0.0744781740 -0.0803137200 1 -1
0.0768930120 -0.0791602030 1 -1
0.0793201930 -0.0779918190 1 -1
0.0815295470 -0.0769458080 1 -1
0.0832961670 -0.0761457700 1 -1
0.0844256120 -0.0756892590 1 -1
0.0847840650 -0.0756376690 1 -1
0.0843245120 -0.0760094400 1 -1
0.0830976990 -0.0767768740 1 -1
0.0812426740 -0.0778670830 1 -1
0.0789613060 -0.0791683540 1 -1
0.0764876260 -0.0805421110 1 -1
0.0740615770 -0.0818382300 1 -1
0.0719097060 -0.0829107000 1 -1
0.0702293940 -0.0836320730 1 -1
0.0691728100 -0.0839062840 1 -1
0.0688310580 -0.0836790390 1 -1
0.0692230750 -0.0829446080 1 -1
0.0702933090 -0.0817479960 1 -1
0.0719181810 -0.0801815820 1 -1
0.0739190900 -0.0783758910 1 -1
0.0760810090 -0.0764856790 1 -1
0.0781762330 -0.0746737960 1 -1
0.0799904310 -0.0730951700 1 -1
0.0813465330 -0.0718824800 1 -1
0.0821230450 -0.0711346940 1 -1
0.0822647980 -0.0709094750 1 -1
0.0817862390 -0.0712191180 1 -1
0.0807684720 -0.0720282480 1 -1
0.0793489640 -0.0732529220 1 -1
0.0777027430 -0.0747642910 1 -1
0.0760195020 -0.0764001650 1 -1
0.0744835360 -0.0779832900 1 -1
0.0732589050 -0.0793415010 1 -1
0.0724784500 -0.0803259180 1 -1
0.0722353920 -0.0808261610 1 -1
0.0725766920 -0.0807820450 1 -1
0.0734973360 -0.0801902330 1 -1
0.0749355950 -0.0791048910 1 -1
0.0767716640 -0.0776328530 1 -1
0.0788353100 -0.0759240560 1 -1
0.0809269380 -0.0741572540 1 -1
0.0828475190 -0.0725212300 1 -1
0.0844241930 -0.0711931650 1 -1
0.0855226530 -0.0703176910 1 -1
0.0860505640 -0.0699908940 1 -1
0.0859619610 -0.0702520330 1 -1
0.0852652460 -0.0710828020 1 -1
0.0840275300 -0.0724119570 1 -1
0.0823679230 -0.0741235330 1 -1
0.0804417430 -0.0760681640 1 -1
0.0784237510 -0.0780773830 1 -1
0.0764936490 -0.0799800320 1 -1
0.0748203220 -0.0816187770 1 -1
0.0735429510 -0.0828640300 1 -1
0.0727540880 -0.0836238170 1 -1
0.0724917070 -0.0838495840 1 -1
0.0727408480 -0.0835381940 1 -1
0.0734390100 -0.0827304960 1 -1
0.0744818080 -0.0815074940 1 -1
0.0757314010 -0.0799841070 1 -1
0.0770300700 -0.0782986250 1 -1
0.0782169600 -0.0765977890 1 -1
0.0791449190 -0.0750209320 1 -1
0.0796956690 -0.0736866570 1 -1
0.0797915340 -0.0726834260 1 -1
0.0794016130 -0.0720649040 1 -1
0.0785419710 -0.0718500280 1 -1
0.0772723890 -0.0720255960 1 -1
0.0756931220 -0.0725491580 1 -1
0.0739411000 -0.0733518500 1 -1
0.0721805270 -0.0743421000 1 -1
0.0705857410 -0.0754115460 1 -1
0.0693217410 -0.0764438780 1 -1
0.0685284710 -0.0773256730 1 -1
0.0683081100 -0.0779574380 1 -1
0.0687121200 -0.0782637100 1 -1
0.0697289530 -0.0782015310 1 -1
0.0712759080 -0.0777665200 1 -1
0.0731997210 -0.0769956890 1 -1
0.0752919280 -0.0759659640 1 -1
0.0773190200 -0.0747874920 1 -1
0.0790572790 -0.0735916270 1 -1
0.0803214520 -0.0725151820 1 -1
0.0809832320 -0.0716840520 1 -1
0.0809794810 -0.0711992180 1 -1
0.0803115560 -0.0711265660 1 -1
0.0790392400 -0.0714909580 1 -1
0.0772729790 -0.0722742600 1 -1
0.0751652730 -0.0734161210 1 -1
0.0728996220 -0.0748171510 1 -1
0.0706767320 -0.0763463480 1 -1
0.0686997340 -0.0778540310 1 -1
0.0671583040 -0.0791881010 1 -1
0.0662087590 -0.0802105570 1 -1
0.0659513920 -0.0808133260 1 -1
0.0664140110 -0.0809319020 1 -1
0.0675491740 -0.0805529870 1 -1
0.0692424780 -0.0797137340 1 -1
0.0713257710 -0.0784945550 1 -1
0.0735951890 -0.0770090200 1 -1
0.0758352530 -0.0753929620 1 -1
0.0778431080 -0.0737933030 1 -1
0.0794453860 -0.0723564450 1 -1
0.0805083540 -0.0712158110 1 -1
0.0809469020 -0.0704787880 1 -1
0.0807335550 -0.0702148480 1 -1
0.0799029890 -0.0704470470 1 -1
0.0785479360 -0.0711480320 1 -1
0.0768073180 -0.0722418830 1 -1
0.0748511050 -0.0736130500 1 -1
0.0728662210 -0.0751210350 1 -1
0.0710446960 -0.0766169910 1 -1
0.0695708970 -0.0779587880 1 -1
0.0686033600 -0.0790229390 1 -1
0.0682523940 -0.0797136250 1 -1
0.0685621240 -0.0799700900 1 -1
0.0695053920 -0.0797727030 1 -1
0.0709907700 -0.0791457080 1 -1
0.0728738190 -0.0781544260 1 -1
0.0749691930 -0.0768972570 1 -1
0.0770673570 -0.0754948510 1 -1
0.0789573470 -0.0740787320 1 -1
0.0804507330 -0.0727806190 1 -1
0.0814013680 -0.0717221790 1 -1
0.0817188600 -0.0710036790 1 -1
0.0813765200 -0.0706917210 1 -1
0.0804147330 -0.0708096680 1 -1
0.0789380060 -0.0713346170 1 -1
0.0771025880 -0.0722008820 1 -1
0.0750952270 -0.0733076780 1 -1
0.0731091180 -0.0745301070 1 -1
0.0713243060 -0.0757331770 1 -1
0.0698958040 -0.0767864590 1 -1
0.0689476260 -0.0775758700 1 -1
0.0685680340 -0.0780111660 1 -1
0.0688022300 -0.0780306520 1 -1
0.0696434510 -0.0776052850 1 -1
0.0710265110 -0.0767424390 1 -1
0.0728275010 -0.0754877940 1 -1
0.0748727500 -0.0739240500 1 -1
0.0769582290 -0.0721665900 1 -1
0.0788755070 -0.0703563530 1 -1
0.0804363980 -0.0686490090 1 -1
0.0814897320 -0.0671994360 1 -1
0.0819294490 -0.0661428140 1 -1
0.0816990600 -0.0655762020 1 -1
0.0807978020 -0.0655447090 1 -1
0.0792871360 -0.0660349320 1 -1
0.0772906020 -0.0669769280 1 -1
0.0749830530 -0.0682542290 1 -1
0.0725720450 -0.0697192290 1 -1
0.0702759590 -0.0712106290 1 -1
0.0683021030 -0.0725707510 1 -1
0.0668278410 -0.0736612590 1 -1
0.0659868290 -0.0743758770 1 -1
0.0658588600 -0.0746491240 1 -1
0.0664597490 -0.0744608570 1 -1
0.0677317000 -0.0738366910 1 -1
0.0695408860 -0.0728445430 1 -1
0.0716891740 -0.0715880840 1 -1
0.0739400060 -0.0701978830 1 -1
0.0760507820 -0.0688199940 1 -1
0.0778021010 -0.0676016220 1 -1
0.0790197380 -0.0666749990 1 -1
0.0795913580 -0.0661417380 1 -1
0.0794789130 -0.0660600470 1 -1
0.0787234700 -0.0664372470 1 -1
0.0774390960 -0.0672296050 1 -1
0.0757953740 -0.0683495190 1 -1
0.0739924140 -0.0696777350 1 -1
0.0722367150 -0.0710776840 1 -1
0.0707238560 -0.0724096360 1 -1
0.0696257930 -0.0735430010 1 -1
0.0690774970 -0.0743664880 1 -1
