-0.0095017780 -0.0032237650 0 0
-0.0094022810 -0.0018592710 0 0
-0.0094155860 -0.0005580320 0 0
-0.0096075350 0.0005327570 0 0
-0.0100140250 0.0012934900 0 0
-0.0106374140 0.0016484920 0 0
-0.0114481620 0.0015752450 0 0
-0.0123882680 0.0011039460 0 0
-0.0133738360 0.0003085930 0 0
-0.0143003140 -0.0007059450 0 0
-0.0150569600 -0.0018169020 0 0
-0.0155492500 -0.0028955000 0 0
-0.0157175240 -0.0038179780 0 0
-0.0155427070 -0.0044755060 0 0
-0.0150417050 -0.0047824110 0 0
-0.0142588180 -0.0046823000 0 0
-0.0132549060 -0.0041521000 0 0
-0.0120951520 -0.0032043820 0 0
-0.0108396150 -0.0018877310 0 0
-0.0095405270 -0.0002843280 0 0
-0.0082449310 0.0014959470 0 0
-0.0069975420 0.0033245520 0 0
-0.0058397150 0.0050652900 0 0
-0.0048039330 0.0065861420 0 0
-0.0039071820 0.0077709720 0 0
-0.0031479010 0.0085302910 0 0
-0.0025076430 0.0088107350 0 0
-0.0019547940 0.0086021600 0 0
-0.0014484400 0.0079400610 0 0
-0.0009425950 0.0069022450 0 0
-0.0003904640 0.0056012970 0 0
0.0002518780 0.0041749560 0 0
0.0010216740 0.0027752010 0 0
0.0019455450 0.0015552860 0 0
0.0030371490 0.0006534370 0 0
0.0042968240 0.0001743450 0 0
0.0057115720 0.0001732660 0 0
0.0072548010 0.0006478420 0 0
0.0088870990 0.0015397480 0 0
0.0105588090 0.0027451410 0 0
0.0122137170 0.0041304620 0 0
0.0137930750 0.0055492670 0 0
0.0152395330 0.0068573860 0 0
0.0165008320 0.0079252270 0 0
0.0175335310 0.0086466500 0 0
0.0183070310 0.0089452310 0 0
0.0188077730 0.0087795260 0 0
0.0190430060 0.0081476730 0 0
0.0190426430 0.0070898960 0 0
0.0188569160 0.0056875400 0 0
0.0185490580 0.0040582390 0 0
0.0181851180 0.0023468900 0 0
0.0178237470 0.0007117340 0 0
0.0175079380 -0.0006936990 0 0
0.0172602330 -0.0017394780 0 0
0.0170818970 -0.0023346120 0 0
0.0169553380 -0.0024356950 0 0
0.0168483670 -0.0020484590 0 0
0.0167186060 -0.0012246560 0 0
0.0165167080 -0.0000569356 0 0
0.0161888980 0.0013281900 0 0
0.0156816810 0.0027810010 0 0
0.0149506630 0.0041434010 0 0
0.0139703910 0.0052661640 0 0
0.0127398020 0.0060257660 0 0
0.0112818360 0.0063381920 0 0
0.0096394580 0.0061679570 0 0
0.0078702450 0.0055314350 0 0
0.0060406450 0.0044944330 0 0
0.0042203480 0.0031649460 0 0
0.0024773630 0.0016826430 0 0
0.0008755980 0.0002059770 0 0
-0.0005243560 -0.0011029400 0 0
-0.0016658680 -0.0020955410 0 0
-0.0025052030 -0.0026548600 0 0
-0.0030281070 -0.0027113450 0 0
-0.0032633880 -0.0022526370 0 0
-0.0032837710 -0.0013251900 0 0
-0.0031951580 -0.0000281245 0 0
-0.0031221700 0.0014987510 0 0
-0.0031941090 0.0030908170 0 0
-0.0035298000 0.0045767820 0 0
-0.0042213140 0.0057971120 0 0
-0.0053216590 0.0066205590 0 0
-0.0068405150 0.0069569670 0 0
-0.0087462730 0.0067649080 0 0
-0.0109715050 0.0060529120 0 0
-0.0134220840 0.0048742890 0 0
-0.0159892980 0.0033179740 0 0
-0.0185609000 0.0014989610 0 0
-0.0210288250 -0.0004505120 0 0
-0.0232960070 -0.0023904900 0 0
-0.0252839850 -0.0041842290 0 0
-0.0269385000 -0.0057094680 0 0
-0.0282303780 -0.0068687070 0 0
-0.0291534210 -0.0075974990 0 0
-0.0297222720 -0.0078702930 0 0
-0.0299707090 -0.0077036590 0 0
-0.0299498330 -0.0071563090 0 0
-0.0297259830 -0.0063251230 0 0
-0.0293777440 -0.0053367900 0 0
-0.0289913350 -0.0043351810 0 0
-0.0286546820 -0.0034655220 0 0
-0.0284505730 -0.0028576420 0 0
-0.0284480310 -0.0026107840 0 0
-0.0286915080 -0.0027816630 0 0
-0.0291908190 -0.0033766040 0 0
-0.0299166930 -0.0043490850 0 0
-0.0308036100 -0.0056050130 -1 0
-0.0317576160 -0.0070163120 -1 0
-0.0326669680 -0.0084390890 -1 0
-0.0334149710 -0.0097309660 -1 0
-0.0338938280 -0.0107651930 -1 0
-0.0340174620 -0.0114419520 -1 0
-0.0337308560 -0.0116966640 -1 0
-0.0330139390 -0.0115039730 -1 0
-0.0318804770 -0.0108770200 -1 0
-0.0303744630 -0.0098635370 -1 0
-0.0285653170 -0.0085406950 0 0
-0.0265413960 -0.0070095240 0 0
-0.0244012270 -0.0053888830 0 0
-0.0222434730 -0.0038084970 0 0
-0.0201577800 -0.0023998730 0 0
-0.0182171620 -0.0012846100 0 0
-0.0164710370 -0.0005617300 0 0
-0.0149400430 -0.0002964500 0 0
-0.0136148960 -0.0005119030 0 0
-0.0124589010 -0.0011846500 0 0
-0.0114129120 -0.0022448320 0 0
-0.0104037470 -0.0035817010 0 0
-0.0093561620 -0.0050542830 0 0
-0.0082048790 -0.0065054620 0 0
-0.0069030800 -0.0077768950 0 0
-0.0054267020 -0.0087228550 0 0
-0.0037748200 -0.0092223720 0 0
-0.0019662360 -0.0091897640 0 0
-0.0000337986 -0.0085839770 0 0
0.0019803640 -0.0074162540 0 0
0.0040263680 -0.0057540110 0 0
0.0060462790 -0.0037187280 0 0
0.0079765840 -0.0014769070 0 0
0.0097561280 0.0007754750 0 0
0.0113349600 0.0028333370 0 0
0.0126751780 0.0045049010 0 0
0.0137423100 0.0056327160 0 0
0.0144973890 0.0061100670 0 0
0.0148990910 0.0058908960 0 0
0.0149143970 0.0049935080 0 0
0.0145305910 0.0034989730 0 0
0.0137640600 0.0015440550 0 0
0.0126641640 -0.0006919790 0 0
0.0113103570 -0.0030061070 0 0
0.0098021610 -0.0051927750 0 0
0.0082449660 -0.0070634200 0 0
0.0067362400 -0.0084624510 0 0
0.0053550940 -0.0092799220 0 0
0.0041560380 -0.0094600990 0 0
0.0031664930 -0.0090046120 0 0
0.0023871230 -0.0079707080 0 0
0.0017941870 -0.0064657060 0 0
0.0013432760 -0.0046374910 0 0
0.0009742230 -0.0026611310 0 0
0.0006175920 -0.0007229470 0 0
0.0002021870 0.0009971410 0 0
-0.0003379760 0.0023445890 0 0
-0.0010567430 0.0032080520 0 0
-0.0019868190 0.0035319350 0 0
-0.0031297140 0.0033206970 0 0
-0.0044493560 0.0026349240 0 0
-0.0058734200 0.0015820270 0 0
-0.0073027830 0.0003041090 0 0
-0.0086263400 -0.0010368080 0 0
-0.0097372330 -0.0022765410 0 0
-0.0105470460 -0.0032679480 0 0
-0.0109961870 -0.0038976850 0 0
-0.0110602460 -0.0040969600 0 0
-0.0107516490 -0.0038458770 0 0
-0.0101154290 -0.0031731430 0 0
-0.0092208460 -0.0021520060 0 0
-0.0081533580 -0.0008923490 0 0
-0.0070084320 0.0004703910 0 0
-0.0058842510 0.0017878390 0 0
-0.0048716360 0.0029118500 0 0
-0.0040436600 0.0037079780 0 0
-0.0034480310 0.0040687940 0 0
-0.0031040910 0.0039263970 0 0
-0.0030057570 0.0032626900 0 0
-0.0031289130 0.0021142520 0 0
-0.0034376870 0.0005689240 0 0
-0.0038857000 -0.0012454210 0 0
-0.0044150240 -0.0031763980 0 0
-0.0049585380 -0.0050634580 0 0
-0.0054479860 -0.0067531030 0 0
-0.0058248820 -0.0081117760 0 0
-0.0060487020 -0.0090360190 0 0
-0.0060984690 -0.0094607050 0 0
-0.0059698690 -0.0093654320 0 0
-0.0056737580 -0.0087771370 0 0
-0.0052381640 -0.0077673430 0 0
-0.0047102960 -0.0064445300 0 0
-0.0041548510 -0.0049428720 0 0
-0.0036479820 -0.0034085560 0 0
-0.0032690580 -0.0019854500 0 0
-0.0030928030 -0.0008019040 0 0
-0.0031818930 0.0000402294 0 0
-0.0035791230 0.0004740390 0 0
-0.0043007670 0.0004738370 0 0
-0.0053341020 0.0000592985 0 0
-0.0066399620 -0.0007041340 0 0
-0.0081580360 -0.0017107240 0 0
-0.0098123460 -0.0028260470 0 0
-0.0115166210 -0.0039023830 0 0
-0.0131806600 -0.0047945720 0 0
-0.0147175570 -0.0053742570 0 0
-0.0160499490 -0.0055418660 0 0
-0.0171145440 -0.0052359190 0 0
-0.0178670890 -0.0044390080 0 0
-0.0182883840 -0.0031796180 0 0
-0.0183866450 -0.0015288340 0 0
-0.0181930720 0.0004081220 0 0
-0.0177559830 0.0025030760 0 0
-0.0171410010 0.0046151990 0 0
-0.0164354540 0.0065993300 0 0
-0.0157464840 0.0083144360 0 0
-0.0151862250 0.0096341900 0 0
-0.0148492750 0.0104594620 0 0
-0.0147936080 0.0107307740 0 0
-0.0150315540 0.0104380280 0 0
-0.0155302600 0.0096249740 0 0
-0.0162186210 0.0083871410 0 0
-0.0169987630 0.0068632300 0 0
-0.0177610410 0.0052206810 0 0
-0.0184008840 0.0036370070 0 0
-0.0188331450 0.0022794680 0 0
-0.0189987230 0.0012858480 0 0
-0.0188632270 0.0007488360 0 0
-0.0184133110 0.0007067200 0 0
-0.0176549520 0.0011420610 0 0
-0.0166129980 0.0019870420 0 0
-0.0153302580 0.0031322870 0 0
-0.0138659290 0.0044374840 0 0
-0.0122934010 0.0057445920 0 0
-0.0106966320 0.0068941360 0 0
-0.0091633630 0.0077427410 0 0
-0.0077744940 0.0081784830 0 0
-0.0065926820 0.0081314850 0 0
-0.0056546680 0.0075792230 0 0
-0.0049685150 0.0065473170 0 0
-0.0045143910 0.0051064840 0 0
-0.0042486040 0.0033658930 0 0
-0.0041108980 0.0014631930 0 0
-0.0040332990 -0.0004482400 0 0
-0.0039484830 -0.0022138050 0 0
-0.0037973240 -0.0036922480 0 0
-0.0035359640 -0.0047686220 0 0
-0.0031409450 -0.0053641910 0 0
-0.0026094820 -0.0054422690 0 0
-0.0019550060 -0.0050102820 0 0
-0.0012021060 -0.0041192570 0 0
-0.0003836800 -0.0028606530 0 0
0.0004604120 -0.0013593330 0 0
0.0012843790 0.0002370340 0 0
0.0020380990 0.0017702170 0 0
0.0026711980 0.0030847630 0 0
0.0031405550 0.0040433380 0 0
0.0034186880 0.0045429950 0 0
0.0034998220 0.0045288370 0 0
0.0034030660 0.0040018740 0 0
0.0031724590 0.0030195860 0 0
0.0028718540 0.0016893410 0 0
0.0025745390 0.0001562420 0 0
0.0023522690 -0.0014128710 0 0
0.0022690150 -0.0028480270 0 0
0.0023789940 -0.0039957050 0 0
0.0027229840 -0.0047367820 0 0
0.0033188070 -0.0050000740 0 0
0.0041496980 -0.0047691460 0 0
0.0051587930 -0.0040813540 0 0
0.0062537540 -0.0030200790 0 0
0.0073197040 -0.0017028440 0 0
0.0082366960 -0.0002682060 0 0
0.0088968250 0.0011365010 0 0
0.0092163610 0.0023661460 0 0
0.0091425500 0.0032892520 0 0
0.0086581360 0.0038014970 0 0
0.0077847800 0.0038388840 0 0
0.0065831450 0.0033861290 0 0
0.0051474370 0.0024788180 0 0
0.0035941040 0.0012003470 0 0
0.0020462920 -0.0003261190 0 0
0.0006180990 -0.0019508950 0 0
-0.0005966510 -0.0035153050 0 0
-0.0015300910 -0.0048707240 0 0
-0.0021430990 -0.0058948670 0 0
-0.0024268750 -0.0065018770 0 0
-0.0024019970 -0.0066460150 0 0
-0.0021134710 -0.0063214560 0 0
-0.0016228840 -0.0055603080 0 0
-0.0010004200 -0.0044289490 0 0
-0.0003189250 -0.0030225560 0 0
0.0003492790 -0.0014586520 0 0
0.0009337180 0.0001300570 0 0
0.0013672430 0.0016043950 0 0
0.0015894310 0.0028296760 0 0
0.0015529140 0.0036886510 0 0
0.0012313560 0.0040950860 0 0
0.0006253480 0.0040056490 0 0
-0.0002363550 0.0034274450 0 0
-0.0012993930 0.0024188220 0 0
-0.0024884890 0.0010821220 0 0
-0.0037140260 -0.0004503350 0 0
-0.0048807180 -0.0020329530 0 0
-0.0058976110 -0.0035214310 0 0
-0.0066879670 -0.0047826990 0 0
-0.0071982490 -0.0057015760 0 0
-0.0074056520 -0.0061873740 0 0
-0.0073222280 -0.0061821780 0 0
-0.0069931240 -0.0056694680 0 0
-0.0064882020 -0.0046799960 0 0
-0.0058891800 -0.0032922110 0 0
-0.0052765480 -0.0016257400 0 0
-0.0047207080 0.0001717300 0 0
-0.0042785140 0.0019410130 0 0
-0.0039919610 0.0035271810 0 0
-0.0038854590 0.0047928370 0 0
-0.0039623960 0.0056299320 0 0
-0.0042048620 0.0059703980 0 0
-0.0045786090 0.0057937690 0 0
-0.0050409620 0.0051302060 0 0
-0.0055481110 0.0040581600 0 0
-0.0060599640 0.0026962870 0 0
-0.0065415770 0.0011906690 0 0
-0.0069611920 -0.0003003630 0 0
-0.0072874120 -0.0016224270 0 0
-0.0074889280 -0.0026416760 0 0
-0.0075377340 -0.0032596790 0 0
-0.0074140940 -0.0034232500 0 0
-0.0071114960 -0.0031269890 0 0
-0.0066414800 -0.0024096200 0 0
-0.0060388330 -0.0013473130 0 0
-0.0053657570 -0.0000454877 0 0
-0.0047107930 0.0013711720 0 0
-0.0041786100 0.0027699520 0 0
-0.0038715800 0.0040215510 0 0
-0.0038686680 0.0050114750 0 0
-0.0042083340 0.0056505710 0 0
-0.0048809110 0.0058828850 0 0
-0.0058330400 0.0056898690 0 0
-0.0069817610 0.0050916260 0 0
-0.0082305670 0.0041459710 0 0
-0.0094802270 0.0029447760 0 0
-0.0106345390 0.0016063000 0 0
-0.0116059460 0.0002636400 0 0
-0.0123235400 -0.0009487430 0 0
-0.0127419790 -0.0019086080 0 0
-0.0128480580 -0.0025185090 0 0
-0.0126614330 -0.0027160790 0 0
-0.0122283960 -0.0024810130 0 0
-0.0116122570 -0.0018386850 0 0
-0.0108846330 -0.0008598540 0 0
-0.0101182650 0.0003453150 0 0
-0.0093802550 0.0016395830 0 0
-0.0087258650 0.0028748980 0 0
-0.0081939830 0.0039088390 0 0
-0.0078051140 0.0046192350 0 0
-0.0075621280 0.0049165400 0 0
-0.0074523800 0.0047533220 0 0
-0.0074484260 0.0041296080 0 0
-0.0075072590 0.0030933790 0 0
-0.0075722230 0.0017359520 0 0
-0.0075800640 0.0001825880 0 0
-0.0074698480 -0.0014200410 0 0
-0.0071894960 -0.0029174740 0 0
-0.0067000200 -0.0041618240 0 0
-0.0059799230 -0.0050270480 0 0
-0.0050297390 -0.0054231590 0 0
-0.0038735010 -0.0053065860 0 0
-0.0025548220 -0.0046853660 0 0
-0.0011291000 -0.0036186480 0 0
0.0003437480 -0.0022102000 0 0
0.0018033180 -0.0005964190 0 0
0.0031925190 0.0010698090 0 0
0.0044648950 0.0026367020 0 0
0.0055906000 0.0039691170 0 0
0.0065523170 0.0049600950 0 0
0.0073332080 0.0055383050 0 0
0.0079085120 0.0056712740 0 0
0.0082469820 0.0053647250 0 0
0.0083197130 0.0046593470 0 0
0.0081120460 0.0036260930 0 0
0.0076338260 0.0023602380 0 0
0.0069232150 0.0009746510 0 0
0.0060432670 -0.0004070490 0 0
0.0050745170 -0.0016574560 0 0
0.0041062290 -0.0026534210 0 0
0.0032262130 -0.0032860080 0 0
0.0025096400 -0.0034717360 0 0
0.0020102210 -0.0031632610 0 0
0.0017564520 -0.0023579320 0 0
0.0017509240 -0.0011028370 0 0
0.0019688280 0.0005052550 0 0
0.0023557320 0.0023263060 0 0
0.0028295030 0.0041898470 0 0
0.0032900250 0.0059133090 0 0
0.0036347340 0.0073246960 0 0
0.0037753190 0.0082867300 0 0
0.0036521420 0.0087166480 0 0
0.0032440730 0.0085964310 0 0
0.0025718180 0.0079732570 0 0
0.0016933540 0.0069526120 0 0
0.0006914960 0.0056848630 0 0
-0.0003426230 0.0043455890 0 0
-0.0013243650 0.0031126430 0 0
-0.0021859710 0.0021444720 0 0
-0.0028826110 0.0015632710 0 0
-0.0033934850 0.0014448000 0 0
-0.0037186140 0.0018148900 0 0
-0.0038747680 0.0026510370 0 0
-0.0038925930 0.0038865780 0 0
-0.0038141530 0.0054158970 0 0
-0.0036899400 0.0071017150 0 0
-0.0035743460 0.0087868750 0 0
-0.0035181730 0.0103110960 0 0
-0.0035593990 0.0115298990 0 0
-0.0037167610 0.0123310930 0 0
-0.0039895440 0.0126449980 0 0
-0.0043629460 0.0124475330 0 0
-0.0048157520 0.0117579620 0 0
-0.0053260270 0.0106333830 0 0
-0.0058712050 0.0091613370 0 0
-0.0064234370 0.0074518430 0 0
-0.0069460010 0.0056299460 0 0
-0.0073945740 0.0038290860 0 0
-0.0077214950 0.0021842670 0 0
-0.0078805790 0.0008230470 0 0
-0.0078328730 -0.0001466700 0 0
-0.0075523540 -0.0006503090 0 0
-0.0070280660 -0.0006580360 0 0
-0.0062626770 -0.0001903920 0 0
-0.0052735230 0.0006836250 0 0
-0.0041007320 0.0018549230 0 0
-0.0028169340 0.0031861550 0 0
-0.0015272180 0.0045252740 0 0
-0.0003548520 0.0057210010 0 0
0.0005809520 0.0066398190 0 0
0.0011854300 0.0071817470 0 0
0.0014009580 0.0072910460 0 0
0.0012120050 0.0069598320 0 0
0.0006447590 0.0062257460 0 0
-0.0002374260 0.0051664080 0 0
-0.0013422540 0.0038922310 0 0
-0.0025588090 0.0025370800 0 0
-0.0037686990 0.0012456770 0 0
-0.0048583600 0.0001583270 0 0
-0.0057328020 -0.0006049370 0 0
-0.0063288090 -0.0009585950 0 0
-0.0066230250 -0.0008617730 0 0
-0.0066310730 -0.0003221770 0 0
-0.0063988230 0.0006061070 0 0
-0.0059908160 0.0018293640 0 0
-0.0054797380 0.0032242550 0 0
-0.0049382450 0.0046503500 0 0
-0.0044327920 0.0059646370 0 0
-0.0040183010 0.0070365120 0 0
-0.0037338190 0.0077608610 0 0
-0.0036009010 0.0080676300 0 0
-0.0036248770 0.0079274900 0 0
-0.0037972130 0.0073531650 0 0
-0.0040977680 0.0063963880 0 0
-0.0044965530 0.0051421710 0 0
-0.0049544570 0.0037024010 0 0
-0.0054237530 0.0022083330 0 0
-0.0058511570 0.0007996170 0 0
-0.0061843420 -0.0003905490 0 0
-0.0063788320 -0.0012511890 0 0
-0.0064020760 -0.0017061800 0 0
-0.0062353830 -0.0017210350 0 0
-0.0058763760 -0.0013032610 0 0
-0.0053421450 -0.0004980040 0 0
-0.0046708350 0.0006181890 0 0
-0.0039199500 0.0019437450 0 0
-0.0031608270 0.0033591760 0 0
-0.0024700810 0.0047364020 0 0
-0.0019203030 0.0059503620 0 0
-0.0015713360 0.0068914180 0 0
-0.0014625430 0.0074766600 0 0
-0.0016072530 0.0076585120 0 0
-0.0019895520 0.0074295480 0 0
-0.0025625400 0.0068235260 0 0
-0.0032509560 0.0059134320 0 0
-0.0039633020 0.0048065500 0 0
-0.0046106710 0.0036354490 0 0
-0.0051216090 0.0025447720 0 0
-0.0054479260 0.0016762710 0 0
-0.0055664080 0.0011542430 0 0
-0.0054805710 0.0010708060 0 0
-0.0052199270 0.0014712230 0 0
-0.0048331710 0.0023433560 0 0
-0.0043770050 0.0036155940 0 0
-0.0039074020 0.0051638610 0 0
-0.0034777330 0.0068259410 0 0
-0.0031398760 0.0084208130 0 0
-0.0029418150 0.0097698800 0 0
-0.0029211880 0.0107167390 0 0
-0.0030991030 0.0111433420 0 0
-0.0034774170 0.0109817060 0 0
-0.0040390100 0.0102208880 0 0
-0.0047488090 0.0089087310 0 0
-0.0055550770 0.0071470290 0 0
-0.0063930260 0.0050792770 0 0
-0.0071916760 0.0028734600 0 0
-0.0078816660 0.0007045190 0 0
-0.0084017470 -0.0012608200 0 0
-0.0087042600 -0.0028771160 0 0
-0.0087606080 -0.0040317830 0 0
-0.0085664870 -0.0046542200 0 0
-0.0081451110 -0.0047208870 0 0
-0.0075453060 -0.0042562850 0 0
-0.0068329460 -0.0033314010 0 0
-0.0060791050 -0.0020595610 0 0
-0.0053506920 -0.0005870820 0 0
-0.0047055590 0.0009225250 0 0
-0.0041890890 0.0023080120 0 0
-0.0038309460 0.0034283210 0 0
-0.0036450560 0.0041750110 0 0
-0.0036331060 0.0044782720 0 0
-0.0037871730 0.0043084590 0 0
-0.0040893780 0.0036758990 0 0
-0.0045110410 0.0026307730 0 0
-0.0050141700 0.0012630730 0 0
-0.0055556830 -0.0002995290 0 0
-0.0060918090 -0.0018996080 0 0
-0.0065795850 -0.0033657390 0 0
-0.0069757030 -0.0045334780 0 0
-0.0072363650 -0.0052660270 0 0
-0.0073215040 -0.0054700920 0 0
-0.0072028260 -0.0051050420 0 0
-0.0068713190 -0.0041857190 0 0
-0.0063408580 -0.0027803000 0 0
-0.0056487800 -0.0010038290 0 0
-0.0048557920 0.0009922290 0 0
-0.0040439320 0.0030333550 0 0
-0.0033073430 0.0049375970 0 0
-0.0027330450 0.0065330510 0 0
-0.0023788200 0.0076748410 0 0
-0.0022627600 0.0082581610 0 0
-0.0023716810 0.0082268240 0 0
-0.0026781490 0.0075793140 0 0
-0.0031495950 0.0063719820 0 0
-0.0037444840 0.0047163790 0 0
-0.0044037630 0.0027691840 0 0
-0.0050484570 0.0007157670 0 0
-0.0055884580 -0.0012503560 0 0
-0.0059394520 -0.0029487900 0 0
-0.0060400860 -0.0042304710 0 0
-0.0058620380 -0.0049905800 0 0
-0.0054101960 -0.0051757660 0 0
-0.0047159870 -0.0047861580 0 0
-0.0038294600 -0.0038728130 0 0
-0.0028135310 -0.0025312650 0 0
-0.0017403570 -0.0008919850 0 0
-0.0006880710 0.0008912510 0 0
0.0002644010 0.0026540200 0 0
0.0010453070 0.0042344300 0 0
0.0015983090 0.0054869060 0 0
0.0018873870 0.0062961600 0 0
0.0018985180 0.0065896720 0 0
0.0016408940 0.0063460140 0 0
0.0011482120 0.0055965330 0 0
0.0004780260 0.0044196530 0 0
-0.0002925440 0.0029295810 0 0
-0.0010749940 0.0012627930 0 0
-0.0017802090 -0.0004345370 0 0
-0.0023293820 -0.0020170030 0 0
-0.0026625890 -0.0033496280 0 0
-0.0027438650 -0.0043184430 0 0
-0.0025631450 -0.0048416610 0 0
-0.0021355310 -0.0048793750 0 0
-0.0014979260 -0.0044400220 0 0
-0.0007034790 -0.0035826630 0 0
0.0001848030 -0.0024137530 0 0
0.0010992560 -0.0010771160 0 0
0.0019707050 0.0002624200 0 0
0.0027311920 0.0014393460 0 0
0.0033181330 0.0023081930 0 0
0.0036803220 0.0027608260 0 0
0.0037861070 0.0027376710 0 0
0.0036326300 0.0022325390 0 0
0.0032516600 0.0012918840 0 0
0.0027085770 0.0000093497 0 0
0.0020957440 -0.0014836030 0 0
0.0015215780 -0.0030302450 0 0
0.0010932590 -0.0044632180 0 0
0.0008946350 -0.0056197520 0 0
0.0009689180 -0.0063569060 0 0
0.0013142910 -0.0065671370 0 0
0.0018911370 -0.0061930380 0 0
0.0026347550 -0.0052381910 0 0
0.0034685420 -0.0037714200 0 0
0.0043146700 -0.0019229070 0 0
0.0051005020 0.0001286060 0 0
0.0057598160 0.0021766850 0 0
0.0062309870 0.0040129620 0 0
0.0064575260 0.0054528990 0 0
0.0063945550 0.0063567570 0 0
0.0060192140 0.0066424830 0 0
0.0053390870 0.0062893550 0 0
0.0043932380 0.0053339040 0 0
0.0032457840 0.0038620210 0 0
0.0019769480 0.0020002790 0 0
0.0006759360 -0.0000937922 0 0
-0.0005644960 -0.0022441620 0 0
-0.0016546580 -0.0042718100 0 0
-0.0025171720 -0.0060115320 0 0
-0.0030968670 -0.0073269870 0 0
-0.0033680230 -0.0081211890 0 0
-0.0033370430 -0.0083420310 0 0
-0.0030400450 -0.0079852500 0 0
-0.0025357500 -0.0070969350 0 0
-0.0018960320 -0.0057734580 0 0
-0.0011973180 -0.0041544600 0 0
-0.0005133810 -0.0024080280 0 0
0.0000915373 -0.0007116110 0 0
0.0005674330 0.0007673810 0 0
0.0008781640 0.0018885920 0 0
0.0009983680 0.0025514930 0 0
0.0009138510 0.0027038090 0 0
0.0006273950 0.0023469180 0 0
0.0001652580 0.0015380270 0 0
-0.0004219070 0.0003862890 0 0
-0.0010655910 -0.0009594630 0 0
-0.0016902510 -0.0023297100 0 0
-0.0022238450 -0.0035548510 0 0
-0.0026057980 -0.0044832150 0 0
-0.0027923600 -0.0049961770 0 0
-0.0027600650 -0.0050210100 0 0
-0.0025080890 -0.0045395060 0 0
-0.0020590520 -0.0035895840 0 0
-0.0014563830 -0.0022595750 0 0
-0.0007577740 -0.0006768380 0 0
-0.0000268993 0.0010075010 0 0
0.0006734460 0.0026357890 0 0
0.0012851310 0.0040606280 0 0
0.0017575350 0.0051582110 0 0
0.0020531200 0.0058364600 0 0
0.0021550040 0.0060385290 0 0
0.0020713480 0.0057436520 0 0
0.0018337420 0.0049670200 0 0
0.0014921470 0.0037593350 0 0
0.0011097870 0.0022054170 0 0
0.0007587000 0.0004205760 0 0
0.0005145260 -0.0014561170 0 0
0.0004494010 -0.0032714940 0 0
0.0006241340 -0.0048707730 0 0
0.0010811230 -0.0061130990 0 0
0.0018368110 -0.0068887110 0 0
0.0028728930 -0.0071339010 0 0
0.0041306530 -0.0068398310 0 0
0.0055150590 -0.0060532460 0 0
0.0069093010 -0.0048694640 0 0
0.0081937070 -0.0034199930 0 0
0.0092624530 -0.0018580770 0 0
0.0100343020 -0.0003441520 0 0
0.0104563370 0.0009690270 0 0
0.0105028960 0.0019517460 0 0
0.0101737140 0.0025110960 0 0
0.0094935280 0.0025999480 0 0
0.0085122000 0.0022196370 0 0
0.0073028770 0.0014173070 0 0
0.0059570160 0.0002798240 0 0
0.0045773960 -0.0010744620 0 0
0.0032704330 -0.0025056320 0 0
0.0021379470 -0.0038640280 0 0
0.0012682470 -0.0050043990 0 0
0.0007271830 -0.0058016690 0 0
0.0005507070 -0.0061656020 0 0
0.0007411720 -0.0060505790 0 0
0.0012685050 -0.0054581790 0 0
0.0020743890 -0.0044336980 0 0
0.0030769390 -0.0030600030 0 0
0.0041762350 -0.0014511580 0 0
0.0052620170 0.0002544770 0 0
0.0062230330 0.0019037000 0 0
0.0069573500 0.0033419420 0 0
0.0073834490 0.0044298530 0 0
0.0074508030 0.0050600650 0 0
0.0071478280 0.0051708390 0 0
0.0065052530 0.0047542080 0 0
0.0055929810 0.0038568990 0 0
0.0045093050 0.0025733700 0 0
0.0033642840 0.0010326560 0 0
0.0022631280 -0.0006172100 0 0
0.0012962150 -0.0022238010 0 0
0.0005372570 -0.0036426770 0 0
0.0000444895 -0.0047481630 0 0
-0.0001423420 -0.0054432530 0 0
-0.0000124177 -0.0056685530 0 0
0.0004041610 -0.0054094690 0 0
0.0010339870 -0.0047000150 0 0
0.0017719540 -0.0036207750 0 0
0.0025008410 -0.0022898220 0 0
0.0031109780 -0.0008488550 0 0
0.0035146020 0.0005512910 0 0
0.0036512530 0.0017635280 0 0
0.0034852260 0.0026562310 0 0
0.0030017180 0.0031242970 0 0
0.0022070710 0.0030992390 0 0
0.0011325520 0.0025580670 0 0
-0.0001622230 0.0015304160 0 0
-0.0015902310 0.0001017430 0 0
-0.0030443820 -0.0015909340 0 0
-0.0044085750 -0.0033727520 0 0
-0.0055671880 -0.0050521190 0 0
-0.0064118310 -0.0064447710 0 0
-0.0068497170 -0.0073965900 0 0
-0.0068165980 -0.0078018540 0 0
-0.0062908500 -0.0076146170 0 0
-0.0053027310 -0.0068526790 0 0
-0.0039351890 -0.0055944110 0 0
-0.0023140750 -0.0039685960 0 0
-0.0005877880 -0.0021384520 0 0
0.0010972170 -0.0002829350 0 0
0.0026148730 0.0014214900 0 0
0.0038674380 0.0028170620 0 0
0.0047873650 0.0037783170 0 0
0.0053394960 0.0042225770 0 0
0.0055247350 0.0041169990 0 0
0.0053819960 0.0034815100 0 0
0.0049856150 0.0023862960 0 0
0.0044371960 0.0009430620 0 0
0.0038522720 -0.0007086850 0 0
0.0033442440 -0.0024172890 0 0
0.0030087840 -0.0040333000 0 0
0.0029106130 -0.0054204650 0 0
0.0030745430 -0.0064635320 0 0
0.0034842910 -0.0070747420 0 0
0.0040912990 -0.0072003300 0 0
0.0048307520 -0.0068270370 0 0
0.0056372960 -0.0059873230 0 0
0.0064537140 -0.0047598660 0 0
0.0072319230 -0.0032620300 0 0
0.0079316130 -0.0016355260 0 0
0.0085208700 -0.0000304809 0 0
0.0089764490 0.0014084450 0 0
0.0092802190 0.0025541260 0 0
0.0094155430 0.0033080980 0 0
0.0093704650 0.0036099350 0 0
0.0091468500 0.0034434060 0 0
0.0087677060 0.0028381430 0 0
0.0082778800 0.0018656120 0 0
0.0077395820 0.0006294970 0 0
0.0072261640 -0.0007467280 0 0
0.0068164230 -0.0021310320 0 0
0.0065886090 -0.0033915390 0 0
0.0066096800 -0.0044054620 0 0
0.0069178900 -0.0050707680 0 0
0.0075061870 -0.0053189600 0 0
0.0083175280 -0.0051254330 0 0
0.0092555030 -0.0045153390 0 0
0.0102049650 -0.0035635490 0 0
0.0110550750 -0.0023873370 0 0
0.0117175720 -0.0011322650 0 0
0.0121355350 0.0000458366 0 0
0.0122833750 0.0009995910 0 0
0.0121609570 0.0016076940 0 0
0.0117833110 0.0017901540 0 0
0.0111701750 0.0015189170 0 0
0.0103421790 0.0008209800 0 0
0.0093244760 -0.0002274440 0 0
0.0081523270 -0.0015137980 0 0
0.0068746800 -0.0029045800 0 0
0.0055548900 -0.0042594100 0 0
0.0042671890 -0.0054429590 0 0
0.0030876150 -0.0063361960 0 0
0.0020820420 -0.0068473470 0 0
0.0012964360 -0.0069206070 0 0
0.0007517570 -0.0065401690 0 0
0.0004426110 -0.0057292010 0 0
0.0003391410 -0.0045465030 0 0
0.0003931910 -0.0030832160 0 0
0.0005479310 -0.0014578340 0 0
0.0007469400 0.0001930830 0 0
0.0009390200 0.0017277040 0 0
0.0010784900 0.0030125500 0 0
0.0011242860 0.0039351500 0 0
0.0010417450 0.0044151010 0 0
0.0008075660 0.0044129000 0 0
0.0004156460 0.0039349610 0 0
-0.0001179260 0.0030329900 0 0
-0.0007524070 0.0017977470 0 0
-0.0014250840 0.0003494780 0 0
-0.0020594850 -0.0011724250 0 0
-0.0025764000 -0.0026201880 0 0
-0.0029055070 -0.0038503710 0 0
-0.0029966500 -0.0047385150 0 0
-0.0028284140 -0.0051927770 0 0
-0.0024109980 -0.0051632250 0 0
-0.0017827800 -0.0046456730 0 0
-0.0010027300 -0.0036808870 0 0
-0.0001415250 -0.0023500530 0 0
0.0007270700 -0.0007667310 0 0
0.0015343560 0.0009340720 0 0
0.0022236040 0.0026082140 0 0
0.0027536630 0.0041144940 0 0
0.0030985460 0.0053256330 0 0
0.0032453660 0.0061389390 0 0
0.0031935780 0.0064875440 0 0
0.0029559060 0.0063505060 0 0
0.0025597710 0.0057578210 0 0
0.0020493070 0.0047876200 0 0
0.0014873210 0.0035559500 0 0
0.0009520840 0.0022020570 0 0
0.0005246550 0.0008727870 0 0
0.0002725750 -0.0002918710 0 0
0.0002419660 -0.0011720690 0 0
0.0004609500 -0.0016800660 0 0
0.0009432430 -0.0017693140 0 0
0.0016808830 -0.0014390720 0 0
0.0026302310 -0.0007342090 0 0
0.0037057870 0.0002595950 0 0
0.0047896420 0.0014253500 0 0
0.0057521860 0.0026290520 0 0
0.0064750910 0.0037369910 0 0
0.0068695960 0.0046316870 0 0
0.0068868910 0.0052222480 0 0
0.0065203200 0.0054487660 0 0
0.0058003110 0.0052837900 0 0
0.0047849620 0.0047339380 0 0
0.0035514490 0.0038419120 0 0
0.0021907590 0.0026862230 0 0
0.0008026900 0.0013758990 0 0
-0.0005122270 0.0000399805 0 0
-0.0016628770 -0.0011860730 0 0
-0.0025763600 -0.0021743020 0 0
-0.0032030590 -0.0028163140 0 0
-0.0035175530 -0.0030327880 0 0
-0.0035163140 -0.0027805830 0 0
-0.0032143750 -0.0020574650 0 0
-0.0026435030 -0.0009044100 0 0
-0.0018526840 0.0005951020 0 0
-0.0009089290 0.0023202320 0 0
0.0001046570 0.0041233470 0 0
0.0010952080 0.0058453130 0 0
0.0019696970 0.0073328250 0 0
0.0026453570 0.0084539940 0 0
0.0030602660 0.0091100080 0 0
0.0031838920 0.0092435480 0 0
0.0030235390 0.0088448400 0 0
0.0026214460 0.0079538800 0 0
0.0020437330 0.0066567340 0 0
0.0013686860 0.0050764570 0 0
0.0006798240 0.0033620260 0 0
0.0000620851 0.0016770730 0 0
-0.0004043500 0.0001864830 0 0
-0.0006551410 -0.0009603280 0 0
-0.0006541580 -0.0016466080 0 0
-0.0004008650 -0.0018018570 0 0
0.0000705184 -0.0014095800 0 0
0.0006982940 -0.0005089320 0 0
0.0014032130 0.0008092360 0 0
0.0020985840 0.0024117120 0 0
0.0026997900 0.0041372560 0 0
0.0031338580 0.0058140500 0 0
0.0033501140 0.0072772950 0 0
0.0033296250 0.0083849320 0 0
0.0030879670 0.0090311790 0 0
0.0026694190 0.0091575780 0 0
0.0021363350 0.0087597870 0 0
0.0015579100 0.0078882720 0 0
0.0009999310 0.0066429940 0 0
0.0005168990 0.0051631570 0 0
0.0001492500 0.0036126620 0 0
-0.0000743853 0.0021623470 0 0
-0.0001352670 0.0009717950 0 0
-0.0000272815 0.0001734470 0 0
0.0002389240 -0.0001401330 0 0
0.0006365000 0.0000742384 0 0
0.0011280100 0.0008051760 0 0
0.0016713940 0.0019874220 0 0
0.0022231950 0.0035087330 0 0
0.0027408530 0.0052216350 0 0
0.0031876500 0.0069586850 0 0
0.0035407140 0.0085507080 0 0
0.0037969640 0.0098459370 0 0
0.0039702390 0.0107255730 0 0
0.0040796360 0.0111126200 0 0
0.0041375100 0.0109749640 0 0
0.0041451660 0.0103256880 0 0
0.0040968960 0.0092218970 0 0
0.0039878510 0.0077609290 0 0
0.0038211990 0.0060726030 0 0
0.0036124110 0.0043077310 0 0
0.0033901210 0.0026240500 0 0
0.0031934380 0.0011704900 0 0
0.0030664030 0.0000713537 0 0
0.0030511960 -0.0005867970 0 0
0.0031809920 -0.0007630010 0 0
0.0034727800 -0.0004641050 0 0
0.0039217890 0.0002575830 0 0
0.0045002660 0.0013105410 0 0
0.0051615710 0.0025741180 0 0
0.0058472990 0.0039117530 0 0
0.0064940560 0.0051855390 0 0
0.0070389860 0.0062700830 0 0
0.0074261970 0.0070641520 0 0
0.0076149260 0.0074994250 0 0
0.0075864550 0.0075462500 0 0
0.0073470040 0.0072159970 0 0
0.0069270500 0.0065593390 0 0
0.0063775150 0.0056607680 0 0
0.0057619440 0.0046302600 0 0
0.0051461130 0.0035924470 0 0
0.0045891590 0.0026737510 0 0
0.0041385670 0.0019893530 0 0
0.0038279490 0.0016322920 0 0
0.0036759530 0.0016655410 0 0
0.0036865060 0.0021159930 0 0
0.0038513280 0.0029697190 0 0
0.0041536650 0.0041702240 0 0
0.0045701350 0.0056217150 0 0
0.0050689340 0.0071978790 0 0
0.0056060230 0.0087553440 0 0
0.0061236850 0.0101498480 0 0
0.0065554930 0.0112521730 0 0
0.0068374830 0.0119609690 0 0
0.0069212420 0.0122111670 0 0
0.0067847840 0.0119786070 0 0
0.0064388330 0.0112820940 0 0
0.0059259640 0.0101827550 0 0
0.0053112720 0.0087790650 0 0
0.0046680810 0.0071968270 0 0
0.0040654610 0.0055757740 0 0
0.0035611930 0.0040553320 0 0
0.0031981960 0.0027616680 0 0
0.0030019830 0.0017975930 0 0
0.0029804080 0.0012355430 0 0
0.0031263000 0.0011126460 0 0
0.0034196410 0.0014277560 0 0
0.0038275680 0.0021416500 0 0
0.0043054220 0.0031813810 0 0
0.0048013190 0.0044485440 0 0
0.0052621450 0.0058297570 0 0
0.0056386140 0.0072069000 0 0
0.0058897410 0.0084656600 0 0
0.0059873320 0.0095027870 0 0
0.0059197340 0.0102329830 0 0
0.0056935470 0.0105954520 0 0
0.0053320190 0.0105598380 0 0
0.0048692690 0.0101316970 0 0
0.0043412350 0.0093563410 0 0
0.0037774490 0.0083181790 0 0
0.0031986680 0.0071335280 0 0
0.0026208440 0.0059375150 0 0
0.0020601920 0.0048677300 0 0
0.0015340570 0.0040472920 0 0
0.0010572890 0.0035693980 0 0
0.0006374520 0.0034857520 0 0
0.0002718890 0.0038015930 0 0
-0.0000516034 0.0044785440 0 0
-0.0003489040 0.0054439670 0 0
-0.0006288160 0.0066036210 0 0
-0.0008818860 0.0078541990 0 0
-0.0010765560 0.0090934690 0 0
-0.0011692520 0.0102269530 0 0
-0.0011264190 0.0111712840 0 0
-0.0009454950 0.0118562800 0 0
-0.0006616250 0.0122284150 0 0
-0.0003387600 0.0122566060 0 0
-0.0000520638 0.0119390080 0 0
0.0001326780 0.0113083140 0 0
0.0001774530 0.0104328720 0 0
0.0000812739 0.0094120880 0 0
-0.0001226910 0.0083666880 0 0
-0.0003783980 0.0074253930 0 0
-0.0006212600 0.0067100280 0 0
-0.0007917690 0.0063215620 0 0
-0.0008458090 0.0063284600 0 0
-0.0007604630 0.0067573610 0 0
-0.0005353980 0.0075872010 0 0
-0.0001905270 0.0087492810 0 0
0.0002380510 0.0101343020 0 0
0.0007020890 0.0116048310 0 0
0.0011458230 0.0130108050 0 0
0.0015115700 0.0142061140 0 0
0.0017450390 0.0150647220 0 0
0.0018001090 0.0154943630 0 0
0.0016444410 0.0154454560 0 0
0.0012656310 0.0149140610 0 0
0.0006748160 0.0139402320 0 0
-0.0000949056 0.0126044110 0 0
-0.0009939340 0.0110227870 0 0
-0.0019622240 0.0093400850 0 0
-0.0029349510 0.0077180480 0 0
-0.0038482120 0.0063192400 0 0
-0.0046440860 0.0052877590 0 0
-0.0052754230 0.0047305590 0 0
-0.0057126310 0.0047035670 0 0
-0.0059516900 0.0052051430 0 0
-0.0060179730 0.0061772230 0 0
-0.0059618710 0.0075129550 0 0
-0.0058483650 0.0090690090 0 0
-0.0057458120 0.0106807750 0 0
-0.0057171710 0.0121790250 0 0
-0.0058139970 0.0134070030 0 0
-0.0060718220 0.0142366920 0 0
-0.0065052760 0.0145824490 0 0
-0.0071036050 0.0144100600 0 0
-0.0078297170 0.0137398000 0 0
-0.0086244320 0.0126434080 0 0
-0.0094138330 0.0112360500 0 0
-0.0101163120 0.0096639600 0 0
-0.0106480900 0.0080884200 0 0
-0.0109289140 0.0066680030 0 0
-0.0108909030 0.0055416870 0 0
-0.0104911920 0.0048145670 0 0
-0.0097237580 0.0045471780 0 0
-0.0086239880 0.0047493810 0 0
-0.0072640890 0.0053790050 0 0
-0.0057420880 0.0063448890 0 0
-0.0041684270 0.0075151220 0 0
-0.0026540000 0.0087318660 0 0
-0.0013014690 0.0098314710 0 0
-0.0001981040 0.0106647890 0 0
0.0005920760 0.0111124870 0 0
0.0010357990 0.0110945900 0 0
0.0011347590 0.0105771840 0 0
0.0009248830 0.0095766620 0 0
0.0004701110 0.0081579990 0 0
-0.0001490440 0.0064255490 0 0
-0.0008494500 0.0045098170 0 0
-0.0015564400 0.0025547330 0 0
-0.0022078350 0.0007072070 0 0
-0.0027527360 -0.0008921280 0 0
-0.0031509170 -0.0021188630 0 0
-0.0033756150 -0.0028756200 0 0
-0.0034179580 -0.0031017440 0 0
-0.0032898090 -0.0027795340 0 0
-0.0030222450 -0.0019357580 0 0
-0.0026596390 -0.0006384250 0 0
-0.0022528910 0.0010101400 0 0
-0.0018545090 0.0028820740 0 0
-0.0015150660 0.0048336240 0 0
-0.0012803890 0.0067161410 0 0
-0.0011898430 0.0083886560 0 0
-0.0012752130 0.0097306170 0 0
-0.0015590290 0.0106523220 0 0
-0.0020522380 0.0111014030 0 0
-0.0027523390 0.0110653750 0 0
-0.0036420710 0.0105709200 0 0
-0.0046873000 0.0096803920 0 0
-0.0058342860 0.0084861880 0 0
-0.0070097270 0.0071034720 0 0
-0.0081268980 0.0056611390 0 0
-0.0090972840 0.0042908390 0 0
-0.0098434570 0.0031143660 0 0
-0.0103090600 0.0022307200 0 0
-0.0104647760 0.0017050850 0 0
-0.0103117520 0.0015621140 0 0
-0.0098830390 0.0017847410 0 0
-0.0092412030 0.0023178590 0 0
-0.0084714670 0.0030747900 0 0
-0.0076722720 0.0039449930 0 0
-0.0069443420 0.0048032570 0 0
-0.0063784550 0.0055213790 0 0
-0.0060445580 0.0059818120 0 0
-0.0059856890 0.0060908110 0 0
-0.0062169410 0.0057888570 0 0
-0.0067267670 0.0050577390 0 0
-0.0074783010 0.0039240570 0 0
-0.0084102360 0.0024585140 0 0
-0.0094381130 0.0007708090 0 0
-0.0104573830 -0.0009992790 0 0
-0.0113503050 -0.0026942760 0 0
-0.0119994190 -0.0041549870 0 0
-0.0123076480 -0.0052387600 0 0
-0.0122188630 -0.0058364840 0 0
-0.0117293980 -0.0058846830 0 0
-0.0108862510 -0.0053714380 0 0
-0.0097761540 -0.0043372680 0 0
-0.0085116660 -0.0028721870 0 0
-0.0072169400 -0.0011083400 0 0
-0.0060135730 0.0007930170 0 0
-0.0050073220 0.0026588930 0 0
-0.0042777650 0.0043222960 0 0
-0.0038731420 0.0056371980 0 0
-0.0038100810 0.0064906450 0 0
-0.0040752850 0.0068125320 0 0
-0.0046267750 0.0065817980 0 0
-0.0053948720 0.0058278770 0 0
-0.0062858390 0.0046281850 0 0
-0.0071908190 0.0031028060 0 0
-0.0079987780 0.0014058100 0 0
-0.0086096760 -0.0002885200 0 0
-0.0089456210 -0.0018046490 0 0
-0.0089593620 -0.0029869740 0 0
-0.0086387740 -0.0037185590 0 0
-0.0080056060 -0.0039335710 0 0
-0.0071086360 -0.0036216570 0 0
-0.0060138570 -0.0028251250 0 0
-0.0047949460 -0.0016312050 0 0
-0.0035265500 -0.0001614280 0 0
-0.0022809290 0.0014409520 0 0
-0.0011255260 0.0030249100 0 0
-0.0001184360 0.0044457660 0 0
0.0006972230 0.0055778000 0 0
0.0012954640 0.0063241560 0 0
0.0016641070 0.0066236250 0 0
0.0017999550 0.0064550850 0 0
0.0017090400 0.0058405060 0 0
0.0014144220 0.0048459610 0 0
0.0009656370 0.0035792490 0 0
0.0004403840 0.0021821620 0 0
-0.0000646386 0.0008158890 0 0
-0.0004494550 -0.0003586130 0 0
-0.0006282370 -0.0012003960 0 0
-0.0005454200 -0.0016048350 0 0
-0.0001866820 -0.0015154740 0 0
0.0004191470 -0.0009307710 0 0
0.0012079690 0.0000954816 0 0
0.0020949780 0.0014610150 0 0
0.0029918970 0.0030283230 0 0
0.0038222070 0.0046413140 0 0
0.0045279700 0.0061418440 0 0
0.0050650270 0.0073838620 0 0
0.0053932950 0.0082450430 0 0
0.0054737090 0.0086372810 0 0
0.0052760600 0.0085161650 0 0
0.0047911690 0.0078875590 0 0
0.0040387260 0.0068091350 0 0
0.0030678790 0.0053856830 0 0
0.0019519560 0.0037583190 0 0
0.0007794150 0.0020894380 0 0
-0.0003557720 0.0005460110 0 0
-0.0013617530 -0.0007170130 0 0
-0.0021558250 -0.0015716660 0 0
-0.0026731270 -0.0019281330 0 0
-0.0028757360 -0.0017411290 0 0
-0.0027583600 -0.0010124880 0 0
-0.0023485420 0.0002084520 0 0
-0.0017035300 0.0018263650 0 0
-0.0009067930 0.0037048860 0 0
-0.0000624044 0.0056773480 0 0
0.0007165100 0.0075636500 0 0
0.0013250210 0.0091902070 0 0
0.0016844100 0.0104092080 0 0
0.0017546270 0.0111150460 0 0
0.0015368930 0.0112560430 0 0
0.0010665940 0.0108385900 0 0
0.0004009650 0.0099224060 0 0
-0.0003929030 0.0086095920 0 0
-0.0012467040 0.0070319960 0 0
-0.0020956000 0.0053398670 0 0
-0.0028794490 0.0036920810 0 0
-0.0035422630 0.0022462620 0 0
-0.0040325080 0.0011470390 0 0
-0.0043056280 0.0005123840 0 0
-0.0043280100 0.0004199950 0 0
-0.0040819300 0.0008970210 0 0
-0.0035719350 0.0019157590 0 0
-0.0028305860 0.0033958200 0 0
-0.0019192370 0.0052118650 0 0
-0.0009223600 0.0072057770 0 0
0.0000632400 0.0092021830 0 0
0.0009430690 0.0110262380 0 0
0.0016410560 0.0125224540 0 0
0.0021122330 0.0135727970 0 0
0.0023471940 0.0141109730 0 0
0.0023676110 0.0141288820 0 0
0.0022171430 0.0136734280 0 0
0.0019530310 0.0128359070 0 0
0.0016393080 0.0117386200 0 0
0.0013401490 0.0105226090 0 0
0.0011145770 0.0093373070 0 0
0.0010140500 0.0083301250 0 0
0.0010806950 0.0076339180 0 0
0.0013427270 0.0073524020 0 0
0.0018070190 0.0075459020 0 0
0.0024529620 0.0082209890 0 0
0.0032327610 0.0093268690 0 0
0.0040801840 0.0107597690 0 0
0.0049245650 0.0123751540 0 0
0.0057025980 0.0140058940 0 0
0.0063611000 0.0154825050 0 0
0.0068521320 0.0166514510 0 0
0.0071299310 0.0173894780 0 0
0.0071559010 0.0176140400 0 0
0.0069084470 0.0172899960 0 0
0.0063908760 0.0164319590 0 0
0.0056335010 0.0151018890 0 0
0.0046899460 0.0134025700 0 0
0.0036297910 0.0114680970 0 0
0.0025303000 0.0094525670 0 0
0.0014694870 0.0075178610 0 0
0.0005214620 0.0058211100 0 0
-0.0002473220 0.0045017570 0 0
-0.0007828750 0.0036679680 0 0
-0.0010495660 0.0033838820 0 0
-0.0010357000 0.0036606310 0 0
-0.0007578280 0.0044536280 0 0
-0.0002625440 0.0056669550 0 0
0.0003764080 0.0071635490 0 0
0.0010665400 0.0087788590 0 0
0.0017087690 0.0103363820 0 0
0.0022103430 0.0116641360 0 0
0.0024957330 0.0126111540 0 0
0.0025142220 0.0130634470 0 0
0.0022459080 0.0129582700 0 0
0.0017072950 0.0122938010 0 0
0.0009521300 0.0111308750 0 0
0.0000625428 0.0095852720 0 0
-0.0008669250 0.0078119460 0 0
-0.0017445930 0.0059849320 0 0
-0.0024909090 0.0042775670 0 0
-0.0030412910 0.0028465690 0 0
-0.0033462570 0.0018204080 0 0
-0.0033740020 0.0012897450 0 0
-0.0031166520 0.0012982870 0 0
-0.0025956780 0.0018359040 0 0
-0.0018621710 0.0028380340 0 0
-0.0009927830 0.0041935010 0 0
-0.0000836501 0.0057590980 0 0
0.0007586750 0.0073772990 0 0
0.0014309720 0.0088934650 0 0
0.0018495240 0.0101700360 0 0
0.0019631570 0.0110962920 0 0
0.0017589940 0.0115932850 0 0
0.0012612430 0.0116153800 0 0
0.0005253940 0.0111517080 0 0
-0.0003707030 0.0102296150 0 0
-0.0013364780 0.0089184120 0 0
-0.0022758470 0.0073293360 0 0
-0.0030940580 0.0056088420 0 0
-0.0037097610 0.0039250680 0 0
-0.0040709560 0.0024493740 0 0
-0.0041652570 0.0013363160 0 0
-0.0040179890 0.0007057470 0 0
-0.0036818590 0.0006291300 0 0
-0.0032253190 0.0011209280 0 0
-0.0027221000 0.0021360080 0 0
-0.0022425050 0.0035737320 0 0
-0.0018487400 0.0052882950 0 0
-0.0015942780 0.0071040590 0 0
-0.0015236150 0.0088342690 0 0
-0.0016701230 0.0103012100 0 0
-0.0020527630 0.0113553300 0 0
-0.0026723960 0.0118904080 0 0
-0.0035081490 0.0118526720 0 0
-0.0045155330 0.0112438140 0 0
-0.0056281090 0.0101190920 0 0
-0.0067626610 0.0085808910 0 0
-0.0078271170 0.0067676800 0 0
-0.0087312160 0.0048398780 0 0
-0.0093987260 0.0029653970 0 0
-0.0097774220 0.0013059230 0 0
-0.0098432520 0.0000031421 0 0
-0.0095985330 -0.0008350390 0 0
-0.0090671610 -0.0011460460 0 0
-0.0082898380 -0.0009189190 0 0
-0.0073203930 -0.0001936150 0 0
-0.0062233170 0.0009460300 0 0
-0.0050730030 0.0023832950 0 0
-0.0039535970 0.0039810780 0 0
-0.0029556920 0.0055941950 0 0
-0.0021666420 0.0070806410 0 0
-0.0016553840 0.0083117140 0 0
-0.0014571930 0.0091812940 0 0
-0.0015652520 0.0096145630 0 0
-0.0019327070 0.0095753550 0 0
-0.0024833910 0.0090702990 0 0
-0.0031261180 0.0081488520 0 0
-0.0037677290 0.0068999480 0 0
-0.0043228030 0.0054456830 0 0
-0.0047208280 0.0039317360 0 0
-0.0049123010 0.0025144580 0 0
-0.0048727070 0.0013448280 0 0
-0.0046018250 0.0005503110 0 0
-0.0041186760 0.0002175550 0 0
-0.0034556170 0.0003797570 0 0
-0.0026540120 0.0010111540 0 0
-0.0017609720 0.0020298320 0 0
-0.0008260500 0.0033096200 0 0
0.0001011740 0.0046991100 0 0
0.0009701590 0.0060421380 0 0
0.0017258340 0.0071949150 0 0
0.0023081970 0.0080391200 0 0
0.0026592510 0.0084920780 0 0
0.0027346540 0.0085139730 0 0
0.0025150420 0.0081108670 0 0
0.0020138960 0.0073324940 0 0
0.0012792830 0.0062652470 0 0
0.0003879320 0.0050220910 0 0
-0.0005659480 0.0037311580 0 0
-0.0014830360 0.0025239870 0 0
-0.0022705700 0.0015237810 0 0
-0.0028527690 0.0008339930 0 0
-0.0031786030 0.0005285980 0 0
-0.0032257380 0.0006461410 0 0
-0.0030005380 0.0011882350 0 0
-0.0025345460 0.0021208440 0 0
-0.0018791130 0.0033766850 0 0
-0.0011011450 0.0048589270 0 0
-0.0002813520 0.0064473410 0 0
0.0004880680 0.0080070240 0 0
0.0011113580 0.0093982260 0 0
0.0015031640 0.0104863070 0 0
0.0016034360 0.0111531910 0 0
0.0013887080 0.0113117900 0 0
0.0008776010 0.0109210720 0 0
0.0001279440 0.0099964540 0 0
-0.0007755030 0.0086118630 0 0
-0.0017388570 0.0068931850 0 0
-0.0026752450 0.0050043480 0 0
-0.0035134670 0.0031279510 0 0
-0.0041992160 0.0014439850 0 0
-0.0046940480 0.0001105980 0 0
-0.0049757210 -0.0007509310 0 0
-0.0050387120 -0.0010669700 0 0
-0.0048931430 -0.0008186860 0 0
-0.0045630490 -0.0000454221 0 0
-0.0040856950 0.0011569420 0 0
-0.0035113690 0.0026442970 0 0
-0.0029008800 0.0042400550 0 0
-0.0023189280 0.0057568120 0 0
-0.0018246260 0.0070202750 0 0
-0.0014629570 0.0078912060 0 0
-0.0012607040 0.0082814440 0 0
-0.0012268850 0.0081617060 0 0
-0.0013541830 0.0075613910 0 0
-0.0016188950 0.0065618760 0 0
-0.0019813880 0.0052846080 0 0
-0.0023905790 0.0038756990 0 0
-0.0027926620 0.0024898810 0 0
-0.0031402250 0.0012762170 0 0
-0.0033967230 0.0003659580 0 0
-0.0035347740 -0.0001382380 0 0
-0.0035324650 -0.0001719280 0 0
-0.0033731030 0.0002835300 0 0
-0.0030496910 0.0011970870 0 0
-0.0025714900 0.0024896820 0 0
-0.0019688150 0.0040424670 0 0
-0.0012929640 0.0057107880 0 0
-0.0006104290 0.0073411650 0 0
0.0000066181 0.0087878520 0 0
0.0004903660 0.0099266040 0 0
0.0007860000 0.0106650260 0 0
0.0008589070 0.0109497900 0 0
0.0007007220 0.0107704230 0 0
0.0003339840 0.0101582800 0 0
-0.0001846050 0.0091803610 0 0
-0.0007642130 0.0079301840 0 0
-0.0012892990 0.0065187240 0 0
-0.0016422970 0.0050667170 0 0
-0.0017320090 0.0036973340 0 0
-0.0015131950 0.0025282220 0 0
-0.0009907250 0.0016630990 0 0
-0.0002135480 0.0011835430 0 0
0.0007341440 0.0011413410 0 0
0.0017428460 0.0015521060 0 0
0.0026914270 0.0023915040 0 0
0.0034651570 0.0035954260 0 0
0.0039726710 0.0050641270 0 0
0.0041555980 0.0066694140 0 0
0.0039902760 0.0082645740 0 0
0.0034850880 0.0096971030 0 0
0.0026759660 0.0108230760 0 0
0.0016202700 0.0115215870 0 0
0.0003892300 0.0117083720 0 0
-0.0009395690 0.0113470740 0 0
-0.0022886250 0.0104552540 0 0
-0.0035861050 0.0091034920 0 0
-0.0047696430 0.0074089820 0 0
-0.0057863220 0.0055255400 0 0
-0.0065894570 0.0036296290 0 0
-0.0071362340 0.0019012360 0 0
-0.0073896420 0.0005010950 0 0
-0.0073247730 -0.0004507040 0 0
-0.0069369250 -0.0008891420 0 0
-0.0062481310 -0.0008090080 0 0
-0.0053095420 -0.0002604300 0 0
-0.0041985030 0.0006622300 0 0
-0.0030105410 0.0018346410 0 0
-0.0018480260 0.0031169680 0 0
-0.0008080580 0.0043671400 0 0
0.0000281652 0.0054522560 0 0
0.0006021770 0.0062581490 0 0
0.0008796820 0.0066982470 0 0
0.0008486680 0.0067221220 0 0
0.0005188810 0.0063214030 0 0
-0.0000762703 0.0055303980 0 0
-0.0008795440 0.0044221390 0 0
-0.0018150350 0.0031023770 0 0
-0.0027978910 0.0017015240 0 0
-0.0037438620 0.0003626780 0 0
-0.0045730300 -0.0007737570 0 0
-0.0052075300 -0.0015852510 0 0
-0.0055718770 -0.0019790780 0 0
-0.0056048410 -0.0019002800 0 0
-0.0052796550 -0.0013363680 0 0
-0.0046186630 -0.0003197680 0 0
-0.0036930830 0.0010723140 0 0
-0.0026111160 0.0027225270 0 0
-0.0015019690 0.0044840340 0 0
-0.0004988240 0.0061962740 0 0
0.0002788910 0.0077030970 0 0
0.0007415000 0.0088704260 0 0
0.0008400140 0.0096010170 0 0
0.0005710570 0.0098438330 0 0
-0.0000231712 0.0095964800 0 0
-0.0008602560 0.0089013600 0 0
-0.0018295910 0.0078382580 0 0
-0.0028087770 0.0065161390 0 0
-0.0036791320 0.0050649010 0 0
-0.0043385670 0.0036257630 0 0
-0.0047129700 0.0023396540 0 0
-0.0047639600 0.0013345550 0 0
-0.0044897330 0.0007128070 0 0
-0.0039199390 0.0005391950 0 0
-0.0031080000 0.0008318050 0 0
-0.0021236660 0.0015578460 0 0
-0.0010479480 0.0026353150 0 0
0.0000301567 0.0039408170 0 0
0.0010183760 0.0053236970 0 0
0.0018285190 0.0066251260 0 0
0.0023843800 0.0076987200 0 0
0.0026286300 0.0084284500 0 0
0.0025288110 0.0087404170 0 0
0.0020821790 0.0086074180 0 0
0.0013181060 0.0080474420 0 0
0.0002969680 0.0071178540 0 0
-0.0008952290 0.0059066320 0 0
-0.0021563670 0.0045219190 0 0
-0.0033797300 0.0030815230 0 0
-0.0044641980 0.0017039560 0 0
-0.0053215220 0.0005014310 0 0
-0.0058826900 -0.0004262460 0 0
-0.0061062840 -0.0009975560 0 0
-0.0059877750 -0.0011547300 0 0
-0.0055643640 -0.0008694790 0 0
-0.0049102800 -0.0001496260 0 0
-0.0041225640 0.0009551270 0 0
-0.0033028890 0.0023519400 0 0
-0.0025421860 0.0039110780 0 0
-0.0019118330 0.0054801680 0 0
-0.0014612790 0.0069037130 0 0
-0.0012192820 0.0080430370 0 0
-0.0011954510 0.0087924280 0 0
-0.0013809090 0.0090895840 0 0
-0.0017491570 0.0089200270 0 0
-0.0022583540 0.0083154430 0 0
-0.0028552380 0.0073465260 0 0
-0.0034803570 0.0061129030 0 0
-0.0040733930 0.0047333770 0 0
-0.0045765560 0.0033372860 0 0
-0.0049354010 0.0020552340 0 0
-0.0050988230 0.0010080440 0 0
-0.0050218590 0.0002949990 0 0
-0.0046749500 -0.0000166950 0 0
-0.0040584280 0.0001005500 0 0
-0.0032135510 0.0006313230 0 0
-0.0022204650 0.0015183210 0 0
-0.0011823160 0.0026679800 0 0
-0.0002048460 0.0039605120 0 0
0.0006182880 0.0052629900 0 0
0.0012122550 0.0064427890 0 0
0.0015241710 0.0073795740 0 0
0.0015259220 0.0079758790 0 0
0.0012171290 0.0081664900 0 0
0.0006276720 0.0079255230 0 0
-0.0001818740 0.0072698780 0 0
-0.0011247270 0.0062583410 0 0
-0.0020986280 0.0049857070 0 0
-0.0030006740 0.0035720070 0 0
-0.0037419430 0.0021488100 0 0
-0.0042576310 0.0008454300 0 0
-0.0045103110 -0.0002232290 0 0
-0.0044867840 -0.0009665090 0 0
-0.0041920680 -0.0013249900 0 0
-0.0036459080 -0.0012745870 0 0
-0.0028837810 -0.0008282350 0 0
-0.0019585780 -0.0000357862 0 0
-0.0009391070 0.0010177320 0 0
0.0000946860 0.0022166530 0 0
0.0010593180 0.0034241010 0 0
0.0018769990 0.0044966050 0 0
0.0024834010 0.0053009020 0 0
0.0028323530 0.0057289730 0 0
0.0028985040 0.0057096300 0 0
0.0026787970 0.0052168360 0 0
0.0021929310 0.0042741220 0 0
0.0014831310 0.0029534800 0 0
0.0006132190 0.0013686030 0 0
-0.0003336000 -0.0003356270 0 0
-0.0012597800 -0.0019956700 0 0
-0.0020630840 -0.0034437870 0 0
-0.0026502550 -0.0045247550 0 0
-0.0029514190 -0.0051131230 0 0
-0.0029317770 -0.0051271220 0 0
-0.0025973460 -0.0045368550 0 0
-0.0019925770 -0.0033677580 0 0
-0.0011913330 -0.0017008020 0 0
-0.0002857280 0.0003316460 0 0
0.0006245850 0.0025567890 0 0
0.0014435360 0.0047795060 0 0
0.0020899830 0.0068045830 0 0
0.0025059860 0.0084587380 0 0
0.0026593790 0.0096087540 0 0
0.0025420690 0.0101731100 0 0
0.0021674770 0.0101264320 0 0
0.0015681610 0.0094986420 0 0
0.0007927530 0.0083713370 0 0
-0.0000971255 0.0068718670 0 0
-0.0010292270 0.0051634800 0 0
-0.0019242650 0.0034302260 0 0
-0.0027031760 0.0018576950 0 0
-0.0032976660 0.0006124520 0 0
-0.0036603300 -0.0001766690 0 0
-0.0037695500 -0.0004323570 0 0
-0.0036277090 -0.0001353590 0 0
-0.0032564600 0.0006765510 0 0
-0.0026927070 0.0019149420 0 0
-0.0019842440 0.0034499350 0 0
-0.0011836570 0.0051219140 0 0
-0.0003442730 0.0067564540 0 0
0.0004774690 0.0081814320 0 0
0.0012166630 0.0092438590 0 0
0.0018005140 0.0098246890 0 0
0.0021583830 0.0098508550 0 0
0.0022356060 0.0093034210 0 0
0.0020039590 0.0082203350 0 0
0.0014672590 0.0066924810 0 0
0.0006638020 0.0048529220 0 0
-0.0003340700 0.0028614200 0 0
-0.0014247910 0.0008883860 0 0
-0.0024883590 -0.0008985780 0 0
-0.0034028530 -0.0023459460 0 0
-0.0040632990 -0.0033260160 0 0
-0.0043976580 -0.0037503250 0 0
-0.0043756950 -0.0035823910 0 0
-0.0040096080 -0.0028453280 0 0
-0.0033478960 -0.0016209790 0 0
-0.0024654090 -0.0000403748 0 0
-0.0014532700 0.0017318710 0 0
-0.0004111490 0.0035158860 0 0
0.0005587810 0.0051354800 0 0
0.0013587190 0.0064362020 0 0
0.0019048850 0.0073000750 0 0
0.0021392500 0.0076547650 0 0
0.0020393020 0.0074775340 0 0
0.0016213080 0.0067956010 0 0
0.0009364790 0.0056832690 0 0
0.0000633105 0.0042555650 0 0
-0.0009009970 0.0026588840 0 0
-0.0018501280 0.0010587960 0 0
-0.0026807480 -0.0003756440 0 0
-0.0033062470 -0.0014905220 0 0
-0.0036680620 -0.0021655700 0 0
-0.0037411800 -0.0023282800 0 0
-0.0035343570 -0.0019607400 0 0
-0.0030870120 -0.0010992440 0 0
-0.0024625480 0.0001713580 0 0
-0.0017380130 0.0017268580 0 0
-0.0009936580 0.0034157270 0 0
-0.0003056430 0.0050736000 0 0
0.0002589960 0.0065391160 0 0
0.0006469750 0.0076697750 0 0
0.0008227030 0.0083567820 0 0
0.0007708870 0.0085372080 0 0
0.0004978090 0.0082004500 0 0
0.0000298108 0.0073869840 0 0
-0.0005925910 0.0061813080 0 0
-0.0013217290 0.0047033320 0 0
-0.0021055170 0.0030995640 0 0
-0.0028865410 0.0015314210 0 0
-0.0036026650 0.0001588290 0 0
-0.0041909760 -0.0008785250 0 0
-0.0045930910 -0.0014778520 0 0
-0.0047608910 -0.0015846190 0 0
-0.0046640600 -0.0011977110 0 0
-0.0042992220 -0.0003691070 0 0
-0.0036957690 0.0008014230 0 0
-0.0029132950 0.0021776800 0 0
-0.0020317840 0.0036046860 0 0
-0.0011393510 0.0049288180 0 0
-0.0003202860 0.0060145870 0 0
0.0003548690 0.0067551150 0 0
0.0008352500 0.0070778600 0 0
0.0010918650 0.0069484590 0 0
0.0011185860 0.0063730980 0 0
0.0009330400 0.0053978500 0 0
0.0005756670 0.0041046130 0 0
0.0001050460 0.0026041710 0 0
-0.0004093710 0.0010260490 0 0
-0.0008951200 -0.0004942870 0 0
-0.0012851790 -0.0018280200 0 0
-0.0015267380 -0.0028632020 0 0
-0.0015882160 -0.0035128250 0 0
-0.0014627590 -0.0037212670 0 0
-0.0011674990 -0.0034688180 0 0
-0.0007387820 -0.0027740350 0 0
-0.0002253980 -0.0016941020 0 0
0.0003174930 -0.0003229860 0 0
0.0008323230 0.0012139890 0 0
0.0012610590 0.0027704300 0 0
0.0015470240 0.0041933760 0 0
0.0016388100 0.0053397720 0 0
0.0014960000 0.0060923550 0 0
0.0010945100 0.0063726150 0 0
0.0004299030 0.0061492350 0 0
-0.0004806020 0.0054418180 0 0
-0.0015960810 0.0043206910 0 0
-0.0028510530 0.0029024860 0 0
-0.0041585280 0.0013393110 0 0
-0.0054181550 -0.0001994390 0 0
-0.0065285420 -0.0015491220 0 0
-0.0074011940 -0.0025696860 0 0
-0.0079734770 -0.0031595280 0 0
-0.0082178150 -0.0032634890 0 0
-0.0081436700 -0.0028765940 0 0
-0.0077916930 -0.0020442120 0 0
-0.0072240850 -0.0008579990 0 0
-0.0065154170 0.0005532620 0 0
-0.0057452320 0.0020378640 0 0
-0.0049921130 0.0034388590 0 0
-0.0043282310 0.0046127370 0 0
-0.0038124620 0.0054464430 0 0
-0.0034811110 0.0058699320 0 0
-0.0033400740 0.0058614880 0 0
-0.0033661820 0.0054445300 0 0
-0.0035208830 0.0046776030 0 0
-0.0037673070 0.0036418140 0 0
-0.0040770970 0.0024302860 0 0
-0.0044242210 0.0011417860 0 0
-0.0047758230 -0.0001228410 0 0
-0.0050906400 -0.0012642980 0 0
-0.0053268230 -0.0021898630 0 0
-0.0054533480 -0.0028193420 0 0
-0.0054575250 -0.0030912720 0 0
-0.0053455370 -0.0029694510 0 0
-0.0051388080 -0.0024495970 0 0
-0.0048700180 -0.0015645230 0 0
-0.0045796920 -0.0003854460 0 0
-0.0043126830 0.0009824820 0 0
-0.0041140610 0.0024105330 0 0
-0.0040244340 0.0037601870 0 0
-0.0040754650 0.0048969160 0 0
-0.0042863140 0.0057022730 0 0
-0.0046610580 0.0060848230 0 0
-0.0051865650 0.0059907720 0 0
-0.0058304070 0.0054133900 0 0
-0.0065398220 0.0043983320 0 0
-0.0072439840 0.0030414150 0 0
-0.0078607560 0.0014773170 0 0
-0.0083068480 -0.0001388380 0 0
-0.0085087710 -0.0016515070 0 0
-0.0084121340 -0.0029207300 0 0
-0.0079886690 -0.0038332710 0 0
-0.0072415220 -0.0043115240 0 0
-0.0062073560 -0.0043207910 0 0
-0.0049527530 -0.0038732190 0 0
-0.0035660490 -0.0030276020 0 0
-0.0021483290 -0.0018850500 0 0
-0.0008043000 -0.0005801060 0 0
0.0003683540 0.0007327960 0 0
0.0012897200 0.0018962400 0 0
0.0019050750 0.0027676800 0 0
0.0021881350 0.0032356060 0 0
0.0021419290 0.0032317420 0 0
0.0017982610 0.0027379210 0 0
0.0012140010 0.0017872880 0 0
0.0004618570 0.0004598060 0 0
-0.0003822870 -0.0011277090 0 0
-0.0012487620 -0.0028355300 0 0
-0.0020767190 -0.0045157120 0 0
-0.0028137500 -0.0060240620 0 0
-0.0034171980 -0.0072287860 0 0
-0.0038573230 -0.0080187780 0 0
-0.0041201590 -0.0083142750 0 0
-0.0042083490 -0.0080793300 0 0
-0.0041391210 -0.0073324680 0 0
-0.0039394460 -0.0061505870 0 0
-0.0036391480 -0.0046625830 0 0
-0.0032644560 -0.0030335090 0 0
-0.0028369560 -0.0014436760 0 0
-0.0023805970 -0.0000674798 0 0
-0.0019315530 0.0009446480 0 0
-0.0015412560 0.0014793200 0 0
-0.0012682000 0.0014681810 0 0
-0.0011628460 0.0008919540 0 0
-0.0012538650 -0.0002185200 0 0
-0.0015415210 -0.0017841980 0 0
-0.0019987410 -0.0036832780 0 0
-0.0025766730 -0.0057606680 0 0
-0.0032117310 -0.0078413130 0 0
-0.0038338890 -0.0097461910 0 0
-0.0043769740 -0.0113094120 0 0
-0.0047891330 -0.0123947600 0 0
-0.0050395770 -0.0129099500 0 0
-0.0051194050 -0.0128167540 0 0
-0.0050377650 -0.0121351380 0 0
-0.0048172450 -0.0109403770 0 0
-0.0044919540 -0.0093538270 0 0
-0.0041078860 -0.0075292090 0 0
-0.0037214850 -0.0056366680 0 0
-0.0033927880 -0.0038469450 0 0
-0.0031739340 -0.0023168030 0 0
-0.0030987920 -0.0011750430 0 0
-0.0031792590 -0.0005088290 0 0
-0.0034079500 -0.0003526010 0 0
-0.0037631100 -0.0006834650 0 0
-0.0042124260 -0.0014251830 0 0
-0.0047142150 -0.0024592410 0 0
-0.0052168190 -0.0036393840 0 0
-0.0056594880 -0.0048070530 0 0
-0.0059773090 -0.0058068180 0 0
-0.0061091170 -0.0065009420 0 0
-0.0060059070 -0.0067824110 0 0
-0.0056392780 -0.0065863520 0 0
-0.0050102080 -0.0058989600 0 0
-0.0041561800 -0.0047616150 0 0
-0.0031528590 -0.0032681120 0 0
-0.0021072860 -0.0015548880 0 0
-0.0011421380 0.0002140660 0 0
-0.0003743960 0.0018649290 0 0
0.0001050890 0.0032320670 0 0
0.0002454570 0.0041753320 0 0
0.0000417189 0.0045957150 0 0
-0.0004661190 0.0044469640 0 0
-0.0011999150 0.0037407200 0 0
-0.0020552590 0.0025446780 0 0
-0.0029167820 0.0009745900 0 0
-0.0036747800 -0.0008188660 0 0
-0.0042393370 -0.0026668850 0 0
-0.0045481510 -0.0044005500 0 0
-0.0045682580 -0.0058670160 0 0
-0.0042950680 -0.0069416970 0 0
-0.0037505090 -0.0075360210 0 0
-0.0029789980 -0.0076019160 0 0
-0.0020408280 -0.0071344650 0 0
-0.0010053200 -0.0061732990 0 0
0.0000548121 -0.0048019460 0 0
0.0010683830 -0.0031436230 0 0
0.0019693240 -0.0013518390 0 0
0.0026975960 0.0004044180 0 0
0.0031990330 0.0019587900 0 0
0.0034281360 0.0031660920 0 0
0.0033549870 0.0039188530 0 0
0.0029721690 0.0041590880 0 0
0.0022973060 0.0038828520 0 0
0.0013718920 0.0031371480 0 0
0.0002597110 0.0020110510 0 0
-0.0009545030 0.0006239510 0 0
-0.0021684480 -0.0008864660 0 0
-0.0032701820 -0.0023753720 0 0
-0.0041523590 -0.0037015890 0 0
-0.0047321250 -0.0047387610 0 0
-0.0049705590 -0.0053867320 0 0
-0.0048822670 -0.0055818880 0 0
-0.0045299850 -0.0053044770 0 0
-0.0040075030 -0.0045815220 0 0
-0.0034195730 -0.0034852560 0 0
-0.0028655420 -0.0021271370 0 0
-0.0024276100 -0.0006471990 0 0
-0.0021623420 0.0008005740 0 0
-0.0020968930 0.0020650260 0 0
-0.0022320350 0.0030142050 0 0
-0.0025497060 0.0035488120 0 0
-0.0030204520 0.0036116170 0 0
-0.0036087950 0.0031932130 0 0
-0.0042764400 0.0023338680 0 0
-0.0049824470 0.0011200490 0 0
-0.0056805400 -0.0003249420 0 0
-0.0063167720 -0.0018547850 0 0
-0.0068310870 -0.0033161080 0 0
-0.0071632650 -0.0045645590 0 0
-0.0072619850 -0.0054792840 0 0
-0.0070957430 -0.0059741240 0 0
-0.0066629070 -0.0060041480 0 0
-0.0059966410 -0.0055673500 0 0
-0.0051618530 -0.0047027710 0 0
-0.0042442370 -0.0034865180 0 0
-0.0033340770 -0.0020260400 0 0
-0.0025101300 -0.0004524300 0 0
-0.0018293370 0.0010893850 0 0
-0.0013245270 0.0024529220 0 0
-0.0010081610 0.0035049410 0 0
-0.0008784720 0.0041411460 0 0
-0.0009245850 0.0042999350 0 0
-0.0011287560 0.0039706760 0 0
-0.0014658360 0.0031937350 0 0
-0.0019017520 0.0020530310 0 0
-0.0023936370 0.0006650410 0 0
-0.0028929670 -0.0008327500 0 0
-0.0033504000 -0.0022934620 0 0
-0.0037198230 -0.0035731860 0 0
-0.0039608530 -0.0045446240 0 0
-0.0040417390 -0.0051108260 0 0
-0.0039439270 -0.0052162940 0 0
-0.0036658780 -0.0048536290 0 0
-0.0032237210 -0.0040651620 0 0
-0.0026507000 -0.0029389130 0 0
-0.0019984850 -0.0015987480 0 0
-0.0013382970 -0.0001904970 0 0
-0.0007556470 0.0011332600 0 0
-0.0003358670 0.0022282190 0 0
-0.0001443780 0.0029728580 0 0
-0.0002098220 0.0032816190 0 0
-0.0005190860 0.0031146310 0 0
-0.0010283580 0.0024813960 0 0
-0.0016827080 0.0014375420 0 0
-0.0024303810 0.0000762696 0 0
-0.0032259560 -0.0014828840 0 0
-0.0040269490 -0.0031057980 0 0
-0.0047898010 -0.0046543390 0 0
-0.0054686960 -0.0059953530 0 0
-0.0060185980 -0.0070095630 0 0
-0.0064012270 -0.0076016520 0 0
-0.0065914580 -0.0077104970 0 0
-0.0065826360 -0.0073167600 0 0
-0.0063900820 -0.0064457310 0 0
-0.0060519430 -0.0051655320 0 0
-0.0056262870 -0.0035821500 0 0
-0.0051840270 -0.0018319520 0 0
-0.0047992890 -0.0000709991 0 0
-0.0045399360 0.0015392730 0 0
-0.0044596280 0.0028485400 0 0
-0.0045913670 0.0037329910 0 0
-0.0049431680 0.0041068960 0 0
-0.0054981210 0.0039300410 0 0
-0.0062193370 0.0032125620 0 0
-0.0070556060 0.0020176290 0 0
-0.0079434250 0.0004596150 0 0
-0.0088066850 -0.0013054750 0 0
-0.0095592470 -0.0030973110 0 0
-0.0101137930 -0.0047326240 0 0
-0.0103956460 -0.0060466410 0 0
-0.0103567250 -0.0069116180 0 0
-0.0099846950 -0.0072497290 0 0
-0.0093051820 -0.0070387680 0 0
-0.0083778280 -0.0063114670 0 0
-0.0072886070 -0.0051501440 0 0
-0.0061409750 -0.0036775780 0 0
-0.0050464790 -0.0020446120 0 0
-0.0041131520 -0.0004152640 0 0
-0.0034315730 0.0010494060 0 0
-0.0030621530 0.0022071680 0 0
-0.0030278990 0.0029482810 0 0
-0.0033139380 0.0032051200 0 0
-0.0038725410 0.0029572250 0 0
-0.0046323100 0.0022322300 0 0
-0.0055102500 0.0011028600 0 0
-0.0064237520 -0.0003199540 0 0
-0.0072989980 -0.0018971020 0 0
-0.0080746550 -0.0034733960 0 0
-0.0087020450 -0.0048908140 0 0
-0.0091432610 -0.0060022410 0 0
-0.0093689060 -0.0066853230 0 0
-0.0093576610 -0.0068553710 0 0
-0.0090984720 -0.0064750830 0 0
-0.0085930330 -0.0055595200 0 0
-0.0078552440 -0.0041763650 0 0
-0.0069076100 -0.0024415940 0 0
-0.0057797290 -0.0005104590 0 0
-0.0045141210 0.0014359030 0 0
-0.0031761560 0.0032073250 0 0
-0.0018573950 0.0046236940 0 0
-0.0006660030 0.0055348200 0 0
0.0002920790 0.0058390530 0 0
0.0009328840 0.0054975390 0 0
0.0012087940 0.0045408230 0 0
0.0011150920 0.0030659220 0 0
0.0006891710 0.0012240010 0 0
0.0000044851 -0.0007991430 0 0
-0.0008385480 -0.0028056280 0 0
-0.0017240240 -0.0046063910 0 0
-0.0025346350 -0.0060380410 0 0
-0.0031672480 -0.0069761020 0 0
-0.0035470340 -0.0073454970 0 0
-0.0036364500 -0.0071272690 0 0
-0.0034369510 -0.0063598860 0 0
-0.0029844550 -0.0051349670 0 0
-0.0023417520 -0.0035878450 0 0
-0.0015905670 -0.0018825790 0 0
-0.0008236990 -0.0001922210 0 0
-0.0001363810 0.0013215300 0 0
0.0003831150 0.0025242210 0 0
0.0006625420 0.0033177610 0 0
0.0006528480 0.0036437130 0 0
0.0003317910 0.0034831050 0 0
-0.0002958310 0.0028548770 0 0
-0.0011987820 0.0018138170 0 0
-0.0023197650 0.0004479550 0 0
-0.0035780560 -0.0011251950 0 0
-0.0048766230 -0.0027649720 0 0
-0.0061130000 -0.0043179270 0 0
-0.0071922110 -0.0056325560 0 0
-0.0080396620 -0.0065767580 0 0
-0.0086107690 -0.0070542340 0 0
-0.0088947280 -0.0070158560 0 0
-0.0089129880 -0.0064647180 0 0
-0.0087148480 -0.0054556260 0 0
-0.0083708760 -0.0040891170 0 0
-0.0079639980 -0.0025000340 0 0
-0.0075800250 -0.0008426480 0 0
-0.0072996840 0.0007248210 0 0
-0.0071917370 0.0020545970 0 0
-0.0073059550 0.0030221770 0 0
-0.0076667570 0.0035371140 0 0
-0.0082698540 0.0035507960 0 0
-0.0090818260 0.0030604810 0 0
-0.0100403110 0.0021099490 0 0
-0.0110562530 0.0007878010 0 0
-0.0120243580 -0.0007771470 0 0
-0.0128431880 -0.0024258980 0 0
-0.0134359280 -0.0039862180 0 0
-0.0137600530 -0.0052941300 0 0
-0.0138023700 -0.0062151360 0 0
-0.0135654160 -0.0066606930 0 0
-0.0130552270 -0.0065975990 0 0
-0.0122797730 -0.0060501470 0 0
-0.0112605210 -0.0050957590 0 0
-0.0100486150 -0.0038548620 0 0
-0.0087329280 -0.0024765060 0 0
-0.0074341410 -0.0011220840 0 0
-0.0062871350 0.0000510206 0 0
-0.0054173340 0.0009052090 0 0
-0.0049189390 0.0013367320 0 0
-0.0048427920 0.0012856820 0 0
-0.0051948470 0.0007404790 0 0
-0.0059388430 -0.0002624370 0 0
-0.0069986770 -0.0016424630 0 0
-0.0082633060 -0.0032816760 0 0
-0.0095985340 -0.0050342760 0 0
-0.0108656540 -0.0067385300 0 0
-0.0119430790 -0.0082315230 0 0
-0.0127452610 -0.0093660850 0 0
-0.0132328630 -0.0100274430 0 0
-0.0134106540 -0.0101465160 0 0
-0.0133148320 -0.0097078810 0 0
-0.0129968680 -0.0087515230 0 0
-0.0125116550 -0.0073680460 0 0
-0.0119125960 -0.0056882410 0 0
-0.0112509590 -0.0038690910 0 0
-0.0105765310 -0.0020783160 0 0
-0.0099385130 -0.0004786130 0 0
-0.0093856680 0.0007877260 0 0
-0.0089644110 0.0016126100 0 0
-0.0087144740 0.0019323920 0 0
-0.0086632550 0.0017331910 0 0
-0.0088209720 0.0010512870 0 0
-0.0091781780 -0.0000309740 0 0
-0.0097053890 -0.0013936310 0 0
-0.0103542250 -0.0028916620 0 0
-0.0110604680 -0.0043706280 0 0
-0.0117495660 -0.0056831010 0 0
-0.0123445440 -0.0067029270 0 0
-0.0127761170 -0.0073362510 0 0
-0.0129932840 -0.0075294980 0 0
-0.0129706550 -0.0072725890 0 0
-0.0127103080 -0.0065954020 0 0
-0.0122395790 -0.0055595830 0 0
-0.0116071680 -0.0042507100 0 0
-0.0108782860 -0.0027734350 0 0
-0.0101287280 -0.0012480780 0 0
-0.0094380830 0.0001946510 0 0
-0.0088824750 0.0014227590 0 0
-0.0085264280 0.0023154040 0 0
-0.0084138330 0.0027766150 0 0
-0.0085604550 0.0027485160 0 0
-0.0089509860 0.0022219610 0 0
-0.0095407960 0.0012414470 0 0
-0.0102605180 -0.0000981712 0 0
-0.0110225320 -0.0016628600 0 0
-0.0117294070 -0.0032959570 0 0
-0.0122836980 -0.0048367250 0 0
-0.0125970060 -0.0061375400 0 0
-0.0125972100 -0.0070775780 0 0
-0.0122366540 -0.0075726640 0 0
-0.0115038060 -0.0075814190 0 0
-0.0104336300 -0.0071073210 0 0
-0.0091078100 -0.0061963450 0 0
-0.0076426050 -0.0049307270 0 0
-0.0061703950 -0.0034207020 0 0
-0.0048214690 -0.0017962590 0 0
-0.0037083420 -0.0001988700 0 0
-0.0029134140 0.0012286370 0 0
-0.0024824150 0.0023549570 0 0
-0.0024260190 0.0030745170 0 0
-0.0027276010 0.0033201760 0 0
-0.0033508180 0.0030718530 0 0
-0.0042431150 0.0023598160 0 0
-0.0053377690 0.0012628070 0 0
-0.0065577070 -0.0000982731 0 0
-0.0078195500 -0.0015712950 0 0
-0.0090358580 -0.0029894680 0 0
-0.0101181930 -0.0041923040 0 0
-0.0109850500 -0.0050462790 0 0
-0.0115741850 -0.0054603610 0 0
-0.0118543150 -0.0053947150 0 0
-0.0118315970 -0.0048636570 0 0
-0.0115490490 -0.0039338220 0 0
-0.0110785410 -0.0027171690 0 0
-0.0105064650 -0.0013590570 0 0
-0.0099172460 -0.0000230204 0 0
-0.0093803800 0.0011261980 0 0
-0.0089440540 0.0019398100 0 0
-0.0086343320 0.0023006440 0 0
-0.0084569050 0.0021358820 0 0
-0.0083987980 0.0014255980 0 0
-0.0084305150 0.0002061590 0 0
-0.0085119370 -0.0014319890 0 0
-0.0086016670 -0.0033524360 0 0
-0.0086635390 -0.0053865240 0 0
-0.0086662810 -0.0073511940 0 0
-0.0085798590 -0.0090688840 0 0
-0.0083734900 -0.0103869680 0 0
-0.0080168440 -0.0111935290 0 0
-0.0074849220 -0.0114272660 0 0
-0.0067660580 -0.0110817620 0 0
-0.0058696690 -0.0102049570 0 0
-0.0048298160 -0.0088937120 0 0
-0.0037030190 -0.0072832350 0 0
-0.0025611020 -0.0055324130 0 0
-0.0014813400 -0.0038072690 0 0
-0.0005367870 -0.0022649840 0 0
0.0002111770 -0.0010401390 0 0
0.0007168490 -0.0002338800 0 0
0.0009515390 0.0000937114 0 0
0.0009059780 -0.0000723439 0 0
0.0005953920 -0.0007018370 0 0
0.0000626424 -0.0017224360 0 0
-0.0006242370 -0.0030246160 0 0
-0.0013771020 -0.0044687390 0 0
-0.0020930920 -0.0058958830 0 0
-0.0026648560 -0.0071429210 0 0
-0.0029991930 -0.0080600360 0 0
-0.0030383650 -0.0085281850 0 0
-0.0027734660 -0.0084748270 0 0
-0.0022444370 -0.0078855520 0 0
-0.0015293100 -0.0068080130 0 0
-0.0007285990 -0.0053458490 0 0
0.0000505416 -0.0036440940 0 0
0.0007077660 -0.0018708750 0 0
0.0011595070 -0.0001999820 0 0
0.0013456240 0.0012046970 0 0
0.0012331860 0.0022044900 0 0
0.0008175320 0.0027013980 0 0
0.0001211170 0.0026507790 0 0
-0.0008091600 0.0020672730 0 0
-0.0019065230 0.0010224400 0 0
-0.0030921930 -0.0003646290 0 0
-0.0042864900 -0.0019416860 0 0
-0.0054184490 -0.0035406890 0 0
-0.0064285070 -0.0049954010 0 0
-0.0072656920 -0.0061566050 0 0
-0.0078860680 -0.0069041560 0 0
-0.0082565350 -0.0071564310 0 0
-0.0083624430 -0.0068771660 0 0
-0.0082138990 -0.0060786020 0 0
-0.0078460910 -0.0048196750 0 0
-0.0073136380 -0.0031992710 0 0
-0.0066830830 -0.0013462160 0 0
-0.0060271190 0.0005921360 0 0
-0.0054212260 0.0024612730 0 0
-0.0049411250 0.0041102050 0 0
-0.0046580740 0.0054020720 0 0
-0.0046298170 0.0062253580 0 0
-0.0048889230 0.0065047470 0 0
-0.0054342600 0.0062097720 0 0
-0.0062303170 0.0053599580 0 0
-0.0072138480 0.0040255480 0 0
-0.0083038790 0.0023228190 0 0
-0.0094112570 0.0004036830 0 0
-0.0104455360 -0.0015595690 0 0
-0.0113200870 -0.0033930660 0 0
-0.0119587450 -0.0049417470 0 0
-0.0123050860 -0.0060872910 0 0
-0.0123313170 -0.0067585750 0 0
-0.0120426970 -0.0069330510 0 0
-0.0114753720 -0.0066324100 0 0
-0.0106884080 -0.0059169770 0 0
-0.0097532700 -0.0048805790 0 0
-0.0087448100 -0.0036447740 0 0
-0.0077360390 -0.0023503720 0 0
-0.0067959070 -0.0011447250 0 0
-0.0059874890 -0.0001653590 0 0
-0.0053631140 0.0004767180 0 0
-0.0049538610 0.0007101310 0 0
-0.0047568230 0.0005109190 0 0
-0.0047304900 -0.0000948608 0 0
-0.0048061490 -0.0010341200 0 0
-0.0049108650 -0.0021959290 0 0
-0.0049879480 -0.0034453570 0 0
-0.0050040180 -0.0046385810 0 0
-0.0049433290 -0.0056368530 0 0
-0.0047981090 -0.0063190880 0 0
-0.0045630140 -0.0065937930 0 0
-0.0042363530 -0.0064100190 0 0
-0.0038255160 -0.0057649110 0 0
-0.0033517770 -0.0047050660 0 0
-0.0028507480 -0.0033210230 0 0
-0.0023683340 -0.0017362330 0 0
-0.0019553670 -0.0000928180 0 0
-0.0016633200 0.0014632820 0 0
-0.0015403070 0.0027958470 0 0
-0.0016256490 0.0037898990 0 0
-0.0019430790 0.0043606160 0 0
-0.0024943710 0.0044587370 0 0
-0.0032554840 0.0040727030 0 0
-0.0041768560 0.0032291630 0 0
-0.0051883670 0.0019928280 0 0
-0.0062079790 0.0004648870 0 0
-0.0071519450 -0.0012221440 0 0
-0.0079445300 -0.0029148350 0 0
-0.0085256510 -0.0044536110 0 0
-0.0088563650 -0.0056888770 0 0
-0.0089236900 -0.0064958920 0 0
-0.0087443940 -0.0067865720 0 0
-0.0083645100 -0.0065166950 0 0
-0.0078525000 -0.0056887110 0 0
-0.0072867670 -0.0043523490 0 0
-0.0067400800 -0.0026038060 0 0
-0.0062661570 -0.0005811650 0 0
-0.0058943980 0.0015463140 0 0
-0.0056336810 0.0035941350 0 0
-0.0054803080 0.0053812540 0 0
-0.0054250200 0.0067499950 0 0
-0.0054578240 0.0075854880 0 0
-0.0055714200 0.0078309120 0 0
-0.0057623050 0.0074946840 0 0
-0.0060277500 0.0066482680 0 0
-0.0063597130 0.0054156550 0 0
-0.0067400960 0.0039566650 0 0
-0.0071410860 0.0024472880 0 0
-0.0075291350 0.0010605540 0 0
-0.0078671310 -0.0000499960 0 0
-0.0081131070 -0.0007641770 0 0
-0.0082206470 -0.0010065420 0 0
-0.0081457800 -0.0007541330 0 0
-0.0078578230 -0.0000390593 0 0
-0.0073473460 0.0010546650 0 0
-0.0066280330 0.0024000450 0 0
-0.0057346920 0.0038412010 0 0
-0.0047204200 0.0052107360 0 0
-0.0036528070 0.0063476560 0 0
-0.0026071270 0.0071136820 0 0
-0.0016558760 0.0074068950 0 0
-0.0008576870 0.0071720480 0 0
-0.0002499450 0.0064065430 0 0
0.0001553920 0.0051611060 0 0
0.0003761240 0.0035348200 0 0
0.0004617820 0.0016650110 0 0
0.0004857180 -0.0002867900 0 0
0.0005253320 -0.0021511680 0 0
0.0006391230 -0.0037677720 0 0
0.0008526420 -0.0050009490 0 0
0.0011587790 -0.0057516550 0 0
0.0015287860 -0.0059642870 0 0
0.0019262000 -0.0056287820 0 0
0.0023171940 -0.0047784670 0 0
0.0026748380 -0.0034840230 0 0
0.0029771840 -0.0018455820 0 0
0.0032004860 0.0000142416 0 0
0.0033118440 0.0019559420 0 0
0.0032670420 0.0038295450 0 0
0.0030161680 0.0054839030 0 0
0.0025147520 0.0067796410 0 0
0.0017353870 0.0076051620 0 0
0.0006744840 0.0078926470 0 0
-0.0006482790 0.0076293690 0 0
-0.0021951520 0.0068608400 0 0
-0.0039151820 0.0056848610 0 0
-0.0057464530 0.0042382810 0 0
-0.0076164800 0.0026802150 0 0
-0.0094435410 0.0011748580 0 0
-0.0111425950 -0.0001249130 0 0
-0.0126362090 -0.0010923440 0 0
-0.0138662360 -0.0016386450 0 0
-0.0148023210 -0.0017209040 0 0
-0.0154462350 -0.0013458450 0 0
-0.0158316730 -0.0005688940 0 0
-0.0160188930 0.0005126110 0 0
-0.0160847760 0.0017717790 0 0
-0.0161104770 0.0030673680 0 0
-0.0161704120 0.0042585120 0 0
-0.0163261110 0.0052169880 0 0
-0.0166244470 0.0058367960 0 0
-0.0170961960 0.0060419120 0 0
-0.0177526500 0.0057931110 0 0
-0.0185822180 0.0050941660 0 0
-0.0195503400 0.0039959580 0 0
-0.0206036980 0.0025953230 0 0
-0.0216766510 0.0010258420 0 0
-0.0226977780 -0.0005588030 0 0
-0.0235967200 -0.0020045660 0 0
-0.0243125290 -0.0031751840 0 0
-0.0248022950 -0.0039665350 0 0
-0.0250460540 -0.0043161370 0 0
-0.0250454280 -0.0042067280 0 0
-0.0248183710 -0.0036643270 0 0
-0.0243942400 -0.0027527800 0 0
-0.0238098130 -0.0015665300 0 0
-0.0231046070 -0.0002225300 0 0
-0.0223174580 0.0011485250 0 0
-0.0214892210 0.0024118400 0 0
-0.0206705120 0.0034390110 0 0
-0.0199245770 0.0041193100 0 0
-0.0193176630 0.0043712610 0 0
-0.0189011600 0.0041528490 0 0
-0.0186965340 0.0034685560 0 0
-0.0186893100 0.0023724530 0 0
-0.0188307290 0.0009664660 0 0
-0.0190449090 -0.0006080370 0 0
-0.0192421590 -0.0021860970 0 0
-0.0193371610 -0.0036001910 0 0
-0.0192660640 -0.0047019170 0 0
-0.0189962310 -0.0053799370 0 0
-0.0185269510 -0.0055714250 0 0
-0.0178839050 -0.0052662740 0 0
-0.0171112990 -0.0045052910 0 0
-0.0162645800 -0.0033746210 0 0
-0.0154056420 -0.0019974420 0 0
-0.0145999520 -0.0005224850 0 0
-0.0139124020 0.0008904800 0 0
-0.0133997580 0.0020869290 0 0
-0.0131019080 0.0029336140 0 0
-0.0130364270 0.0033319150 0 0
-0.0131979680 0.0032267880 0 0
-0.0135600480 0.0026111080 0 0
-0.0140774290 0.0015256600 0 0
-0.0146895960 0.0000549654 0 0
-0.0153250450 -0.0016807650 0 0
-0.0159053750 -0.0035371850 0 0
-0.0163503810 -0.0053598490 0 0
-0.0165856430 -0.0069982910 0 0
-0.0165510200 -0.0083182280 0 0
-0.0162075610 -0.0092120280 0 0
-0.0155424850 -0.0096078190 0 0
-0.0145721830 -0.0094765830 0 0
-0.0133415230 -0.0088363220 0 0
-0.0119179890 -0.0077525160 0 0
-0.0103823980 -0.0063334720 0 0
-0.0088197500 -0.0047190660 0 0
-0.0073118120 -0.0030638580 0 0
-0.0059305450 -0.0015192180 0 0
-0.0047320260 -0.0002193940 0 0
-0.0037522630 0.0007270970 0 0
-0.0030063480 0.0012428870 0 0
-0.0024904950 0.0012864440 0 0
-0.0021844230 0.0008559660 0 0
-0.0020515040 -0.0000094339 0 0
-0.0020364810 -0.0012319730 0 0
-0.0020632900 -0.0026999470 0 0
-0.0020382270 -0.0042746280 0 0
-0.0018644730 -0.0058004090 0 0
-0.0014667380 -0.0071194630 0 0
-0.0008135180 -0.0080904120 0 0
0.0000757583 -0.0086079160 0 0
0.0011388710 -0.0086183670 0 0
0.0022857840 -0.0081270210 0 0
0.0034146270 -0.0071944670 0 0
0.0044263530 -0.0059246970 0 0
0.0052350590 -0.0044497890 0 0
0.0057724350 -0.0029149040 0 0
0.0059892570 -0.0014648500 0 0
0.0058576470 -0.0002324480 0 0
0.0053745840 0.0006718820 0 0
0.0045648960 0.0011698610 0 0
0.0034815710 0.0012232540 0 0
0.0022014140 0.0008382430 0 0
0.0008162410 0.0000657507 0 0
-0.0005778090 -0.0010023370 0 0
-0.0018903970 -0.0022416100 0 0
-0.0030448700 -0.0035083750 0 0
-0.0039827700 -0.0046561960 0 0
-0.0046650560 -0.0055529440 0 0
-0.0050709750 -0.0060958200 0 0
-0.0051952750 -0.0062224980 0 0
-0.0050455330 -0.0059166970 0 0
-0.0046429480 -0.0052075370 0 0
-0.0040272280 -0.0041641680 0 0
-0.0032604770 -0.0028881870 0 0
-0.0024242850 -0.0015050570 0 0
-0.0016100970 -0.0001539530 0 0
-0.0009074410 0.0010247500 0 0
-0.0003935570 0.0019034880 0 0
-0.0001259760 0.0023800420 0 0
-0.0001392940 0.0023861620 0 0
-0.0004460270 0.0018930000 0 0
-0.0010387450 0.0009154220 0 0
-0.0018899930 -0.0004850710 0 0
-0.0029495790 -0.0022014160 0 0
-0.0041426660 -0.0040888910 0 0
-0.0053730960 -0.0059809320 0 0
-0.0065337610 -0.0077101960 0 0
-0.0075219960 -0.0091291750 0 0
-0.0082552550 -0.0101258260 0 0
-0.0086827990 -0.0106331210 0 0
-0.0087911620 -0.0106329220 0 0
-0.0086027970 -0.0101545250 0 0
-0.0081696210 -0.0092689230 0 0
-0.0075653100 -0.0080806170 0 0
-0.0068785210 -0.0067179930 0 0
-0.0062059490 -0.0053222590 0 0
-0.0056435980 -0.0040351030 0 0
-0.0052762070 -0.0029858470 0 0
-0.0051665090 -0.0022797240 0 0
-0.0053472040 -0.0019885570 0 0
-0.0058183370 -0.0021436830 0 0
-0.0065504810 -0.0027307850 0 0
-0.0074909790 -0.0036880120 0 0
-0.0085696670 -0.0049098150 0 0
-0.0097029710 -0.0062579740 0 0
-0.0107976070 -0.0075786250 0 0
-0.0117560730 -0.0087216690 0 0
-0.0124859290 -0.0095588920 0 0
-0.0129123730 -0.0099977810 0 0
-0.0129906010 -0.0099884240 0 0
-0.0127136230 -0.0095235150 0 0
-0.0121119080 -0.0086350150 0 0
-0.0112438840 -0.0073901280 0 0
-0.0101826860 -0.0058858060 0 0
-0.0090087330 -0.0042407470 0 0
-0.0078109110 -0.0025860640 0 0
-0.0066882130 -0.0010563960 0 0
-0.0057434770 0.0002185780 0 0
-0.0050700290 0.0011239660 0 0
-0.0047365820 0.0015715070 0 0
-0.0047745100 0.0015108940 0 0
-0.0051715800 0.0009374300 0 0
-0.0058741820 -0.0001046660 0 0
-0.0067945210 -0.0015230170 0 0
-0.0078188640 -0.0031833000 0 0
-0.0088184910 -0.0049225500 0 0
-0.0096655400 -0.0065681200 0 0
-0.0102499180 -0.0079577240 0 0
-0.0104909130 -0.0089565960 0 0
-0.0103423290 -0.0094705070 0 0
-0.0097955180 -0.0094546370 0 0
-0.0088826490 -0.0089180300 0 0
-0.0076764760 -0.0079233870 0 0
-0.0062826510 -0.0065822180 0 0
-0.0048255760 -0.0050448610 0 0
-0.0034313300 -0.0034849080 0 0
-0.0022109590 -0.0020796250 0 0
-0.0012478310 -0.0009899180 0 0
-0.0005919380 -0.0003428090 0 0
-0.0002604070 -0.0002177430 0 0
-0.0002403270 -0.0006378290 0 0
-0.0004905770 -0.0015675410 0 0
-0.0009430540 -0.0029173340 0 0
-0.0015067640 -0.0045531930 0 0
-0.0020773420 -0.0063088380 0 0
-0.0025511890 -0.0080007950 0 0
-0.0028405810 -0.0094474300 0 0
-0.0028856190 -0.0104902810 0 0
-0.0026603460 -0.0110138330 0 0
-0.0021729310 -0.0109602560 0 0
-0.0014615040 -0.0103361580 0 0
-0.0005869910 -0.0092093860 0 0
0.0003769120 -0.0076971800 0 0
0.0013562350 -0.0059502730 0 0
0.0022897490 -0.0041369780 0 0
0.0031377050 -0.0024287910 0 0
0.0038797860 -0.0009876050 0 0
0.0045010300 0.0000461182 0 0
0.0049755830 0.0005647560 0 0
0.0052609320 0.0005037340 0 0
0.0053054870 -0.0001509370 0 0
0.0050635920 -0.0013592990 0 0
0.0045108800 -0.0030299110 0 0
0.0036540420 -0.0050289770 0 0
0.0025315400 -0.0071945580 0 0
0.0012062830 -0.0093523150 0 0
-0.0002450040 -0.0113298910 0 0
-0.0017405740 -0.0129695530 0 0
-0.0031993910 -0.0141402100 0 0
-0.0045470790 -0.0147492770 0 0
-0.0057237280 -0.0147529590 0 0
-0.0066900390 -0.0141620800 0 0
-0.0074281170 -0.0130413200 0 0
-0.0079386000 -0.0115021710 0 0
-0.0082387560 -0.0096916460 0 0
-0.0083627190 -0.0077785450 0 0
-0.0083601960 -0.0059378400 0 0
-0.0082911670 -0.0043332150 0 0
-0.0082182730 -0.0030995200 0 0
-0.0081983960 -0.0023286210 0 0
-0.0082735020 -0.0020612450 0 0
-0.0084623830 -0.0022853920 0 0
-0.0087560920 -0.0029408910 0 0
-0.0091193630 -0.0039291420 0 0
-0.0094991190 -0.0051261140 0 0
-0.0098374440 -0.0063959270 0 0
-0.0100834410 -0.0076030640 0 0
-0.0102006430 -0.0086228210 0 0
-0.0101703090 -0.0093502870 0 0
-0.0099914000 -0.0097082590 0 0
-0.0096779690 -0.0096544680 0 0
-0.0092558520 -0.0091875040 0 0
-0.0087600360 -0.0083496690 0 0
-0.0082313030 -0.0072250380 0 0
-0.0077107630 -0.0059321980 0 0
-0.0072351170 -0.0046122470 0 0
-0.0068367300 -0.0034132410 0 0
-0.0065470780 -0.0024727990 0 0
-0.0063971640 -0.0019018010 0 0
-0.0064118700 -0.0017720990 0 0
-0.0066020750 -0.0021092760 0 0
-0.0069594690 -0.0028899660 0 0
-0.0074557040 -0.0040435910 0 0
-0.0080457700 -0.0054589980 0 0
-0.0086753160 -0.0069955060 0 0
-0.0092899490 -0.0084966510 0 0
-0.0098427220 -0.0098053990 0 0
-0.0102970020 -0.0107804790 0 0
-0.0106250240 -0.0113125600 0 0
-0.0108048840 -0.0113375210 0 0
-0.0108188680 -0.0108442670 0 0
-0.0106544730 -0.0098758280 0 0
-0.0103095620 -0.0085237270 0 0
-0.0098027760 -0.0069169700 0 0
-0.0091838750 -0.0052082190 0 0
-0.0085333640 -0.0035592940 0 0
-0.0079482310 -0.0021268940 0 0
-0.0075216230 -0.0010491910 0 0
-0.0073251970 -0.0004341750 0 0
-0.0073980780 -0.0003501230 0 0
-0.0077436190 -0.0008183000 0 0
-0.0083330990 -0.0018086530 0 0
-0.0091131250 -0.0032398270 0 0
-0.0100134090 -0.0049847870 0 0
-0.0109535830 -0.0068824540 0 0
-0.0118492460 -0.0087538750 0 0
-0.0126179470 -0.0104202400 0 0
-0.0131859370 -0.0117206800 0 0
-0.0134955700 -0.0125287550 0 0
-0.0135117670 -0.0127661960 0 0
-0.0132253960 -0.0124114360 0 0
-0.0126528000 -0.0115006850 0 0
-0.0118329170 -0.0101219180 0 0
-0.0108240020 -0.0084050020 0 0
-0.0097004410 -0.0065102370 0 0
-0.0085483310 -0.0046144010 0 0
-0.0074585170 -0.0028931520 0 0
-0.0065172780 -0.0015017570 0 0
-0.0057960230 -0.0005582330 0 0
-0.0053414920 -0.0001324750 0 0
-0.0051681380 -0.0002426350 0 0
-0.0052544740 -0.0008569210 0 0
-0.0055441330 -0.0018976430 0 0
-0.0059517750 -0.0032465070 0 0
-0.0063740400 -0.0047529520 0 0
-0.0067040800 -0.0062473870 0 0
-0.0068464240 -0.0075590180 0 0
-0.0067295050 -0.0085354050 0 0
-0.0063144750 -0.0090600250 0 0
-0.0055987420 -0.0090656160 0 0
-0.0046120580 -0.0085421250 0 0
-0.0034058010 -0.0075378020 0 0
-0.0020418860 -0.0061531300 0 0
-0.0005878540 -0.0045296210 0 0
0.0008829100 -0.0028354130 0 0
0.0022921980 -0.0012481380 0 0
0.0035623000 0.0000642395 0 0
0.0046236030 0.0009620660 0 0
0.0054216930 0.0013485840 0 0
0.0059230130 0.0011782000 0 0
0.0061187900 0.0004585820 0 0
0.0060265500 -0.0007519440 0 0
0.0056889300 -0.0023509180 0 0
0.0051702830 -0.0042025550 0 0
0.0045509410 -0.0061519780 0 0
0.0039180610 -0.0080397300 0 0
0.0033547810 -0.0097137730 0 0
0.0029321690 -0.0110392110 0 0
0.0027051350 -0.0119076440 0 0
0.0027094700 -0.0122468500 0 0
0.0029588340 -0.0120290630 0 0
0.0034429300 -0.0112750170 0 0
0.0041273010 -0.0100521910 0 0
0.0049541540 -0.0084679400 0 0
0.0058444070 -0.0066595830 0 0
0.0067025270 -0.0047835240 0 0
0.0074262130 -0.0030044830 0 0
0.0079220930 -0.0014837430 0 0
0.0081249660 -0.0003645400 0 0
0.0080123870 0.0002446620 0 0
0.0076043250 0.0002849370 0 0
0.0069468120 -0.0002445850 0 0
0.0060925030 -0.0012860560 0 0
0.0050914560 -0.0027293050 0 0
0.0039924460 -0.0044239490 0 0
0.0028480390 -0.0061963230 0 0
0.0017192660 -0.0078699340 0 0
0.0006766340 -0.0092860640 0 0
-0.0002061670 -0.0103199510 0 0
-0.0008652350 -0.0108905550 0 0
-0.0012596450 -0.0109649410 0 0
-0.0013785160 -0.0105582840 0 0
-0.0012412500 -0.0097298540 0 0
-0.0008938380 -0.0085758410 0 0
-0.0004031350 -0.0072202470 0 0
0.0001502040 -0.0058049720 0 0
0.0006797440 -0.0044792430 0 0
0.0011023210 -0.0033875270 0 0
0.0013479160 -0.0026555350 0 0
0.0013692510 -0.0023755710 0 0
0.0011491850 -0.0025937060 0 0
0.0007037900 -0.0033012950 0 0
0.0000803599 -0.0044331800 0 0
-0.0006488610 -0.0058741070 0 0
-0.0013961180 -0.0074728190 0 0
-0.0020693650 -0.0090607580 0 0
-0.0025826240 -0.0104717230 0 0
-0.0028631240 -0.0115601390 0 0
-0.0028562900 -0.0122164830 0 0
-0.0025319330 -0.0123781440 0 0
-0.0018917040 -0.0120341640 0 0
-0.0009730690 -0.0112240390 0 0
0.0001543610 -0.0100322890 0 0
0.0013991290 -0.0085800230 0 0
0.0026599540 -0.0070139040 0 0
0.0038348830 -0.0054930760 0 0
0.0048271230 -0.0041751090 0 0
0.0055510700 -0.0032023820 0 0
0.0059409790 -0.0026896850 0 0
0.0059599190 -0.0027129560 0 0
0.0056054860 -0.0032996880 0 0
0.0049118170 -0.0044227580 0 0
0.0039479280 -0.0059992980 0 0
0.0028104270 -0.0078958430 0 0
0.0016105130 -0.0099403400 0 0
0.0004598630 -0.0119398190 0 0
-0.0005385910 -0.0137008860 0 0
-0.0012945170 -0.0150498950 0 0
-0.0017352360 -0.0158501390 0 0
-0.0018170780 -0.0160144630 0 0
-0.0015384640 -0.0155131210 0 0
-0.0009440950 -0.0143774360 0 0
-0.0001161470 -0.0126991990 0 0
0.0008398050 -0.0106245170 0 0
0.0018059900 -0.0083405780 0 0
0.0026623710 -0.0060555970 0 0
0.0032999220 -0.0039749600 0 0
0.0036356530 -0.0022782910 0 0
0.0036239930 -0.0011014270 0 0
0.0032610200 -0.0005252050 0 0
0.0025810330 -0.0005708740 0 0
0.0016473300 -0.0012009600 0 0
0.0005412520 -0.0023250360 0 0
-0.0006463710 -0.0038101770 0 0
-0.0018202810 -0.0054947500 0 0
-0.0028847450 -0.0072033500 0 0
-0.0037492750 -0.0087618630 0 0
-0.0043370320 -0.0100126950 0 0
-0.0045944210 -0.0108294440 0 0
-0.0044987080 -0.0111292600 0 0
-0.0040610350 -0.0108809400 0 0
-0.0033247850 -0.0101073040 0 0
-0.0023608970 -0.0088815920 0 0
-0.0012613700 -0.0073189390 0 0
-0.0001312570 -0.0055647570 0 0
0.0009210910 -0.0037818380 0 0
0.0017955220 -0.0021370610 0 0
0.0024123810 -0.0007876100 0 0
0.0027232130 0.0001334010 0 0
0.0027164550 0.0005308320 0 0
0.0024159580 0.0003584670 0 0
0.0018738840 -0.0003757030 0 0
0.0011623660 -0.0016108150 0 0
0.0003671150 -0.0032397700 0 0
-0.0004177240 -0.0051192960 0 0
-0.0010955860 -0.0070826680 0 0
-0.0015741020 -0.0089548850 0 0
-0.0017721190 -0.0105696950 0 0
-0.0016310410 -0.0117873750 0 0
-0.0011324600 -0.0125113170 0 0
-0.0003136680 -0.0127000100 0 0
0.0007320200 -0.0123710030 0 0
0.0018746850 -0.0115956740 0 0
0.0029784050 -0.0104863700 0 0
0.0039278810 -0.0091796290 0 0
0.0046410020 -0.0078197550 0 0
0.0050682300 -0.0065455910 0 0
0.0051858550 -0.0054807750 0 0
0.0049896150 -0.0047260910 0 0
0.0044925990 -0.0043521460 0 0
0.0037278740 -0.0043917800 0 0
0.0027523010 -0.0048336930 0 0
0.0016463010 -0.0056203860 0 0
0.0005061540 -0.0066529150 0 0
-0.0005699270 -0.0078026120 0 0
-0.0014963360 -0.0089277280 0 0
-0.0022093670 -0.0098919850 0 0
-0.0026695860 -0.0105815780 0 0
-0.0028597010 -0.0109172320 0 0
-0.0027805510 -0.0108592250 0 0
-0.0024471930 -0.0104056850 0 0
-0.0018870910 -0.0095867430 0 0
-0.0011403410 -0.0084580750 0 0
-0.0002592480 -0.0070962480 0 0
0.0006943840 -0.0055956310 0 0
0.0016530820 -0.0040646810 0 0
0.0025472010 -0.0026201700 0 0
0.0033082760 -0.0013795970 0 0
0.0038742750 -0.0004520450 0 0
0.0041983290 0.0000726960 0 0
0.0042581810 0.0001358480 0 0
0.0040609820 -0.0002803000 0 0
0.0036422580 -0.0011467190 0 0
0.0030619680 -0.0023879330 0 0
0.0023982160 -0.0038888900 0 0
0.0017369050 -0.0055078830 0 0
0.0011586490 -0.0070931760 0 0
0.0007273950 -0.0084999360 0 0
0.0004835540 -0.0096046940 0 0
0.0004415450 -0.0103162060 0 0
0.0005910760 -0.0105827640 0 0
0.0009017300 -0.0103960680 0 0
0.0013304740 -0.0097913420 0 0
0.0018313930 -0.0088435520 0 0
0.0023654830 -0.0076596950 0 0
0.0029060770 -0.0063673960 0 0
0.0034350690 -0.0051009690 0 0
0.0039300430 -0.0039873700 0 0
0.0043511720 -0.0031342380 0 0
0.0046395030 -0.0026207990 0 0
0.0047305070 -0.0024917390 0 0
0.0045768790 -0.0027547820 0 0
0.0041697690 -0.0033822020 0 0
0.0035482380 -0.0043143790 0 0
0.0027925000 -0.0054631260 0 0
0.0020053620 -0.0067155470 0 0
0.0012916160 -0.0079419440 0 0
0.0007426040 -0.0090088950 0 0
0.0004267890 -0.0097942900 0 0
0.0003834740 -0.0102007500 0 0
0.0006179960 -0.0101666410 0 0
0.0010992550 -0.0096747200 0 0
0.0017612560 -0.0087570060 0 0
0.0025102320 -0.0074937000 0 0
0.0032380900 -0.0060053030 0 0
0.0038396630 -0.0044391410 0 0
0.0042284760 -0.0029525050 0 0
0.0043469910 -0.0016950530 0 0
0.0041700820 -0.0007934160 0 0
0.0037018660 -0.0003395600 0 0
0.0029679770 -0.0003824000 0 0
0.0020081770 -0.0009222140 0 0
0.0008742470 -0.0019091860 0 0
-0.0003664460 -0.0032475550 0 0
-0.0016275560 -0.0048051400 0 0
-0.0028072970 -0.0064268420 0 0
-0.0037991370 -0.0079508510 0 0
-0.0045049810 -0.0092261870 0 0
-0.0048482640 -0.0101292970 0 0
-0.0047862540 -0.0105771520 0 0
-0.0043178590 -0.0105353350 0 0
-0.0034824690 -0.0100205900 0 0
-0.0023507530 -0.0090975570 0 0
-0.0010133560 -0.0078699840 0 0
0.0004281710 -0.0064679140 0 0
0.0018687410 -0.0050337960 0 0
0.0032074940 -0.0037102640 0 0
0.0043564250 -0.0026296730 0 0
0.0052487210 -0.0019036910 0 0
0.0058441100 -0.0016128290 0 0
0.0061296140 -0.0017979570 0 0
0.0061183150 -0.0024555520 0 0
0.0058492420 -0.0035369170 0 0
0.0053870060 -0.0049512980 0 0
0.0048181710 -0.0065731500 0 0
0.0042440610 -0.0082532890 0 0
0.0037709830 -0.0098328830 0 0
0.0034968380 -0.0111591260 0 0
0.0034930520 -0.0121015910 0 0
0.0037871280 -0.0125678650 0 0
0.0043555270 -0.0125161540 0 0
0.0051309020 -0.0119613720 0 0
0.0060188670 -0.0109723110 0 0
0.0069163180 -0.0096607360 0 0
0.0077253010 -0.0081653090 0 0
0.0083606150 -0.0066335430 0 0
0.0087531950 -0.0052051710 0 0
0.0088530080 -0.0039994120 0 0
0.0086337310 -0.0031061190 0 0
0.0080969460 -0.0025798390 0 0
0.0072719450 -0.0024367960 0 0
0.0062111820 -0.0026551460 0 0
0.0049842930 -0.0031782260 0 0
0.0036726680 -0.0039207980 0 0
0.0023655760 -0.0047786630 0 0
0.0011565690 -0.0056405590 0 0
0.0001360940 -0.0063990850 0 0
-0.0006205810 -0.0069581730 0 0
-0.0010648800 -0.0072382300 0 0
-0.0011803630 -0.0071820160 0 0
-0.0009817750 -0.0067624900 0 0
-0.0005104950 -0.0059907240 0 0
0.0001716130 -0.0049203820 0 0
0.0009886610 -0.0036458030 0 0
0.0018560810 -0.0022930990 0 0
0.0026853100 -0.0010058760 0 0
0.0033900320 0.0000721611 0 0
0.0038945790 0.0008148000 0 0
0.0041423770 0.0011275680 0 0
0.0041012800 0.0009570180 0 0
0.0037639740 0.0002959680 0 0
0.0031455870 -0.0008151750 0 0
0.0022821780 -0.0022920530 0 0
0.0012308550 -0.0040149700 0 0
0.0000695461 -0.0058411280 0 0
-0.0011061690 -0.0076184620 0 0
-0.0021913860 -0.0091990830 0 0
-0.0030853670 -0.0104517470 0 0
-0.0037065670 -0.0112734900 0 0
-0.0040031060 -0.0115986550 0 0
-0.0039547210 -0.0114026710 0 0
-0.0035692530 -0.0107013700 0 0
-0.0028812370 -0.0095493630 0 0
-0.0019550560 -0.0080380130 0 0
-0.0008858100 -0.0062901710 0 0
0.0002097930 -0.0044503360 0 0
0.0012118800 -0.0026725190 0 0
0.0020177070 -0.0011086350 0 0
0.0025564210 0.0001025400 0 0
0.0027954410 0.0008474390 0 0
0.0027401380 0.0010509540 0 0
0.0024300310 0.0006882020 0 0
0.0019328070 -0.0002093480 0 0
0.0013350810 -0.0015561830 0 0
0.0007300380 -0.0032229500 0 0
0.0002052070 -0.0050514630 0 0
-0.0001662860 -0.0068714900 0 0
-0.0003301880 -0.0085177150 0 0
-0.0002525920 -0.0098458270 0 0
0.0000796790 -0.0107461210 0 0
0.0006584870 -0.0111532880 0 0
0.0014533290 -0.0110520980 0 0
0.0024108660 -0.0104787350 0 0
0.0034574050 -0.0095161790 0 0
0.0045059460 -0.0082822000 0 0
0.0054662870 -0.0069120760 0 0
0.0062552710 -0.0055417870 0 0
0.0068064270 -0.0042960680 0 0
0.0070788070 -0.0032806570 0 0
0.0070622630 -0.0025755270 0 0
0.0067770790 -0.0022286210 0 0
0.0062701880 -0.0022520640 0 0
0.0056108490 -0.0026215270 0 0
0.0048841150 -0.0032774700 0 0
0.0041791020 -0.0041279090 0 0
0.0035746630 -0.0050546910 0 0
0.0031288570 -0.0059256670 0 0
0.0028754060 -0.0066115530 0 0
0.0028252730 -0.0070027110 0 0
0.0029693320 -0.0070222180 0 0
0.0032799520 -0.0066346610 0 0
0.0037130250 -0.0058504870 0 0
0.0042131800 -0.0047248460 0 0
0.0047221120 -0.0033503740 0 0
0.0051867460 -0.0018451340 0 0
0.0055641780 -0.0003386360 0 0
0.0058230970 0.0010411770 0 0
0.0059434590 0.0021788810 0 0
0.0059160630 0.0029805740 0 0
0.0057414130 0.0033811890 0 0
0.0054266790 0.0033496740 0 0
0.0049831960 0.0028912070 0 0
0.0044280820 0.0020466540 0 0
0.0037897320 0.0008906620 0 0
0.0031146320 -0.0004712650 0 0
0.0024724640 -0.0019087780 0 0
0.0019538490 -0.0032779650 0 0
0.0016549270 -0.0044371740 0 0
0.0016512130 -0.0052642050 0 0
0.0019732830 -0.0056715370 0 0
0.0025968450 -0.0056173080 0 0
0.0034495100 -0.0051108310 0 0
0.0044277280 -0.0042119670 0 0
0.0054169260 -0.0030243480 0 0
0.0063102620 -0.0016838250 0 0
0.0070221990 -0.0003440670 0 0
0.0074957410 0.0008391370 0 0
0.0077048270 0.0017233670 0 0
0.0076516930 0.0021935350 0 0
0.0073592300 0.0021738400 0 0
0.0068633480 0.0016368450 0 0
0.0062110880 0.0006079300 0 0
0.0054635200 -0.0008359520 0 0
0.0046966600 -0.0025733010 0 0
0.0039955380 -0.0044505220 0 0
0.0034431900 -0.0062985020 0 0
0.0031098630 -0.0079507220 0 0
0.0030452900 -0.0092600290 0 0
0.0032735460 -0.0101125120 0 0
0.0037899820 -0.0104385600 0 0
0.0045610330 -0.0102205050 0 0
0.0055272630 -0.0094951600 0 0
0.0066093970 -0.0083503800 0 0
0.0077168000 -0.0069163060 0 0
0.0087569460 -0.0053528660 0 0
0.0096438890 -0.0038346620 0 0
0.0103048620 -0.0025331980 0 0
0.0106857350 -0.0015972640 0 0
0.0107560150 -0.0011348600 0 0
0.0105125730 -0.0012005850 0 0
0.0099801340 -0.0017910180 0 0
0.0092073040 -0.0028485330 0 0
0.0082596600 -0.0042714360 0 0
0.0072127590 -0.0059271370 0 0
0.0061458920 -0.0076661130 0 0
0.0051358090 -0.0093355620 0 0
0.0042508660 -0.0107918030 0 0
0.0035473810 -0.0119105040 0 0
0.0030681880 -0.0125944870 0 0
0.0028408250 -0.0127800790 0 0
0.0028736870 -0.0124433800 0 0
0.0031518110 -0.0116058800 0 0
0.0036358520 -0.0103363350 0 0
0.0042664790 -0.0087463950 0 0
0.0049727020 -0.0069809160 0 0
0.0056805830 -0.0052054030 0 0
0.0063210910 -0.0035914230 0 0
0.0068388780 -0.0022999260 0 0
0.0072020010 -0.0014637590 0 0
0.0074069590 -0.0011722590 0 0
0.0074720490 -0.0014609020 0 0
0.0074205390 -0.0023075380 0 0
0.0072656960 -0.0036347680 0 0
0.0070082800 -0.0053174700 0 0
0.0066452090 -0.0071952720 0 0
0.0061807150 -0.0090896700 0 0
0.0056332180 -0.0108233110 0 0
0.0050351910 -0.0122371490 0 0
0.0044259900 -0.0132028860 0 0
0.0038412780 -0.0136319190 0 0
0.0033057480 -0.0134832850 0 0
0.0028327160 -0.0127700960 0 0
0.0024273290 -0.0115607740 0 0
0.0020891810 -0.0099726060 0 0
0.0018132360 -0.0081590750 0 0
0.0015890130 -0.0062942450 0 0
0.0013990470 -0.0045560060 0 0
0.0012202440 -0.0031083520 0 0
0.0010305940 -0.0020840640 0 0
0.0008177530 -0.0015711380 0 0
0.0005835200 -0.0016057060 0 0
0.0003427760 -0.0021717790 0 0
0.0001191150 -0.0032062710 0 0
-0.0000611820 -0.0046069990 0 0
-0.0001754090 -0.0062415260 0 0
-0.0002079970 -0.0079563960 0 0
-0.0001494610 -0.0095878420 0 0
0.0000072673 -0.0109749680 0 0
0.0002691800 -0.0119748630 0 0
0.0006424070 -0.0124775910 0 0
0.0011287650 -0.0124187040 0 0
0.0017207110 -0.0117877760 0 0
0.0023959440 -0.0106315670 0 0
0.0031137150 -0.0090505100 0 0
0.0038154040 -0.0071886850 0 0
0.0044303840 -0.0052192340 0 0
0.0048854780 -0.0033272380 0 0
0.0051160610 -0.0016911280 0 0
0.0050775820 -0.0004633820 0 0
0.0047550330 0.0002477460 0 0
0.0041668530 0.0003923690 0 0
0.0033616210 -0.0000147207 0 0
0.0024091000 -0.0008972700 0 0
0.0013890780 -0.0021285030 0 0
0.0003810700 -0.0035464610 0 0
-0.0005430030 -0.0049713880 0 0
-0.0013209630 -0.0062239540 0 0
-0.0018973250 -0.0071431240 0 0
-0.0022210020 -0.0076021980 0 0
-0.0022511030 -0.0075215850 0 0
-0.0019696440 -0.0068771360 0 0
-0.0013917610 -0.0057034690 0 0
-0.0005670320 -0.0040918950 0 0
0.0004262520 -0.0021821160 0 0
0.0014896100 -0.0001473360 0 0
0.0025143440 0.0018251400 0 0
0.0033933470 0.0035543500 0 0
0.0040337000 0.0048845120 0 0
0.0043672460 0.0057008790 0 0
0.0043573230 0.0059411590 0 0
0.0040017470 0.0056008010 0 0
0.0033323370 0.0047312470 0 0
0.0024110590 0.0034314670 0 0
0.0013235310 0.0018347470 0 0
0.0001707610 0.0000942994 0 0
-0.0009406450 -0.0016294440 0 0
-0.0019094060 -0.0031802300 0 0
-0.0026503800 -0.0044178580 0 0
-0.0031041260 -0.0052300830 0 0
-0.0032432240 -0.0055421880 0 0
-0.0030722690 -0.0053233050 0 0
-0.0026214760 -0.0045903120 0 0
-0.0019389610 -0.0034089180 0 0
-0.0010855830 -0.0018900380 0 0
-0.0001300730 -0.0001805210 0 0
0.0008584700 0.0015508660 0 0
0.0018191740 0.0031308010 0 0
0.0027055280 0.0044006290 0 0
0.0034869150 0.0052348560 0 0
0.0041459460 0.0055553380 0 0
0.0046742600 0.0053387560 0 0
0.0050694550 0.0046169880 0 0
0.0053352050 0.0034711750 0 0
0.0054858190 0.0020205650 0 0
0.0055526820 0.0004081300 0 0
0.0055854820 -0.0012139300 0 0
0.0056430070 -0.0026964100 0 0
0.0057766150 -0.0039034740 0 0
0.0060155580 -0.0047232630 0 0
0.0063608200 -0.0050795310 0 0
0.0067873230 -0.0049421450 0 0
0.0072509500 -0.0043320550 0 0
0.0076982860 -0.0033178130 0 0
0.0080789100 -0.0020053470 0 0
0.0083584540 -0.0005251260 0 0
0.0085260960 0.0009806020 0 0
0.0085890600 0.0023694160 0 0
0.0085547710 0.0035087260 0 0
0.0084133320 0.0042842610 0 0
0.0081340510 0.0046076170 0 0
0.0076778010 0.0044235260 0 0
0.0070162630 0.0037170800 0 0
0.0061479610 0.0025196610 0 0
0.0051054620 0.0009108740 0 0
0.0039531620 -0.0009856700 0 0
0.0027779920 -0.0030130100 0 0
0.0016757740 -0.0049964820 0 0
0.0007361990 -0.0067617630 0 0
0.0000302222 -0.0081525730 0 0
-0.0003968650 -0.0090462300 0 0
-0.0005266230 -0.0093661890 0 0
-0.0003666600 -0.0090910190 0 0
0.0000491723 -0.0082589290 0 0
0.0006613490 -0.0069661060 0 0
0.0013896870 -0.0053571510 0 0
0.0021432060 -0.0036081590 0 0
0.0028316340 -0.0019060290 0 0
0.0033758810 -0.0004286340 0 0
0.0037176080 0.0006711850 0 0
0.0038277020 0.0012773810 0 0
0.0037102850 0.0013195590 0 0
0.0033997480 0.0007801690 0 0
0.0029528810 -0.0003004500 0 0
0.0024393170 -0.0018237570 0 0
0.0019314910 -0.0036405580 0 0
0.0014954000 -0.0055675220 0 0
0.0011840720 -0.0074101160 0 0
0.0010341520 -0.0089864020 0 0
0.0010652570 -0.0101460810 0 0
0.0012823700 -0.0107828850 0 0
0.0016799360 -0.0108423610 0 0
0.0022440690 -0.0103268240 0 0
0.0029506270 -0.0092960580 0 0
0.0037601300 -0.0078615340 0 0
0.0046129580 -0.0061743220 0 0
0.0054306090 -0.0044091090 0 0
0.0061273890 -0.0027467140 0 0
0.0066286360 -0.0013566040 0 0
0.0068855000 -0.0003798700 0 0
0.0068808310 0.0000864174 0 0
0.0066281590 0.0000006061 0 0
0.0061666930 -0.0006195700 0 0
0.0055529300 -0.0017009360 0 0
0.0048504560 -0.0031249890 0 0
0.0041223700 -0.0047422300 0 0
0.0034288450 -0.0063887150 0 0
0.0028262240 -0.0079024940 0 0
0.0023627060 -0.0091379800 0 0
0.0020715570 -0.0099771780 0 0
0.0019668640 -0.0103378540 0 0
0.0020436570 -0.0101797370 0 0
0.0022804560 -0.0095089530 0 0
0.0026433830 -0.0083789610 0 0
0.0030934160 -0.0068862160 0 0
0.0035964910 -0.0051606440 0 0
0.0041302130 -0.0033526440 0 0
0.0046795790 -0.0016190090 0 0
0.0052227460 -0.0001098530 0 0
0.0057176090 0.0010430480 0 0
0.0060997110 0.0017375070 0 0
0.0062938930 0.0019120340 0 0
0.0062349030 0.0015552120 0 0
0.0058889550 0.0007103690 0 0
0.0052691330 -0.0005273440 0 0
0.0044414730 -0.0020216710 0 0
0.0035215280 -0.0036105650 0 0
0.0026612230 -0.0051228450 0 0
0.0020265590 -0.0063956370 0 0
0.0017699250 -0.0072929100 0 0
0.0020030180 -0.0077232080 0 0
0.0027768090 -0.0076520410 0 0
0.0040740010 -0.0071050630 0 0
0.0058160490 -0.0061621720 0 0
0.0078817150 -0.0049460080 0 0
0.0101303370 -0.0036083400 0 0
0.0124228680 -0.0023160330 0 0
0.0146368670 -0.0012372500 0 0
0.0166755500 -0.0005284960 0 0
0.0184734790 -0.0003224950 0 0
0.0200016290 -0.0007161380 0 0
0.0212719380 -0.0017584170 0 0
0.0223376700 -0.0034405000 0 0
0.0232863130 -0.0056920510 0 0
0.0242262000 -0.0083868480 0 0
0.0252707080 -0.0113574100 0 0
0.0265234500 -0.0144150260 0 0
0.0280666060 -0.0173696410 0 0
0.0299526960 -0.0200455020 0 0
0.0321992140 -0.0222926180 1 0
0.0347871640 -0.0239962150 1 0
0.0376650830 -0.0250848470 1 0
0.0407571790 -0.0255361900 1 0
0.0439724840 -0.0253795340 1 0
0.0472133950 -0.0246944580 1 0
0.0503825910 -0.0236051190 1 0
0.0533885900 -0.0222694840 1 0
0.0561529110 -0.0208635520 1 0
0.0586197160 -0.0195619090 1 0
0.0607638610 -0.0185181580 1 0
0.0625928300 -0.0178503140 1 0
0.0641401280 -0.0176343550 1 0
0.0654520770 -0.0179044960 1 0
0.0665766850 -0.0186562470 1 0
0.0675622760 -0.0198494870 1 0
0.0684632260 -0.0214110410 1 0
0.0693447660 -0.0232382160 1 0
0.0702825950 -0.0252052220 1 0
0.0713570970 -0.0271735670 1 0
0.0726428700 -0.0290064260 1 0
0.0741952750 -0.0305857270 1 -1
0.0760379010 -0.0318289780 1 -1
0.0781557520 -0.0327021320 1 -1
0.0804969680 -0.0332253200 1 -1
0.0829819730 -0.0334697790 1 -1
0.0855162570 -0.0335464680 1 -1
0.0880035550 -0.0335892100 1 -1
0.0903584310 -0.0337365200 1 -1
0.0925181370 -0.0341154110 1 -1
0.0944513360 -0.0348280420 1 -1
0.0961590390 -0.0359411340 1 -1
0.0976653440 -0.0374789460 1 -1
0.0990018460 -0.0394205380 1 -1
0.1001942580 -0.0417011950 1 -1
0.1012578490 -0.0442177340 1 -1
0.1022016300 -0.0468375690 1 -1
0.1030362180 -0.0494110140 1 -1
0.1037802100 -0.0517859710 1 -1
0.1044629140 -0.0538240300 1 -1
0.1051233330 -0.0554161880 1 -1
0.1058048410 -0.0564953680 1 -1
0.1065452800 -0.0570429730 1 -1
0.1073651920 -0.0570887270 1 -1
0.1082588470 -0.0567055720 1 -1
0.1091913860 -0.0560015200 1 -1
0.1101029990 -0.0551091120 1 -1
0.1109193170 -0.0541729640 1 -1
0.1115653470 -0.0533367590 1 -1
0.1119790590 -0.0527309970 1 -1
0.1121214210 -0.0524622170 1 -1
0.1119814820 -0.0526042080 1 -1
0.1115769660 -0.0531918800 1 -1
0.1109521250 -0.0542180180 1 -1
0.1101735610 -0.0556328230 1 -1
0.1093224800 -0.0573465020 1 -1
0.1084828370 -0.0592355410 1 -1
0.1077289370 -0.0611528630 1 -1
0.1071173310 -0.0629410900 1 -1
0.1066844990 -0.0644474650 1 -1
0.1064481700 -0.0655391510 1 -1
0.1064096790 -0.0661179040 1 -1
0.1065570400 -0.0661326960 1 -1
0.1068696810 -0.0655878620 1 -1
0.1073230400 -0.0645440600 1 -1
0.1078887090 -0.0631113310 1 -1
0.1085291670 -0.0614363090 1 -1
0.1091914020 -0.0596865780 1 -1
0.1098039980 -0.0580345240 1 -1
0.1102800670 -0.0566417950 1 -1
0.1105280830 -0.0556443890 1 -1
0.1104706930 -0.0551389950 1 -1
0.1100658260 -0.0551729690 1 -1
0.1093206850 -0.0557403860 1 -1
0.1082922940 -0.0567842620 1 -1
0.1070752850 -0.0582030450 1 -1
0.1057835850 -0.0598598450 1 -1
0.1045336940 -0.0615946540 1 -1
0.1034331730 -0.0632401000 1 -1
0.1025723640 -0.0646390920 1 -1
0.1020153630 -0.0656611010 1 -1
0.1017909790 -0.0662147930 1 -1
0.1018889450 -0.0662563290 1 -1
0.1022636700 -0.0657930000 1 -1
0.1028431100 -0.0648818140 1 -1
0.1035400660 -0.0636232460 1 -1
0.1042638090 -0.0621508990 1 -1
0.1049299740 -0.0606180960 1 -1
0.1054676180 -0.0591827210 1 -1
0.1058227050 -0.0579921870 1 -1
0.1059582100 -0.0571705270 1 -1
0.1058530410 -0.0568083110 1 -1
0.1055016850 -0.0569544280 1 -1
0.1049147520 -0.0576093950 1 -1
0.1041205410 -0.0587218080 1 -1
0.1031672990 -0.0601903400 1 -1
0.1021243440 -0.0618720810 1 -1
0.1010803450 -0.0635961070 1 -1
0.1001370150 -0.0651805550 1 -1
0.0993950390 -0.0664517130 1 -1
0.0989328440 -0.0672634150 1 -1
0.0987875000 -0.0675143390 1 -1
0.0989492400 -0.0671603380 1 -1
0.0993719730 -0.0662194810 1 -1
0.0999905260 -0.0647691150 1 -1
0.1007332650 -0.0629359770 1 -1
0.1015270830 -0.0608815870 1 -1
0.1022989100 -0.0587854500 1 -1
0.1029771460 -0.0568281530 1 -1
0.1034939450 -0.0551757060 1 -1
0.1037896500 -0.0539659500 1 -1
0.1038206170 -0.0532976700 1 -1
0.1035683430 -0.0532228140 1 -1
0.1030453340 -0.0537419560 1 -1
0.1022947850 -0.0548034420 1 -1
0.1013846410 -0.0563075390 1 -1
0.1003986660 -0.0581164920 1 -1
0.0994267470 -0.0600688010 1 -1
0.0985550180 -0.0619941520 1 -1
0.0978558600 -0.0637266130 1 -1
0.0973790830 -0.0651161150 1 -1
0.0971471280 -0.0660392970 1 -1
0.0971561100 -0.0664106580 1 -1
0.0973811050 -0.0661935670 1 -1
0.0977821360 -0.0654089660 1 -1
0.0983089330 -0.0641383680 1 -1
0.0989047850 -0.0625180090 1 -1
0.0995106670 -0.0607237280 1 -1
0.1000704840 -0.0589497340 1 -1
0.1005367290 -0.0573856270 1 -1
0.1008748590 -0.0561950080 1 -1
0.1010652760 -0.0554980920 1 -1
0.1011027100 -0.0553600860 1 -1
0.1009943160 -0.0557861190 1 -1
0.1007588520 -0.0567226640 1 -1
0.1004281650 -0.0580654770 1 -1
0.1000491860 -0.0596734410 1 -1
0.0996832900 -0.0613857540 1 -1
0.0994014120 -0.0630389000 1 -1
0.0992752630 -0.0644817450 1 -1
0.0993652730 -0.0655890930 1 -1
0.0997074200 -0.0662731830 1 -1
0.1003041500 -0.0664909950 1 -1
0.1011239940 -0.0662463970 1 -1
0.1021091860 -0.0655885610 1 -1
0.1031861510 -0.0646076050 1 -1
0.1042738790 -0.0634261540 1 -1
0.1052888330 -0.0621856740 1 -1
0.1061483210 -0.0610295140 1 -1
0.1067752560 -0.0600865040 1 -1
0.1071061700 -0.0594578140 1 -1
0.1071021470 -0.0592081690 1 -1
0.1067594470 -0.0593618590 1 -1
0.1061147250 -0.0599029140 1 -1
0.1052411670 -0.0607776860 1 -1
0.1042357590 -0.0618987250 1 -1
0.1032016050 -0.0631505750 1 -1
0.1022312140 -0.0643987230 1 -1
0.1013957700 -0.0655021680 1 -1
0.1007414910 -0.0663289310 1 -1
0.1002906160 -0.0667725650 1 -1
0.1000448300 -0.0667658290 1 -1
0.0999915520 -0.0662879250 1 -1
0.1001136200 -0.0653654570 1 -1
0.1003974360 -0.0640696070 1 -1
0.1008309410 -0.0625104430 1 -1
0.1013902100 -0.0608276020 1 -1
0.1020252170 -0.0591768590 1 -1
0.1026561240 -0.0577131980 1 -1
0.1031827590 -0.0565728220 1 -1
0.1035028140 -0.0558578970 1 -1
0.1035320470 -0.0556268570 1 -1
0.1032206170 -0.0558908350 1 -1
0.1025619800 -0.0566153340 1 -1
0.1015929420 -0.0577257640 1 -1
0.1003855430 -0.0591152900 1 -1
0.0990331740 -0.0606539670 1 -1
0.0976353180 -0.0621993730 1 -1
0.0962863440 -0.0636089860 1 -1
0.0950707570 -0.0647531340 1 -1
0.0940618290 -0.0655267790 1 -1
0.0933191160 -0.0658588870 1 -1
0.0928834270 -0.0657185710 1 -1
0.0927703340 -0.0651174830 1 -1
0.0929638440 -0.0641085860 1 -1
0.0934128760 -0.0627814110 1 -1
0.0940341520 -0.0612539760 1 -1
0.0947232030 -0.0596625550 1 -1
0.0953715810 -0.0581505860 1 -1
0.0958854230 -0.0568568060 1 -1
0.0961989610 -0.0559022540 1 -1
0.0962785680 -0.0553770850 1 -1
0.0961189830 -0.0553299200 1 -1
0.0957367470 -0.0557628460 1 -1
0.0951639660 -0.0566328090 1 -1
0.0944437970 -0.0578575400 1 -1
0.0936289830 -0.0593241620 1 -1
0.0927824070 -0.0608999480 1 -1
0.0919762270 -0.0624444460 1 -1
0.0912869120 -0.0638215740 1 -1
0.0907858610 -0.0649110140 1 -1
0.0905276530 -0.0656191520 1 -1
0.0905401870 -0.0658887010 1 -1
0.0908208380 -0.0657050110 1 -1
0.0913392600 -0.0650980390 1 -1
0.0920439070 -0.0641402610 1 -1
0.0928700780 -0.0629409080 1 -1
0.0937489680 -0.0616366520 1 -1
0.0946159710 -0.0603785050 1 -1
0.0954165700 -0.0593150800 1 -1
0.0961101420 -0.0585746260 1 -1
0.0966711580 -0.0582497440 1 -1
0.0970868600 -0.0583872300 1 -1
0.0973546520 -0.0589834070 1 -1
0.0974836210 -0.0599847140 1 -1
0.0974986120 -0.0612938990 1 -1
0.0974408350 -0.0627820440 1 -1
0.0973634920 -0.0643047550 1 -1
0.0973267280 -0.0657186380 1 -1
0.0973936560 -0.0668948010 1 -1
0.0976250530 -0.0677286440 1 -1
0.0980732020 -0.0681469530 1 -1
0.0987781430 -0.0681133290 1 -1
0.0997651270 -0.0676319940 1 -1
0.1010375700 -0.0667491160 1 -1
0.1025647880 -0.0655505960 1 -1
0.1042732270 -0.0641551990 1 -1
0.1060507130 -0.0627027120 1 -1
0.1077633850 -0.0613388040 1 -1
0.1092765210 -0.0601997630 1 -1
0.1104717450 -0.0593998150 1 -1
0.1112592010 -0.0590220710 1 -1
0.1115860540 -0.0591123740 1 -1
0.1114421020 -0.0596750620 1 -1
0.1108622880 -0.0606708690 1 -1
0.1099248360 -0.0620182790 1 -1
0.1087431510 -0.0636000140 1 -1
0.1074511100 -0.0652758160 1 -1
0.1061845820 -0.0668994580 1 -1
0.1050639300 -0.0683341950 1 -1
0.1041807110 -0.0694624960 1 -1
0.1035891160 -0.0701921180 1 -1
0.1033019390 -0.0704632430 1 -1
0.1032920790 -0.0702572130 1 -1
0.1035007150 -0.0696027470 1 -1
0.1038504960 -0.0685758390 1 -1
0.1042585910 -0.0672922420 1 -1
0.1046445990 -0.0658936810 1 -1
0.1049335060 -0.0645309500 1 -1
0.1050584590 -0.0633479360 1 -1
0.1049663970 -0.0624688170 1 -1
0.1046245800 -0.0619879650 1 -1
0.1040255330 -0.0619616840 1 -1
0.1031905530 -0.0624026220 1 -1
0.1021715650 -0.0632781780 1 -1
0.1010484340 -0.0645125510 1 -1
0.0999199330 -0.0659916760 1 -1
0.0988900810 -0.0675719990 1 -1
0.0980529020 -0.0690942750 1 -1
0.0974791870 -0.0704010930 1 -1
0.0972087660 -0.0713551850 1 -1
0.0972488400 -0.0718558280 1 -1
0.0975757870 -0.0718507600 1 -1
0.0981385770 -0.0713413920 1 -1
0.0988647230 -0.0703810640 1 -1
0.0996698710 -0.0690679430 1 -1
0.1004695030 -0.0675344510 1 -1
0.1011893220 -0.0659344790 1 -1
0.1017716560 -0.0644293090 1 -1
0.1021772170 -0.0631732520 1 -1
0.1023839290 -0.0622995580 1 -1
0.1023860640 -0.0619065580 1 -1
0.1021953190 -0.0620447260 1 -1
0.1018431340 -0.0627074290 1 -1
0.1013831590 -0.0638291300 1 -1
0.1008902180 -0.0652931310 1 -1
0.1004497220 -0.0669481300 1 -1
0.1001377120 -0.0686301510 1 -1
0.1000017940 -0.0701841100 1 -1
0.1000539410 -0.0714798320 1 -1
0.1002765520 -0.0724213530 1 -1
0.1006345900 -0.0729509870 1 -1
0.1010857800 -0.0730492960 1 -1
0.1015860310 -0.0727324970 1 -1
0.1020915820 -0.0720495470 1 -1
0.1025589660 -0.0710794280 1 -1
0.1029434070 -0.0699262770 1 -1
0.1031989660 -0.0687102290 1 -1
0.1032834330 -0.0675546030 1 -1
0.1031653960 -0.0665722130 1 -1
0.1028280020 -0.0658539520 1 -1
0.1022685760 -0.0654617420 1 -1
0.1014982890 -0.0654256270 1 -1
0.1005438260 -0.0657430080 1 -1
0.0994483710 -0.0663785260 1 -1
0.0982695200 -0.0672649190 1 -1
0.0970748960 -0.0683062400 1 -1
0.0959370690 -0.0693844880 1 -1
0.0949280630 -0.0703697660 1 -1
0.0941121300 -0.0711330030 1 -1
0.0935362320 -0.0715593390 1 -1
0.0932218840 -0.0715604230 1 -1
0.0931634240 -0.0710846600 1 -1
0.0933321830 -0.0701247460 1 -1
0.0936812950 -0.0687216100 1 -1
0.0941485880 -0.0669640870 1 -1
0.0946602250 -0.0649838420 1 -1
0.0951372660 -0.0629445330 1 -1
0.0955037700 -0.0610245120 1 -1
0.0956949040 -0.0593947910 1 -1
0.0956647550 -0.0581972870 1 -1
0.0953926690 -0.0575289520 1 -1
0.0948864530 -0.0574342510 1 -1
0.0941812990 -0.0579046180 1 -1
0.0933341820 -0.0588826650 1 -1
0.0924162460 -0.0602701470 1 -1
0.0915069500 -0.0619390600 1 -1
0.0906894370 -0.0637440010 1 -1
0.0900429290 -0.0655337560 1 -1
0.0896318820 -0.0671617610 1 -1
0.0894967430 -0.0684963640 1 -1
0.0896493290 -0.0694312220 1 -1
0.0900721950 -0.0698953120 1 -1
0.0907218310 -0.0698615680 1 -1
0.0915361600 -0.0693525160 1 -1
0.0924445390 -0.0684407010 1 -1
0.0933764910 -0.0672422180 1 -1
0.0942669860 -0.0659031090 1 -1
0.0950606810 -0.0645807670 1 -1
0.0957189750 -0.0634245550 1 -1
0.0962271970 -0.0625596090 1 -1
0.0965929640 -0.0620755200 1 -1
0.0968323320 -0.0620201280 1 -1
0.0969530390 -0.0623984190 1 -1
0.0969487460 -0.0631753960 1 -1
0.0968088680 -0.0642805710 1 -1
0.0965349850 -0.0656127190 1 -1
0.0961505520 -0.0670459730 1 -1
0.0956992770 -0.0684393710 1 -1
0.0952375180 -0.0696506900 1 -1
0.0948266540 -0.0705531970 1 -1
0.0945258820 -0.0710522820 1 -1
0.0943829350 -0.0710982700 1 -1
0.0944222080 -0.0706924210 1 -1
0.0946343190 -0.0698854320 1 -1
0.0949735550 -0.0687699960 1 -1
0.0953661980 -0.0674692170 1 -1
0.0957267130 -0.0661223560 1 -1
0.0959759120 -0.0648698480 1 -1
0.0960557210 -0.0638391830 1 -1
0.0959366200 -0.0631330170 1 -1
0.0956169360 -0.0628214500 1 -1
0.0951176580 -0.0629391720 1 -1
0.0944773060 -0.0634850890 1 -1
0.0937475410 -0.0644222820 1 -1
0.0929876220 -0.0656795200 1 -1
0.0922574970 -0.0671566620 1 -1
0.0916111250 -0.0687335300 1 -1
0.0910912510 -0.0702799660 1 -1
0.0907269950 -0.0716662240 1 -1
0.0905352640 -0.0727743710 1 -1
0.0905237510 -0.0735101620 1 -1
0.0906919050 -0.0738132260 1 -1
0.0910300120 -0.0736639380 1 -1
0.0915187760 -0.0730864270 1 -1
0.0921295390 -0.0721471250 1 -1
0.0928241690 -0.0709485290 1 -1
0.0935549740 -0.0696189710 1 -1
0.0942655590 -0.0683001360 1 -1
0.0948933590 -0.0671337170 1 -1
0.0953748240 -0.0662477400 1 -1
0.0956536680 -0.0657434480 1 -1
0.0956905910 -0.0656844270 1 -1
0.0954719610 -0.0660892370 1 -1
0.0950152500 -0.0669284870 1 -1
0.0943692570 -0.0681274020 1 -1
0.0936081630 -0.0695740090 1 -1
0.0928208770 -0.0711311260 1 -1
0.0920985700 -0.0726498030 1 -1
0.0915230640 -0.0739828380 1 -1
0.0911590560 -0.0749981370 1 -1
0.0910524830 -0.0755915630 1 -1
0.0912324830 -0.0756978520 1 -1
0.0917090320 -0.0752980560 1 -1
0.0924611480 -0.0744229030 1 -1
0.0934222900 -0.0731515200 1 -1
0.0944773790 -0.0716043680 1 -1
0.0954787850 -0.0699305240 1 -1
0.0962748780 -0.0682916620 1 -1
0.0967392510 -0.0668451010 1 -1
0.0967918370 -0.0657271150 1 -1
0.0964075400 -0.0650383860 1 -1
0.0956123490 -0.0648346670 1 -1
0.0944712300 -0.0651240320 1 -1
0.0930735660 -0.0658688920 1 -1
0.0915199340 -0.0669902380 1 -1
0.0899112130 -0.0683735140 1 -1
0.0883400400 -0.0698769350 1 -1
0.0868850490 -0.0713428900 1 -1
0.0856086010 -0.0726123210 1 -1
0.0845581620 -0.0735414770 1 -1
0.0837695460 -0.0740196610 1 -1
0.0832687940 -0.0739850340 1 -1
0.0830704290 -0.0734341260 1 -1
0.0831722910 -0.0724215870 1 -1
0.0835495180 -0.0710503800 1 -1
0.0841510970 -0.0694563290 1 -1
0.0849015680 -0.0677914280 1 -1
0.0857086050 -0.0662080510 1 -1
0.0864750340 -0.0648444930 1 -1
0.0871124650 -0.0638126570 1 -1
0.0875530500 -0.0631891250 1 -1
0.0877560220 -0.0630102040 1 -1
0.0877082460 -0.0632707370 1 -1
0.0874218210 -0.0639262560 1 -1
0.0869321000 -0.0648980830 1 -1
0.0862953640 -0.0660811780 1 -1
0.0855834970 -0.0673543660 1 -1
0.0848764340 -0.0685919160 1 -1
0.0842553910 -0.0696748410 1 -1
0.0837972440 -0.0705011790 1 -1
0.0835680160 -0.0709951960 1 -1
0.0836144940 -0.0711142960 1 -1
0.0839547620 -0.0708513220 1 -1
0.0845700020 -0.0702317930 1 -1
0.0854023870 -0.0693087800 1 -1
0.0863628720 -0.0681588330 1 -1
0.0873462190 -0.0668795060 1 -1
0.0882464650 -0.0655859890 1 -1
0.0889688420 -0.0644042570 1 -1
0.0894387020 -0.0634597750 1 -1
0.0896093470 -0.0628624590 1 -1
0.0894685490 -0.0626901160 1 -1
0.0890408110 -0.0629742680 1 -1
0.0883824010 -0.0636927070 1 -1
0.0875700470 -0.0647710030 1 -1
0.0866885010 -0.0660919680 1 -1
0.0858216720 -0.0675105200 1 -1
0.0850472860 -0.0688714400 1 -1
0.0844325390 -0.0700277080 1 -1
0.0840299000 -0.0708572220 1 -1
0.0838732430 -0.0712758570 1 -1
0.0839743070 -0.0712456790 1 -1
0.0843211180 -0.0707782210 1 -1
0.0848808480 -0.0699328220 1 -1
0.0856058580 -0.0688098730 1 -1
0.0864375900 -0.0675394550 1 -1
0.0873058280 -0.0662671930 1 -1
0.0881282130 -0.0651398320 1 -1
0.0888163780 -0.0642921660 1 -1
0.0892886100 -0.0638361350 1 -1
0.0894836450 -0.0638520250 1 -1
0.0893708450 -0.0643807300 1 -1
0.0889546760 -0.0654165090 1 -1
0.0882728440 -0.0669025730 1 -1
0.0873893240 -0.0687334090 1 -1
0.0863847940 -0.0707654730 1 -1
0.0853458470 -0.0728339610 1 -1
0.0843539960 -0.0747717210 1 -1
0.0834776580 -0.0764272530 1 -1
0.0827685840 -0.0776795120 1 -1
0.0822594340 -0.0784473570 1 -1
0.0819600990 -0.0786927060 1 -1
0.0818567980 -0.0784190180 1 -1
0.0819186910 -0.0776683640 1 -1
0.0821094540 -0.0765194720 1 -1
0.0823966050 -0.0750857960 1 -1
0.0827540440 -0.0735098000 1 -1
0.0831577950 -0.0719509410 1 -1
0.0835789540 -0.0705691180 1 -1
0.0839802540 -0.0695076830 1 -1
0.0843196470 -0.0688790080 1 -1
0.0845584330 -0.0687537260 1 -1
0.0846697050 -0.0691542920 1 -1
0.0846448320 -0.0700531460 1 -1
0.0844963500 -0.0713747370 1 -1
0.0842556250 -0.0730010000 1 -1
0.0839656230 -0.0747812670 1 -1
0.0836718430 -0.0765471460 1 -1
0.0834147570 -0.0781308980 1 -1
0.0832250850 -0.0793848410 1 -1
0.0831219430 -0.0801986980 1 -1
0.0831135420 -0.0805105850 1 -1
0.0831991610 -0.0803088150 1 -1
0.0833702680 -0.0796263200 1 -1
0.0836094210 -0.0785322910 1 -1
0.0838879530 -0.0771243360 1 -1
0.0841654270 -0.0755217560 1 -1
0.0843931600 -0.0738585280 1 -1
0.0845217220 -0.0722743240 1 -1
0.0845104190 -0.0709030450 1 -1
0.0843359770 -0.0698599670 1 -1
0.0839978390 -0.0692291940 1 -1
0.0835189010 -0.0690533240 1 -1
0.0829423480 -0.0693274960 1 -1
0.0823256540 -0.0699993040 1 -1
0.0817327410 -0.0709742870 1 -1
0.0812263860 -0.0721256730 1 -1
0.0808637740 -0.0733075200 1 -1
0.0806965900 -0.0743704990 1 -1
0.0807720460 -0.0751784110 1 -1
0.0811272980 -0.0756230880 1 -1
0.0817753370 -0.0756362580 1 -1
0.0826917030 -0.0751970670 1 -1
0.0838124070 -0.0743336680 1 -1
0.0850422550 -0.0731186550 1 -1
0.0862652300 -0.0716603340 1 -1
0.0873541780 -0.0700921240 1 -1
0.0881840260 -0.0685610780 1 -1
0.0886492850 -0.0672154330 1 -1
0.0886802010 -0.0661909070 1 -1
0.0882521440 -0.0655962590 1 -1
0.0873872610 -0.0654994930 1 -1
0.0861503110 -0.0659169350 1 -1
0.0846402140 -0.0668081570 1 -1
0.0829773500 -0.0680789260 1 -1
0.0812873890 -0.0695922810 1 -1
0.0796852940 -0.0711860110 1 -1
0.0782643710 -0.0726934680 1 -1
0.0770925510 -0.0739636240 1 -1
0.0762138510 -0.0748761080 1 -1
0.0756515550 -0.0753492510 1 -1
0.0754113050 -0.0753430790 1 -1
0.0754834850 -0.0748603390 1 -1
0.0758442260 -0.0739462700 1 -1
0.0764553510 -0.0726858440 1 -1
0.0772642780 -0.0711972490 1 -1
0.0782038890 -0.0696214150 1 -1
0.0791926480 -0.0681086670 1 -1
0.0801380610 -0.0668041280 1 -1
0.0809463490 -0.0658331180 1 -1
0.0815354810 -0.0652875730 1 -1
0.0818452470 -0.0652151330 1 -1
0.0818426070 -0.0656131270 1 -1
0.0815254060 -0.0664287460 1 -1
0.0809247020 -0.0675651060 1 -1
0.0801018270 -0.0688923090 1 -1
0.0791395020 -0.0702622280 1 -1
0.0781310340 -0.0715249240 1 -1
0.0771706560 -0.0725445840 1 -1
0.0763452410 -0.0732138240 1 -1
0.0757267490 -0.0734648730 1 -1
0.0753651460 -0.0732748240 1 -1
0.0752825080 -0.0726634430 1 -1
0.0754702850 -0.0716858630 1 -1
0.0758909660 -0.0704246150 1 -1
0.0764836620 -0.0689836780 1 -1
0.0771733590 -0.0674840040 1 -1
0.0778831260 -0.0660577460 1 -1
0.0785450540 -0.0648382610 1 -1
0.0791051730 -0.0639457780 1 -1
0.0795226500 -0.0634722760 1 -1
0.0797676820 -0.0634699700 1 -1
0.0798217850 -0.0639456090 1 -1
0.0796813100 -0.0648600900 1 -1
0.0793640270 -0.0661323580 1 -1
0.0789178950 -0.0676474390 1 -1
0.0784254700 -0.0692682130 1 -1
0.0779925800 -0.0708490120 1 -1
0.0777198570 -0.0722488320 1 -1
0.0776732410 -0.0733436320 1 -1
0.0778696770 -0.0740383980 1 -1
0.0782782780 -0.0742781270 1 -1
0.0788297470 -0.0740547050 1 -1
0.0794313400 -0.0734075130 1 -1
0.0799857190 -0.0724183920 1 -1
0.0804086130 -0.0712025370 1 -1
0.0806406930 -0.0698962980 1 -1
0.0806524150 -0.0686427410 1 -1
0.0804421030 -0.0675767220 1 -1
0.0800288930 -0.0668119970 1 -1
0.0794443790 -0.0664316590 1 -1
0.0787271980 -0.0664804940 1 -1
0.0779224530 -0.0669578870 1 -1
0.0770839430 -0.0678136110 1 -1
0.0762748260 -0.0689510990 1 -1
0.0755635560 -0.0702397850 1 -1
0.0750151750 -0.0715332640 1 -1
0.0746812180 -0.0726877670 1 -1
0.0745924770 -0.0735767600 1 -1
0.0747567800 -0.0741003540 1 -1
0.0751607690 -0.0741906930 1 -1
0.0757731270 -0.0738157460 1 -1
0.0765477150 -0.0729834710 1 -1
0.0774270510 -0.0717456020 1 -1
0.0783469510 -0.0701971400 1 -1
0.0792416180 -0.0684681280 1 -1
0.0800472870 -0.0667091520 1 -1
0.0807039120 -0.0650757350 1 -1
0.0811565190 -0.0637153690 1 -1
0.0813583460 -0.0627567580 1 -1
0.0812765180 -0.0622990790 1 -1
0.0808984020 -0.0624007070 1 -1
0.0802354440 -0.0630695010 1 -1
0.0793233200 -0.0642578950 1 -1
0.0782196410 -0.0658653130 1 -1
0.0770004780 -0.0677479590 1 -1
0.0757565470 -0.0697335250 1 -1
0.0745887010 -0.0716381110 1 -1
0.0735995170 -0.0732840870 1 -1
0.0728790160 -0.0745179950 1 -1
0.0724885470 -0.0752266710 1 -1
0.0724496280 -0.0753490740 1 -1
0.0727415060 -0.0748819560 1 -1
0.0733070970 -0.0738792170 1 -1
0.0740641910 -0.0724459010 1 -1
0.0749177250 -0.0707274150 1 -1
0.0757700590 -0.0688941260 1 -1
0.0765291600 -0.0671224900 1 -1
0.0771170480 -0.0655758090 1 -1
0.0774798540 -0.0643882310 1 -1
0.0775967140 -0.0636540900 1 -1
0.0774819270 -0.0634224810 1 -1
0.0771771630 -0.0636953750 1 -1
0.0767368420 -0.0644277380 1 -1
0.0762144160 -0.0655302430 1 -1
0.0756558070 -0.0668767440 1 -1
0.0751010220 -0.0683171810 1 -1
0.0745899870 -0.0696939290 1 -1
0.0741657460 -0.0708587030 1 -1
0.0738701150 -0.0716879070 1 -1
0.0737336030 -0.0720953920 1 -1
0.0737670380 -0.0720420150 1 -1
0.0739606190 -0.0715408040 1 -1
0.0742887950 -0.0706558730 1 -1
0.0747148400 -0.0694945030 1 -1
0.0751921140 -0.0681941920 1 -1
0.0756646850 -0.0669072740 1 -1
0.0760710150 -0.0657851460 1 -1
0.0763513210 -0.0649636040 1 -1
0.0764569530 -0.0645503880 1 -1
0.0763595280 -0.0646154630 1 -1
0.0760569680 -0.0651839970 1 -1
0.0755740380 -0.0662323680 1 -1
0.0749570880 -0.0676888320 1 -1
0.0742654170 -0.0694404440 1 -1
0.0735632520 -0.0713458790 1 -1
0.0729148720 -0.0732516030 1 -1
0.0723813590 -0.0750077360 1 -1
0.0720160300 -0.0764804350 1 -1
0.0718584530 -0.0775600150 1 -1
0.0719290450 -0.0781664200 1 -1
0.0722255060 -0.0782537380 1 -1
0.0727219190 -0.0778135920 1 -1
0.0733716870 -0.0768763410 1 -1
0.0741138570 -0.0755099960 1 -1
0.0748810000 -0.0738173860 1 -1
0.0756076740 -0.0719308230 1 -1
0.0762380290 -0.0700022850 1 -1
0.0767297300 -0.0681887030 1 -1
0.0770536320 -0.0666353700 1 -1
0.0771922960 -0.0654613580 1 -1
0.0771401220 -0.0647482980 1 -1
0.0769048690 -0.0645325070 1 -1
0.0765089610 -0.0648016550 1 -1
0.0759898190 -0.0654970400 1 -1
0.0753986440 -0.0665203810 1 -1
0.0747964270 -0.0677433230 1 -1
0.0742467000 -0.0690193640 1 -1
0.0738068960 -0.0701988620 1 -1
0.0735219850 -0.0711458490 1 -1
0.0734217460 -0.0717529140 1 -1
0.0735185410 -0.0719511890 1 -1
0.0738032200 -0.0717153500 1 -1
0.0742417820 -0.0710649650 1 -1
0.0747766870 -0.0700631030 1 -1
0.0753339190 -0.0688117750 1 -1
0.0758347240 -0.0674431250 1 -1
0.0762100520 -0.0661063980 1 -1
0.0764141180 -0.0649521350 1 -1
0.0764315850 -0.0641153240 1 -1
0.0762732010 -0.0636995890 1 -1
0.0759614800 -0.0637648890 1 -1
0.0755169990 -0.0643205980 1 -1
0.0749553320 -0.0653246300 1 -1
0.0742943580 -0.0666884130 1 -1
0.0735640990 -0.0682867780 1 -1
0.0728114780 -0.0699714570 1 -1
0.0720967240 -0.0715864660 1 -1
0.0714832440 -0.0729832190 1 -1
0.0710259430 -0.0740341820 1 -1
0.0707626260 -0.0746446230 1 -1
0.0707107510 -0.0747610380 1 -1
0.0708686310 -0.0743745580 1 -1
0.0712175150 -0.0735197250 1 -1
0.0717217310 -0.0722705380 1 -1
0.0723282520 -0.0707349150 1 -1
0.0729696720 -0.0690473500 1 -1
0.0735727250 -0.0673589930 1 -1
0.0740696050 -0.0658246430 1 -1
0.0744065430 -0.0645877280 1 -1
0.0745472160 -0.0637655030 1 -1
0.0744735730 -0.0634365000 1 -1
0.0741872220 -0.0636314390 1 -1
0.0737108150 -0.0643287250 1 -1
0.0730869360 -0.0654555350 1 -1
0.0723739110 -0.0668948610 1 -1
0.0716404130 -0.0684977420 1 -1
0.0709598600 -0.0700987060 1 -1
0.0704028330 -0.0715321280 1 -1
0.0700270490 -0.0726481360 1 -1
0.0698687160 -0.0733274110 1 -1
0.0699388820 -0.0734938120 1 -1
0.0702244450 -0.0731232140 1 -1
0.0706917210 -0.0722470680 1 -1
0.0712908210 -0.0709496120 1 -1
0.0719595780 -0.0693582440 1 -1
0.0726268730 -0.0676280650 1 -1
0.0732164130 -0.0659238250 1 -1
0.0736524050 -0.0644032190 1 -1
0.0738683450 -0.0632029260 1 -1
0.0738189930 -0.0624262650 1 -1
0.0734921930 -0.0621321960 1 -1
0.0729143320 -0.0623278720 1 -1
0.0721462890 -0.0629674430 1 -1
0.0712729160 -0.0639580860 1 -1
0.0703903900 -0.0651720840 1 -1
0.0695930290 -0.0664622150 1 -1
0.0689617240 -0.0676773630 1 -1
0.0685587870 -0.0686767020 1 -1
0.0684301110 -0.0693422880 1 -1
0.0686064260 -0.0695899500 1 -1
0.0690952070 -0.0693774330 1 -1
0.0698671420 -0.0687084530 1 -1
0.0708501170 -0.0676318960 1 -1
0.0719377220 -0.0662361780 1 -1
0.0730075900 -0.0646388720 1 -1
0.0739407150 -0.0629724970 1 -1
0.0746361440 -0.0613702240 1 -1
0.0750194520 -0.0599561120 1 -1
0.0750460360 -0.0588399860 1 -1
0.0747024050 -0.0581124260 1 -1
0.0740083450 -0.0578370180 1 -1
0.0730186290 -0.0580418800 1 -1
0.0718189810 -0.0587141460 1 -1
0.0705133190 -0.0597989670 1 -1
0.0692069940 -0.0612023320 1 -1
0.0679942690 -0.0627968330 1 -1
0.0669529730 -0.0644308830 1 -1
0.0661425190 -0.0659423550 1 -1
0.0656012910 -0.0671762590 1 -1
0.0653437930 -0.0680040640 1 -1
0.0653596550 -0.0683409400 1 -1
0.0656149010 -0.0681571930 1 -1
0.0660556830 -0.0674820010 1 -1
0.0666152500 -0.0663997540 1 -1
0.0672229840 -0.0650397750 1 -1
0.0678124780 -0.0635602150 1 -1
0.0683268180 -0.0621288120 1 -1
0.0687221810 -0.0609042340 1 -1
0.0689716150 -0.0600197470 1 -1
0.0690680930 -0.0595688930 1 -1
0.0690240470 -0.0595946100 1 -1
0.0688668120 -0.0600854460 1 -1
0.0686327130 -0.0609804760 1 -1
0.0683629850 -0.0621803340 1 -1
0.0681021430 -0.0635603280 1 -1
0.0678967580 -0.0649833370 1 -1
0.0677926360 -0.0663120280 1 -1
0.0678295410 -0.0674204130 1 -1
0.0680333400 -0.0682045660 1 -1
0.0684083850 -0.0685920540 1 -1
0.0689350800 -0.0685492360 1 -1
0.0695734660 -0.0680851330 1 -1
0.0702688810 -0.0672509390 1 -1
0.0709571370 -0.0661355740 1 -1
0.0715698290 -0.0648585590 1 -1
0.0720404140 -0.0635603400 1 -1
0.0723107540 -0.0623888750 1 -1
0.0723379090 -0.0614829450 1 -1
0.0721003980 -0.0609556560 1 -1
0.0716021180 -0.0608818360 1 -1
0.0708725890 -0.0612905900 1 -1
0.0699636090 -0.0621626010 1 -1
0.0689430390 -0.0634317320 1 -1
0.0678875850 -0.0649905190 1 -1
0.0668777120 -0.0666995260 1 -1
0.0659950740 -0.0684006350 1 -1
0.0653180350 -0.0699328590 1 -1
0.0649113710 -0.0711477640 1 -1
0.0648127480 -0.0719224340 1 -1
0.0650232620 -0.0721700260 1 -1
0.0655070460 -0.0718490860 1 -1
0.0661993530 -0.0709711710 1 -1
0.0670190550 -0.0696032890 1 -1
0.0678812410 -0.0678617570 1 -1
0.0687067260 -0.0658982260 1 -1
0.0694275480 -0.0638824290 1 -1
0.0699896300 -0.0619857790 1 -1
0.0703542830 -0.0603669810 1 -1
0.0704995540 -0.0591590620 1 -1
0.0704211490 -0.0584579050 1 -1
0.0701309960 -0.0583134070 1 -1
0.0696518770 -0.0587246180 1 -1
0.0690104700 -0.0596393360 1 -1
0.0682339150 -0.0609582910 1 -1
0.0673516640 -0.0625445390 1 -1
0.0663987190 -0.0642380150 1 -1
0.0654166300 -0.0658726390 1 -1
0.0644531880 -0.0672923590 1 -1
0.0635620770 -0.0683642880 1 -1
0.0628003590 -0.0689887730 1 -1
0.0622220130 -0.0691060930 1 -1
0.0618694170 -0.0686992720 1 -1
0.0617662030 -0.0677940120 1 -1
0.0619123050 -0.0664577730 1 -1
0.0622803900 -0.0647977090 1 -1
0.0628157030 -0.0629545080 1 -1
0.0634427110 -0.0610905100 1 -1
0.0640775730 -0.0593737450 1 -1
0.0646411080 -0.0579608130 1 -1
0.0650687100 -0.0569807450 1 -1
0.0653179770 -0.0565211120 1 -1
0.0653740470 -0.0566179860 1 -1
0.0652491660 -0.0572520420 1 -1
0.0649757270 -0.0583521600 1 -1
0.0645970870 -0.0598051510 1 -1
0.0641603430 -0.0614682030 1 -1
