-0.0106818240 0.0019752790 0 0
-0.0111198870 0.0004070120 0 0
-0.0116167840 -0.0014974730 0 0
-0.0120929210 -0.0035770160 0 0
-0.0124749530 -0.0056527570 0 0
-0.0127009380 -0.0075456530 0 0
-0.0127251750 -0.0090928930 0 0
-0.0125240670 -0.0101618320 0 0
-0.0121001540 -0.0106612210 0 0
-0.0114811290 -0.0105496640 0 0
-0.0107144220 -0.0098411190 0 0
-0.0098599200 -0.0086062950 0 0
-0.0089824720 -0.0069683670 0 0
-0.0081449420 -0.0050926160 0 0
-0.0074022510 -0.0031704800 0 0
-0.0067968350 -0.0013994150 0 0
-0.0063558390 0.0000383760 0 0
-0.0060900400 0.0009953230 0 0
-0.0059949020 0.0013747130 0 0
-0.0060547460 0.0011427950 0 0
-0.0062486810 0.0003343680 0 0
-0.0065532530 -0.0009506640 0 0
-0.0069390740 -0.0025598430 0 0
-0.0073663960 -0.0043073470 0 0
-0.0077872650 -0.0059960160 0 0
-0.0081556310 -0.0074383140 0 0
-0.0084389080 -0.0084738160 0 0
-0.0086234860 -0.0089832900 0 0
-0.0087128340 -0.0088996940 0 0
-0.0087224960 -0.0082149700 0 0
-0.0086758110 -0.0069816290 0 0
-0.0086002670 -0.0053090080 0 0
-0.0085230300 -0.0033534890 0 0
-0.0084667100 -0.0013020090 0 0
-0.0084482830 0.0006496750 0 0
-0.0084813170 0.0023203910 0 0
-0.0085777630 0.0035644060 0 0
-0.0087467840 0.0042861870 0 0
-0.0089923680 0.0044470860 0 0
-0.0093120250 0.0040635690 0 0
-0.0096960770 0.0031988970 0 0
-0.0101266060 0.0019522540 0 0
-0.0105771580 0.0004484290 0 0
-0.0110144880 -0.0011721290 0 0
-0.0114015700 -0.0027646330 0 0
-0.0117002270 -0.0041927530 0 0
-0.0118730910 -0.0053402960 0 0
-0.0118860060 -0.0061192700 0 0
-0.0117122980 -0.0064744080 0 0
-0.0113389620 -0.0063860280 0 0
-0.0107726340 -0.0058723070 0 0
-0.0100429710 -0.0049901130 0 0
-0.0092027930 -0.0038322600 0 0
-0.0083253980 -0.0025200570 0 0
-0.0074986030 -0.0011921070 0 0
-0.0068150540 0.0000090766 0 0
-0.0063604690 0.0009512080 0 0
-0.0062026170 0.0015258990 0 0
-0.0063830290 0.0016610280 0 0
-0.0069118390 0.0013307430 0 0
-0.0077653870 0.0005610380 0 0
-0.0088867760 -0.0005708420 0 0
-0.0101892860 -0.0019436740 0 0
-0.0115622900 -0.0034054760 0 0
-0.0128813030 -0.0047904240 0 0
-0.0140234710 -0.0059361420 0 0
-0.0148852990 -0.0066991790 0 0
-0.0153971420 -0.0069687570 0 0
-0.0155302140 -0.0066791970 0 0
-0.0152943650 -0.0058191980 0 0
-0.0147297220 -0.0044355120 0 0
-0.0138990370 -0.0026305610 0 0
-0.0128845700 -0.0005543770 0 0
-0.0117866160 0.0016091260 0 0
-0.0107181000 0.0036599580 0 0
-0.0097920420 0.0054011560 0 0
-0.0091037930 0.0066578070 0 0
-0.0087142640 0.0072951970 0 0
-0.0086402270 0.0072340900 0 0
-0.0088539830 0.0064606150 0 0
-0.0092905510 0.0050292060 0 0
-0.0098587250 0.0030587180 0 0
-0.0104534750 0.0007229330 0 0
-0.0109695110 -0.0017641430 0 0
-0.0113157800 -0.0041687140 0 0
-0.0114280710 -0.0062623640 0 0
-0.0112759530 -0.0078478350 0 0
-0.0108630280 -0.0087802400 0 0
-0.0102217130 -0.0089805490 0 0
-0.0094043700 -0.0084412340 0 0
-0.0084739000 -0.0072253960 0 0
-0.0074972460 -0.0054599120 0 0
-0.0065424990 -0.0033225600 0 0
-0.0056764520 -0.0010243420 0 0
-0.0049590890 0.0012102990 0 0
-0.0044357780 0.0031633420 0 0
-0.0041315720 0.0046428770 0 0
-0.0040506270 0.0055027380 0 0
-0.0041792320 0.0056600340 0 0
-0.0044884480 0.0051064650 0 0
-0.0049350440 0.0039099760 0 0
-0.0054633460 0.0022057880 0 0
-0.0060093270 0.0001780250 0 0
-0.0065054490 -0.0019648090 0 0
-0.0068859050 -0.0040154850 0 0
-0.0070937670 -0.0057895830 0 0
-0.0070895880 -0.0071399110 0 0
-0.0068584180 -0.0079644690 0 0
-0.0064126840 -0.0082106490 0 0
-0.0057905300 -0.0078778050 0 0
-0.0050505040 -0.0070179930 0 0
-0.0042637990 -0.0057325880 0 0
-0.0035055260 -0.0041630150 0 0
-0.0028466800 -0.0024767290 0 0
-0.0023477640 -0.0008513380 0 0
-0.0020540850 0.0005411070 0 0
-0.0019932290 0.0015494720 0 0
-0.0021756780 0.0020586040 0 0
-0.0025978090 0.0020028520 0 0
-0.0032444490 0.0013755340 0 0
-0.0040883250 0.0002317820 0 0
-0.0050864270 -0.0013170070 0 0
-0.0061768840 -0.0031167150 0 0
-0.0072808830 -0.0049884170 0 0
-0.0083115910 -0.0067460200 0 0
-0.0091876530 -0.0082116400 0 0
-0.0098459600 -0.0092297550 0 0
-0.0102495210 -0.0096812660 0 0
-0.0103898210 -0.0094966210 0 0
-0.0102846830 -0.0086653610 0 0
-0.0099723760 -0.0072396810 0 0
-0.0095037090 -0.0053307350 0 0
-0.0089347400 -0.0030972570 0 0
-0.0083210680 -0.0007278470 0 0
-0.0077131050 0.0015790330 0 0
-0.0071524920 0.0036326970 0 0
-0.0066695540 0.0052637730 0 0
-0.0062805090 0.0063353340 0 0
-0.0059852680 0.0067539750 0 0
-0.0057696930 0.0064807890 0 0
-0.0056134310 0.0055394320 0 0
-0.0054988780 0.0040181200 0 0
-0.0054161730 0.0020637420 0 0
-0.0053630920 -0.0001328250 0 0
-0.0053412820 -0.0023592480 0 0
-0.0053495040 -0.0044078100 0 0
-0.0053751230 -0.0060990910 0 0
-0.0053889800 -0.0072989630 0 0
-0.0053492720 -0.0079276530 0 0
-0.0052130380 -0.0079623490 0 0
-0.0049473780 -0.0074361240 0 0
-0.0045353960 -0.0064346950 0 0
-0.0039785320 -0.0050900240 0 0
-0.0032980060 -0.0035690780 0 0
-0.0025348950 -0.0020582190 0 0
-0.0017479800 -0.0007453870 0 0
-0.0010096140 0.0001983490 0 0
-0.0003980690 0.0006365170 0 0
0.0000161676 0.0004822190 0 0
0.0001879040 -0.0002919330 0 0
0.0001106950 -0.0016500380 0 0
-0.0001803840 -0.0034950950 0 0
-0.0006170550 -0.0056768190 0 0
-0.0011132190 -0.0080055420 0 0
-0.0015810170 -0.0102721150 0 0
-0.0019414390 -0.0122712440 0 0
-0.0021293450 -0.0138240830 0 0
-0.0020977270 -0.0147965980 0 0
-0.0018233180 -0.0151121640 0 0
-0.0013111810 -0.0147580620 0 0
-0.0005957420 -0.0137856740 0 0
0.0002621800 -0.0123040410 0 0
0.0011817930 -0.0104672530 0 0
0.0020718440 -0.0084572700 0 0
0.0028424770 -0.0064648140 0 0
0.0034176330 -0.0046716190 0 0
0.0037453060 -0.0032358980 0 0
0.0038030380 -0.0022800730 0 0
0.0035980210 -0.0018794200 0 0
0.0031638560 -0.0020528360 0 0
0.0025560890 -0.0027587380 0 0
0.0018461990 -0.0038982030 0 0
0.0011129230 -0.0053253900 0 0
0.0004321850 -0.0068638540 0 0
-0.0001317710 -0.0083263570 0 0
-0.0005329200 -0.0095347470 0 0
-0.0007473560 -0.0103373670 0 0
-0.0007735000 -0.0106235700 0 0
-0.0006284080 -0.0103351780 0 0
-0.0003418240 -0.0094734270 0 0
0.0000493507 -0.0081000090 0 0
0.0005040860 -0.0063316180 0 0
0.0009776440 -0.0043279200 0 0
0.0014208480 -0.0022738920 0 0
0.0017803680 -0.0003590390 0 0
0.0020019080 0.0012426940 0 0
0.0020360360 0.0023888610 0 0
0.0018456980 0.0029796220 0 0
0.0014154590 0.0029655310 0 0
0.0007608370 0.0023522970 0 0
-0.0000667670 0.0012012590 0 0
-0.0009833690 -0.0003752580 0 0
-0.0018842770 -0.0022236640 0 0
-0.0026608770 -0.0041632960 0 0
-0.0032167860 -0.0060037130 0 0
-0.0034798390 -0.0075629120 0 0
-0.0034097890 -0.0086844690 0 0
-0.0030032210 -0.0092524200 0 0
-0.0022963910 -0.0092024940 0 0
-0.0013643020 -0.0085273680 0 0
-0.0003127150 -0.0072748240 0 0
0.0007380540 -0.0055408330 0 0
0.0016733430 -0.0034605660 0 0
0.0024008530 -0.0011983260 0 0
0.0028592080 0.0010643660 0 0
0.0030194950 0.0031433190 0 0
0.0028829140 0.0048685380 0 0
0.0024762090 0.0061012350 0 0
0.0018457120 0.0067478580 0 0
0.0010508650 0.0067696610 0 0
0.0001578820 0.0061885680 0 0
-0.0007662730 0.0050895840 0 0
-0.0016592910 0.0036172350 0 0
-0.0024681330 0.0019628720 0 0
-0.0031539350 0.0003427700 0 0
-0.0036970770 -0.0010296220 0 0
-0.0040984870 -0.0019725820 0 0
-0.0043747690 -0.0023610270 0 0
-0.0045506390 -0.0021427950 0 0
-0.0046530510 -0.0013441970 0 0
-0.0047089210 -0.0000646797 0 0
-0.0047475270 0.0015389350 0 0
-0.0048056550 0.0032765910 0 0
-0.0049281000 0.0049525340 0 0
-0.0051579210 0.0063897130 0 0
-0.0055210170 0.0074463350 0 0
-0.0060154940 0.0080245010 0 0
-0.0066116720 0.0080739670 0 0
-0.0072600530 0.0075930850 0 0
-0.0079007500 0.0066264730 0 0
-0.0084709930 0.0052586500 0 0
-0.0089121570 0.0036044910 0 0
-0.0091777230 0.0017983990 0 0
-0.0092403100 -0.0000163974 0 0
-0.0090943340 -0.0016980290 0 0
-0.0087523720 -0.0031162680 0 0
-0.0082373940 -0.0041632660 0 0
-0.0075761670 -0.0047638140 0 0
-0.0067968840 -0.0048834590 0 0
-0.0059295580 -0.0045327240 0 0
-0.0050074550 -0.0037659650 0 0
-0.0040696870 -0.0026747900 0 0
-0.0031634820 -0.0013779200 0 0
-0.0023426620 -0.0000100950 0 0
-0.0016608120 0.0012886310 0 0
-0.0011609790 0.0023833320 0 0
-0.0008661610 0.0031550610 0 0
-0.0007750570 0.0035118710 0 0
-0.0008643560 0.0033989500 0 0
-0.0010951740 0.0028068020 0 0
-0.0014211070 0.0017764200 0 0
-0.0017962590 0.0003994650 0 0
-0.0021806910 -0.0011886330 0 0
-0.0025410170 -0.0028229480 0 0
-0.0028469380 -0.0043283400 0 0
-0.0030670280 -0.0055399740 0 0
-0.0031668530 -0.0063218580 0 0
-0.0031110790 -0.0065814500 0 0
-0.0028705850 -0.0062790070 0 0
-0.0024334840 -0.0054310390 0 0
-0.0018147750 -0.0041085990 0 0
-0.0010585000 -0.0024313420 0 0
-0.0002310210 -0.0005569670 0 0
0.0005912030 0.0013341940 0 0
0.0013346590 0.0030576390 0 0
0.0019382840 0.0044432280 0 0
0.0023568950 0.0053516770 0 0
0.0025603780 0.0056883050 0 0
0.0025333320 0.0054131210 0 0
0.0022771360 0.0045455540 0 0
0.0018124250 0.0031629630 0 0
0.0011795200 0.0013936380 0 0
0.0004354430 -0.0005951770 0 0
-0.0003523690 -0.0026137190 0 0
-0.0011133990 -0.0044683430 0 0
-0.0017806530 -0.0059794950 0 0
-0.0022968420 -0.0069972990 0 0
-0.0026206670 -0.0074141950 0 0
-0.0027330360 -0.0071742780 0 0
-0.0026421900 -0.0062786420 0 0
-0.0023855400 -0.0047859640 0 0
-0.0020273520 -0.0028082710 0 0
-0.0016530610 -0.0005026700 0 0
-0.0013588270 0.0019405890 0 0
-0.0012352330 0.0043138110 0 0
-0.0013503400 0.0064104240 0 0
-0.0017395890 0.0080444990 0 0
-0.0024044190 0.0090697750 0 0
-0.0033161670 0.0093967700 0 0
-0.0044214680 0.0090053030 0 0
-0.0056477220 0.0079488770 0 0
-0.0069100590 0.0063488590 0 0
-0.0081208700 0.0043797970 0 0
-0.0091994040 0.0022491280 0 0
-0.0100779390 0.0001736680 0 0
-0.0107049000 -0.0016451600 0 0
-0.0110484510 -0.0030438860 0 0
-0.0111013340 -0.0039131100 0 0
-0.0108826980 -0.0042049860 0 0
-0.0104336050 -0.0039332530 0 0
-0.0098093010 -0.0031682650 0 0
-0.0090743160 -0.0020279740 0 0
-0.0083020500 -0.0006648870 0 0
-0.0075748640 0.0007497620 0 0
-0.0069802070 0.0020421840 0 0
-0.0066016910 0.0030511500 0 0
-0.0065073750 0.0036420380 0 0
-0.0067393680 0.0037198750 0 0
-0.0073083140 0.0032409370 0 0
-0.0081934610 0.0022212670 0 0
-0.0093467770 0.0007384540 0 0
-0.0106993060 -0.0010764350 0 0
-0.0121680960 -0.0030557280 0 0
-0.0136622060 -0.0050159180 0 0
-0.0150873450 -0.0067769850 0 0
-0.0163507110 -0.0081779320 0 0
-0.0173681450 -0.0090892300 0 0
-0.0180736010 -0.0094233590 0 0
-0.0184287770 -0.0091429830 0 0
-0.0184298740 -0.0082653730 0 0
-0.0181072590 -0.0068625100 0 0
-0.0175162490 -0.0050565940 0 0
-0.0167245790 -0.0030098680 0 0
-0.0158045680 -0.0009085720 0 0
-0.0148310620 0.0010562480 0 0
-0.0138794990 0.0027072050 0 0
-0.0130193970 0.0038962400 0 0
-0.0123039870 0.0045173160 0 0
-0.0117612540 0.0045160100 0 0
-0.0113921500 0.0038954590 0 0
-0.0111775720 0.0027179360 0 0
-0.0110897010 0.0011011250 0 0
-0.0111002230 -0.0007915810 0 0
-0.0111804530 -0.0027664100 0 0
-0.0112948680 -0.0046188060 0 0
-0.0113950320 -0.0061545430 0 0
-0.0114197610 -0.0072089830 0 0
-0.0113018680 -0.0076625790 0 0
-0.0109782020 -0.0074526500 0 0
-0.0103998310 -0.0065810860 0 0
-0.0095409360 -0.0051162740 0 0
-0.0084061260 -0.0031876610 0 0
-0.0070346570 -0.0009729330 0 0
-0.0054983460 0.0013202730 0 0
-0.0038924180 0.0034747320 0 0
-0.0023230270 0.0052836140 0 0
-0.0008947820 0.0065697500 0 0
0.0003012330 0.0072036550 0 0
0.0011977750 0.0071178420 0 0
0.0017582900 0.0063145560 0 0
0.0019805460 0.0048656870 0 0
0.0018971880 0.0029054830 0 0
0.0015714080 0.0006172870 0 0
0.0010875480 -0.0017846130 0 0
0.0005397870 -0.0040766710 0 0
0.0000217726 -0.0060491900 0 0
-0.0003825900 -0.0075278570 0 0
-0.0006070050 -0.0083904040 0 0
-0.0006074420 -0.0085759050 0 0
-0.0003632740 -0.0080862220 0 0
0.0001218240 -0.0069817770 0 0
0.0008174870 -0.0053748490 0 0
0.0016668820 -0.0034209880 0 0
0.0025938620 -0.0013070380 0 0
0.0035152190 0.0007640800 0 0
0.0043527940 0.0025900580 0 0
0.0050414700 0.0039865940 0 0
0.0055320220 0.0048054840 0 0
0.0057908730 0.0049516170 0 0
0.0058009300 0.0043950510 0 0
0.0055660200 0.0031752000 0 0
0.0051159060 0.0013972950 0 0
0.0045057760 -0.0007778110 0 0
0.0038086480 -0.0031505130 0 0
0.0031049780 -0.0055046270 0 0
0.0024726400 -0.0076307450 0 0
0.0019772600 -0.0093470360 0 0
0.0016645980 -0.0105166730 0 0
0.0015581810 -0.0110618970 0 0
0.0016620390 -0.0109730620 0 0
0.0019656080 -0.0103103610 0 0
0.0024479570 -0.0091973040 0 0
0.0030789810 -0.0078058670 0 0
0.0038168590 -0.0063340760 0 0
0.0046041660 -0.0049794970 0 0
0.0053659000 -0.0039144410 0 0
0.0060118310 -0.0032678880 0 0
0.0064450910 -0.0031160910 0 0
0.0065772590 -0.0034804680 0 0
0.0063467430 -0.0043300370 0 0
0.0057344670 -0.0055871480 0 0
0.0047708290 -0.0071364290 0 0
0.0035312870 -0.0088363460 0 0
0.0021221250 -0.0105322560 0 0
0.0006611670 -0.0120694580 0 0
-0.0007395430 -0.0133045670 0 0
-0.0019841840 -0.0141152450 0 0
-0.0029985480 -0.0144102940 0 0
-0.0037352190 -0.0141414310 0 0
-0.0041783200 -0.0133147990 0 0
-0.0043431840 -0.0119972410 0 0
-0.0042708970 -0.0103126220 0 0
-0.0040230260 -0.0084274370 0 0
-0.0036779590 -0.0065291930 0 0
-0.0033240380 -0.0048030930 0 0
-0.0030467430 -0.0034121100 0 0
-0.0029139710 -0.0024837600 0 0
-0.0029662790 -0.0021040630 0 0
-0.0032152510 -0.0023160480 0 0
-0.0036473920 -0.0031192880 0 0
-0.0042292410 -0.0044693870 0 0
-0.0049119350 -0.0062794360 0 0
-0.0056360450 -0.0084254970 0 0
-0.0063379020 -0.0107556660 0 0
-0.0069574610 -0.0131007410 0 0
-0.0074464700 -0.0152857480 0 0
-0.0077756010 -0.0171432450 0 0
-0.0079382630 -0.0185286530 0 0
-0.0079477590 -0.0193359420 0 0
-0.0078284090 -0.0195111210 0 0
-0.0076069940 -0.0190612230 0 0
-0.0073092720 -0.0180569920 0 0
-0.0069600970 -0.0166280630 0 0
-0.0065846400 -0.0149498240 0 0
-0.0062107350 -0.0132226050 0 0
-0.0058710140 -0.0116469540 0 0
-0.0056005480 -0.0104008810 0 0
-0.0054280710 -0.0096229790 0 0
-0.0053650070 -0.0094014240 0 0
-0.0053994240 -0.0097672010 0 0
-0.0054994280 -0.0106916330 0 0
-0.0056242150 -0.0120896100 0 0
-0.0057353610 -0.0138288740 0 0
-0.0058020740 -0.0157441830 0 0
-0.0058010700 -0.0176544110 0 0
-0.0057160340 -0.0193802000 0 0
-0.0055393460 -0.0207603550 0 0
-0.0052743100 -0.0216665940 0 0
-0.0049350720 -0.0220166530 0 0
-0.0045433570 -0.0217841360 0 0
-0.0041234900 -0.0210025290 0 0
-0.0036980330 -0.0197620370 0 0
-0.0032852600 -0.0181991470 0 0
-0.0028979050 -0.0164804420 0 0
-0.0025427020 -0.0147843850 0 0
-0.0022213970 -0.0132840010 0 0
-0.0019342070 -0.0121305080 0 0
-0.0016855240 -0.0114382460 0 0
-0.0014901790 -0.0112734960 0 0
-0.0013772090 -0.0116490970 0 0
-0.0013869170 -0.0125244320 0 0
-0.0015591320 -0.0138095250 0 0
-0.0019165420 -0.0153726200 0 0
-0.0024505680 -0.0170518460 0 0
-0.0031158670 -0.0186715950 0 0
-0.0038358200 -0.0200619520 0 0
-0.0045168540 -0.0210775170 0 0
-0.0050665060 -0.0216123500 0 0
-0.0054103630 -0.0216093580 0 0
-0.0055046140 -0.0210638110 0 0
-0.0053421130 -0.0200218200 0 0
-0.0049509210 -0.0185755130 0 0
-0.0043865730 -0.0168562290 0 0
-0.0037213940 -0.0150248540 0 0
-0.0030339170 -0.0132571790 0 0
-0.0024000260 -0.0117251510 0 0
-0.0018870090 -0.0105786460 0 0
-0.0015513860 -0.0099319260 0 0
-0.0014394390 -0.0098549840 0 0
-0.0015867930 -0.0103673190 0 0
-0.0020137070 -0.0114328230 0 0
-0.0027168700 -0.0129578100 0 0
-0.0036622690 -0.0147959390 0 0
-0.0047831220 -0.0167621380 0 0
-0.0059841160 -0.0186543760 0 0
-0.0071517570 -0.0202790960 0 0
-0.0081696370 -0.0214750060 0 0
-0.0089356540 -0.0221309860 0 0
-0.0093778700 -0.0221959170 0 0
-0.0094670270 -0.0216799530 0 0
-0.0092238500 -0.0206489880 0 0
-0.0087184370 -0.0192157580 0 0
-0.0080596890 -0.0175298640 0 0
-0.0073749990 -0.0157657880 0 0
-0.0067846690 -0.0141074630 0 0
-0.0063803850 -0.0127305020 0 0
-0.0062152740 -0.0117846700 0 0
-0.0063047260 -0.0113785430 0 0
-0.0066321170 -0.0115678040 0 0
-0.0071556200 -0.0123486490 0 0
-0.0078162000 -0.0136571610 0 0
-0.0085479460 -0.0153748630 0 0
-0.0092882900 -0.0173407190 0 0
-0.0099833240 -0.0193687110 0 0
-0.0105874770 -0.0212674040 0 0
-0.0110611280 -0.0228570070 0 0
-0.0113691850 -0.0239826900 0 0
-0.0114820060 -0.0245269680 0 0
-0.0113792740 -0.0244229400 0 0
-0.0110562610 -0.0236649810 0 0
-0.0105302060 -0.0223120840 0 0
-0.0098437140 -0.0204833140 0 0
-0.0090628100 -0.0183475800 0 0
-0.0082692860 -0.0161080330 0 0
-0.0075491390 -0.0139809270 0 0
-0.0069804180 -0.0121715430 0 0
-0.0066238930 -0.0108515450 0 0
-0.0065177910 -0.0101413080 0 0
-0.0066752490 -0.0100994350 0 0
-0.0070828170 -0.0107199440 0 0
-0.0076999060 -0.0119361300 0 0
-0.0084609510 -0.0136302170 0 0
-0.0092826140 -0.0156479160 0 0
-0.0100755410 -0.0178152810 0 0
-0.0107569940 -0.0199540620 0 0
-0.0112614550 -0.0218941570 0 0
-0.0115479220 -0.0234842120 0 0
-0.0116019190 -0.0246012090 0 0
-0.0114305840 -0.0251594870 0 0
-0.0110535560 -0.0251198400 0 0
-0.0104959740 -0.0244974560 0 0
-0.0097875490 -0.0233649850 0 0
-0.0089659200 -0.0218472070 0 0
-0.0080799440 -0.0201065440 0 0
-0.0071896450 -0.0183221550 0 0
-0.0063613890 -0.0166678360 0 0
-0.0056588710 -0.0152937010 0 0
-0.0051327900 -0.0143140760 0 0
-0.0048125920 -0.0138012790 0 0
-0.0047026970 -0.0137828950 0 0
-0.0047837730 -0.0142398290 0 0
-0.0050168560 -0.0151051230 0 0
-0.0053474350 -0.0162666850 0 0
-0.0057096920 -0.0175772400 0 0
-0.0060336170 -0.0188715960 0 0
-0.0062557530 -0.0199873140 0 0
-0.0063295350 -0.0207833470 0 0
-0.0062291970 -0.0211535170 0 0
-0.0059468740 -0.0210350180 0 0
-0.0054897250 -0.0204133150 0 0
-0.0048814040 -0.0193241530 0 0
-0.0041637590 -0.0178524080 0 0
-0.0033931110 -0.0161265370 0 0
-0.0026320380 -0.0143068750 0 0
-0.0019419140 -0.0125671690 0 0
-0.0013791620 -0.0110719110 0 0
-0.0009938450 -0.0099549880 0 0
-0.0008270880 -0.0093051560 0 0
-0.0009049110 -0.0091609040 0 0
-0.0012303680 -0.0095137960 0 0
-0.0017787940 -0.0103165720 0 0
-0.0024982030 -0.0114915250 0 0
-0.0033132080 -0.0129371640 0 0
-0.0041322160 -0.0145341900 0 0
-0.0048590620 -0.0161518340 0 0
-0.0054073770 -0.0176544280 0 0
-0.0057134730 -0.0189091240 0 0
-0.0057444930 -0.0197974240 0 0
-0.0055007440 -0.0202308780 0 0
-0.0050128790 -0.0201663700 0 0
-0.0043353040 -0.0196152170 0 0
-0.0035371370 -0.0186440560 0 0
-0.0026929150 -0.0173688260 0 0
-0.0018759440 -0.0159431070 0 0
-0.0011549790 -0.0145415040 0 0
-0.0005908770 -0.0133398940 0 0
-0.0002297320 -0.0124954170 0 0
-0.0000939581 -0.0121282630 0 0
-0.0001763260 -0.0123066000 0 0
-0.0004400120 -0.0130372930 0 0
-0.0008246010 -0.0142659600 0 0
-0.0012564730 -0.0158864600 0 0
-0.0016606470 -0.0177546850 0 0
-0.0019703020 -0.0197013400 0 0
-0.0021321030 -0.0215437940 0 0
-0.0021085830 -0.0231005400 0 0
-0.0018797630 -0.0242094190 0 0
-0.0014448300 -0.0247467360 0 0
-0.0008237740 -0.0246431030 0 0
-0.0000584835 -0.0238930150 0 0
0.0007880000 -0.0225566800 0 0
0.0016351990 -0.0207539330 0 0
0.0023918680 -0.0186510940 0 0
0.0029662330 -0.0164425530 0 0
0.0032798160 -0.0143290830 0 0
0.0032804730 -0.0124953250 0 0
0.0029487120 -0.0110900970 0 0
0.0022967280 -0.0102127520 0 0
0.0013643130 -0.0099062790 0 0
0.0002144410 -0.0101567460 0 0
-0.0010716620 -0.0108989640 0 0
-0.0024018090 -0.0120270820 0 0
-0.0036842930 -0.0134072500 0 0
-0.0048411660 -0.0148901580 0 0
-0.0058171790 -0.0163232100 0 0
-0.0065807460 -0.0175627640 0 0
-0.0071184040 -0.0184863280 0 0
-0.0074273390 -0.0190040760 0 0
-0.0075118410 -0.0190680410 0 0
-0.0073862070 -0.0186765100 0 0
-0.0070792330 -0.0178725160 0 0
-0.0066334310 -0.0167381060 0 0
-0.0060987620 -0.0153865770 0 0
-0.0055255110 -0.0139529300 0 0
-0.0049588920 -0.0125815520 0 0
-0.0044357080 -0.0114116810 0 0
-0.0039833650 -0.0105625620 0 0
-0.0036205700 -0.0101195000 0 0
-0.0033577640 -0.0101216940 0 0
-0.0031956700 -0.0105544790 0 0
-0.0031223480 -0.0113494060 0 0
-0.0031119890 -0.0123934400 0 0
-0.0031295380 -0.0135450060 0 0
-0.0031410860 -0.0146526980 0 0
-0.0031239000 -0.0155729680 0 0
-0.0030693930 -0.0161843560 0 0
-0.0029787700 -0.0163973740 0 0
-0.0028559920 -0.0161614580 0 0
-0.0027011170 -0.0154710180 0 0
-0.0025048430 -0.0143699250 0 0
-0.0022468010 -0.0129506960 0 0
-0.0019003350 -0.0113454790 0 0
-0.0014419210 -0.0097103940 0 0
-0.0008607630 -0.0082080610 0 0
-0.0001662840 -0.0069920370 0 0
0.0006076990 -0.0061940620 0 0
0.0014044310 -0.0059136800 0 0
0.0021522890 -0.0062099080 0 0
0.0027774440 -0.0070948390 0 0
0.0032173370 -0.0085293980 0 0
0.0034309320 -0.0104229070 0 0
0.0034037410 -0.0126389000 0 0
0.0031495050 -0.0150074290 0 0
0.0027109490 -0.0173412030 0 0
0.0021581780 -0.0194526830 0 0
0.0015810890 -0.0211708110 0 0
0.0010751670 -0.0223568010 0 0
0.0007251350 -0.0229177400 0 0
0.0005929260 -0.0228161690 0 0
0.0007131230 -0.0220741170 0 0
0.0010934740 -0.0207710240 0 0
0.0017156980 -0.0190362890 0 0
0.0025347830 -0.0170378340 0 0
0.0034795520 -0.0149675970 0 0
0.0044578530 -0.0130246010 0 0
0.0053666150 -0.0113970430 0 0
0.0061047900 -0.0102449640 0 0
0.0065869960 -0.0096845760 0 0
0.0067560700 -0.0097756000 0 0
0.0065929080 -0.0105134330 0 0
0.0061211530 -0.0118281860 0 0
0.0054043100 -0.0135922090 0 0
0.0045355920 -0.0156350610 0 0
0.0036228120 -0.0177619880 0 0
0.0027712420 -0.0197722060 0 0
0.0020693760 -0.0214755490 0 0
0.0015814120 -0.0227074260 0 0
0.0013445230 -0.0233423750 0 0
0.0013674450 -0.0233060310 0 0
0.0016310950 -0.0225839590 0 0
0.0020932740 -0.0212253070 0 0
0.0026959980 -0.0193401270 0 0
0.0033722200 -0.0170903560 0 0
0.0040513720 -0.0146753250 0 0
0.0046652980 -0.0123133550 0 0
0.0051547590 -0.0102213950 0 0
0.0054753190 -0.0085941040 0 0
0.0056016890 -0.0075835330 0 0
0.0055295110 -0.0072820690 0 0
0.0052739540 -0.0077121770 0 0
0.0048658300 -0.0088248090 0 0
0.0043467960 -0.0105060980 0 0
0.0037657290 -0.0125912220 0 0
0.0031774410 -0.0148834500 0 0
0.0026416800 -0.0171751200 0 0
0.0022189650 -0.0192674280 0 0
0.0019624150 -0.0209872610 0 0
0.0019083940 -0.0222007490 0 0
0.0020707300 -0.0228237310 0 0
0.0024412080 -0.0228283240 0 0
0.0029936360 -0.0222437060 0 0
0.0036865350 -0.0211503010 0 0
0.0044634670 -0.0196691540 0 0
0.0052545400 -0.0179493890 0 0
0.0059825640 -0.0161564210 0 0
0.0065738030 -0.0144618670 0 0
0.0069700530 -0.0130327720 0 0
0.0071373540 -0.0120165060 0 0
0.0070680950 -0.0115213240 0 0
0.0067775290 -0.0115979220 0 0
0.0062980100 -0.0122291820 0 0
0.0056721190 -0.0133317740 0 0
0.0049453580 -0.0147677040 0 0
0.0041615560 -0.0163616850 0 0
0.0033629810 -0.0179211390 0 0
0.0025928730 -0.0192565390 0 0
0.0018969100 -0.0202005740 0 0
0.0013212240 -0.0206253010 0 0
0.0009065980 -0.0204562750 0 0
0.0006811050 -0.0196818520 0 0
0.0006535880 -0.0183557170 0 0
0.0008092610 -0.0165917780 0 0
0.0011097220 -0.0145518560 0 0
0.0014988700 -0.0124274550 0 0
0.0019117160 -0.0104183430 0 0
0.0022819910 -0.0087122620 0 0
0.0025485130 -0.0074689610 0 0
0.0026621380 -0.0068086790 0 0
0.0025920430 -0.0068032160 0 0
0.0023288920 -0.0074686700 0 0
0.0018852070 -0.0087610280 0 0
0.0012952210 -0.0105769560 0 0
0.0006142560 -0.0127612800 0 0
-0.0000855974 -0.0151210950 0 0
-0.0007257730 -0.0174449940 0 0
-0.0012349160 -0.0195244460 0 0
-0.0015610310 -0.0211739390 0 0
-0.0016787980 -0.0222481040 0 0
-0.0015910390 -0.0226552830 0 0
-0.0013247710 -0.0223665390 0 0
-0.0009234200 -0.0214186410 0 0
-0.0004377710 -0.0199100550 0 0
0.0000815427 -0.0179894740 0 0
0.0005889030 -0.0158378800 0 0
0.0010458190 -0.0136481400 0 0
0.0014202440 -0.0116071110 0 0
0.0016847190 -0.0098823680 0 0
0.0018158550 -0.0086122150 0 0
0.0017958760 -0.0078967440 0 0
0.0016156210 -0.0077890580 0 0
0.0012792100 -0.0082878320 0 0
0.0008100720 -0.0093336890 0 0
0.0002544630 -0.0108117500 0 0
-0.0003225330 -0.0125612080 0 0
-0.0008480470 -0.0143914150 0 0
-0.0012533410 -0.0161029110 0 0
-0.0014816530 -0.0175105560 0 0
-0.0014915090 -0.0184646230 0 0
-0.0012573020 -0.0188656800 0 0
-0.0007686230 -0.0186719140 0 0
-0.0000297491 -0.0179010450 0 0
0.0009389220 -0.0166287130 0 0
0.0020971180 -0.0149828020 0 0
0.0033811190 -0.0131325220 0 0
0.0047041310 -0.0112723700 0 0
0.0059634580 -0.0096024470 0 0
0.0070547230 -0.0083072840 0 0
0.0078895290 -0.0075350860 0 0
0.0084109140 -0.0073795350 0 0
0.0086027110 -0.0078671820 0 0
0.0084916300 -0.0089536990 0 0
0.0081420560 -0.0105303290 0 0
0.0076440380 -0.0124389280 0 0
0.0070962480 -0.0144919160 0 0
0.0065878170 -0.0164933600 0 0
0.0061839410 -0.0182587530 0 0
0.0059185750 -0.0196323240 0 0
0.0057954930 -0.0205009270 0 0
0.0057971740 -0.0208033080 0 0
0.0058972820 -0.0205338720 0 0
0.0060694700 -0.0197409340 0 0
0.0062888930 -0.0185203990 0 0
0.0065299730 -0.0170058850 0 0
0.0067655040 -0.0153556650 0 0
0.0069677520 -0.0137375260 0 0
0.0071094380 -0.0123137740 0 0
0.0071635690 -0.0112278420 0 0
0.0071038020 -0.0105919870 0 0
0.0069081750 -0.0104756790 0 0
0.0065665700 -0.0108964030 0 0
0.0060886770 -0.0118154660 0 0
0.0055083860 -0.0131399260 0 0
0.0048821150 -0.0147302270 0 0
0.0042807340 -0.0164132100 0 0
0.0037768650 -0.0179998410 0 0
0.0034311010 -0.0193057600 0 0
0.0032815440 -0.0201722350 0 0
0.0033394220 -0.0204853580 0 0
0.0035902380 -0.0201908800 0 0
0.0039981760 -0.0193016620 0 0
0.0045120020 -0.0178960750 0 0
0.0050714500 -0.0161079250 0 0
0.0056130230 -0.0141099570 0 0
0.0060745420 -0.0120940810 0 0
0.0063991270 -0.0102517220 0 0
0.0065400070 -0.0087565670 0 0
0.0064669350 -0.0077505090 0 0
0.0061724130 -0.0073326480 0 0
0.0056735620 -0.0075513400 0 0
0.0050073930 -0.0083999380 0 0
0.0042220130 -0.0098166350 0 0
0.0033677900 -0.0116879010 0 0
0.0024909180 -0.0138552500 0 0
0.0016309600 -0.0161266460 0 0
0.0008225360 -0.0182939440 0 0
0.0000984329 -0.0201546080 0 0
-0.0005100200 -0.0215328640 0 0
-0.0009772060 -0.0222963950 0 0
-0.0012896150 -0.0223676520 0 0
-0.0014498180 -0.0217303520 0 0
-0.0014762030 -0.0204318580 0 0
-0.0013999610 -0.0185819750 0 0
-0.0012605010 -0.0163475430 0 0
-0.0010999800 -0.0139404320 0 0
-0.0009582630 -0.0115969480 0 0
-0.0008689940 -0.0095499810 0 0
-0.0008562490 -0.0079993020 0 0
-0.0009320620 -0.0070872030 0 0
-0.0010961690 -0.0068844300 0 0
-0.0013379550 -0.0073866290 0 0
-0.0016384750 -0.0085190630 0 0
-0.0019705340 -0.0101479470 0 0
-0.0022977480 -0.0120972560 0 0
-0.0025753710 -0.0141683110 0 0
-0.0027536940 -0.0161583940 0 0
-0.0027824400 -0.0178763830 0 0
-0.0026160980 -0.0191561750 0 0
-0.0022222330 -0.0198693470 0 0
-0.0015921210 -0.0199370350 0 0
-0.0007488020 -0.0193398550 0 0
0.0002516800 -0.0181243810 0 0
0.0013259800 -0.0164037680 0 0
0.0023739710 -0.0143493720 0 0
0.0032919000 -0.0121722870 0 0
0.0039862200 -0.0100985190 0 0
0.0043856290 -0.0083434950 0 0
0.0044490280 -0.0070891390 0 0
0.0041692690 -0.0064646670 0 0
0.0035738040 -0.0065330550 0 0
0.0027212940 -0.0072853940 0 0
0.0016933740 -0.0086437900 0 0
0.0005848140 -0.0104718210 0 0
-0.0005044200 -0.0125906540 0 0
-0.0014766090 -0.0147980710 0 0
-0.0022452100 -0.0168876450 0 0
-0.0027430010 -0.0186664120 0 0
-0.0029265680 -0.0199707400 0 0
-0.0027775730 -0.0206804760 0 0
-0.0023032090 -0.0207301570 0 0
-0.0015378510 -0.0201148400 0 0
-0.0005452980 -0.0188890620 0 0
0.0005833980 -0.0171597060 0 0
0.0017421040 -0.0150747050 0 0
0.0028302920 -0.0128094630 0 0
0.0037732310 -0.0105522910 0 0
0.0045326740 -0.0084894930 0 0
0.0051043520 -0.0067906760 0 0
0.0055045090 -0.0055949890 0 0
0.0057535310 -0.0049988920 0 0
0.0058666360 -0.0050461770 0 0
0.0058549990 -0.0057213440 0 0
0.0057325260 -0.0069478140 0 0
0.0055223840 -0.0085921760 0 0
0.0052598130 -0.0104751090 0 0
0.0049890090 -0.0123890080 0 0
0.0047546930 -0.0141210490 0 0
0.0045926310 -0.0154786360 0 0
0.0045231220 -0.0163128530 0 0
0.0045484210 -0.0165354610 0 0
0.0046544810 -0.0161261690 0 0
0.0048173020 -0.0151298970 0 0
0.0050109080 -0.0136470560 0 0
0.0052122720 -0.0118205560 0 0
0.0054020940 -0.0098215210 0 0
0.0055639810 -0.0078339580 0 0
0.0056844050 -0.0060386660 0 0
0.0057535090 -0.0045975000 0 0
0.0057653170 -0.0036393930 0 0
0.0057163730 -0.0032494750 0 0
0.0056032730 -0.0034620980 0 0
0.0054207930 -0.0042575580 0 0
0.0051626840 -0.0055619400 0 0
0.0048251970 -0.0072506180 0 0
0.0044113590 -0.0091571920 0 0
0.0039344070 -0.0110890810 0 0
0.0034194760 -0.0128482860 0 0
0.0029015450 -0.0142540160 0 0
0.0024183370 -0.0151643490 0 0
0.0020008410 -0.0154947610 0 0
0.0016662030 -0.0152302000 0 0
0.0014153190 -0.0144268450 0 0
0.0012342790 -0.0132023620 0 0
0.0010968590 -0.0117175690 0 0
0.0009662260 -0.0101542940 0 0
0.0007977640 -0.0086935180 0 0
0.0005464610 -0.0074965650 0 0
0.0001782710 -0.0066910450 0 0
-0.0003205830 -0.0063617880 0 0
-0.0009424160 -0.0065457690 0 0
-0.0016650720 -0.0072304050 0 0
-0.0024609880 -0.0083556320 0 0
-0.0033019170 -0.0098197510 0 0
-0.0041583610 -0.0114882760 0 0
-0.0049980960 -0.0132052180 0 0
-0.0057872040 -0.0148062770 0 0
-0.0064922860 -0.0161336000 0 0
-0.0070812190 -0.0170518620 0 0
-0.0075232550 -0.0174639090 0 0
-0.0077915800 -0.0173224170 0 0
-0.0078688610 -0.0166346690 0 0
-0.0077528230 -0.0154600540 0 0
-0.0074593550 -0.0139022330 0 0
-0.0070236530 -0.0120987030 0 0
-0.0065002460 -0.0102097540 0 0
-0.0059596680 -0.0084073900 0 0
-0.0054790640 -0.0068635710 0 0
-0.0051291600 -0.0057361940 0 0
-0.0049628790 -0.0051515150 0 0
-0.0050077370 -0.0051849440 0 0
-0.0052618510 -0.0058464990 0 0
-0.0056945840 -0.0070773350 0 0
-0.0062525910 -0.0087586440 0 0
-0.0068697730 -0.0107287920 0 0
-0.0074783710 -0.0128030640 0 0
-0.0080187810 -0.0147923850 0 0
-0.0084463510 -0.0165205750 0 0
-0.0087338360 -0.0178405360 0 0
-0.0088692160 -0.0186476350 0 0
-0.0088508640 -0.0188877930 0 0
-0.0086833940 -0.0185599590 0 0
-0.0083763150 -0.0177140250 0 0
-0.0079453600 -0.0164448720 0 0
-0.0074151190 -0.0148832090 0 0
-0.0068213410 -0.0131844990 0 0
-0.0062109750 -0.0115169140 0 0
-0.0056378820 -0.0100483210 0 0
-0.0051545600 -0.0089319230 0 0
-0.0048035730 -0.0082914760 0 0
-0.0046109090 -0.0082089580 0 0
-0.0045802910 -0.0087171310 0 0
-0.0046889760 -0.0097964390 0 0
-0.0048885190 -0.0113741990 0 0
-0.0051124020 -0.0133261730 0 0
-0.0052878860 -0.0154835330 0 0
-0.0053476830 -0.0176479590 0 0
-0.0052390700 -0.0196140800 0 0
-0.0049303800 -0.0211950020 0 0
-0.0044144530 -0.0222456890 0 0
-0.0037076640 -0.0226799730 0 0
-0.0028446850 -0.0224791230 0 0
-0.0018715700 -0.0216917730 0 0
-0.0008398340 -0.0204256900 0 0
0.0001974200 -0.0188325020 0 0
0.0011879820 -0.0170884070 0 0
0.0020830990 -0.0153751960 0 0
0.0028403240 -0.0138644960 0 0
0.0034256810 -0.0127054450 0 0
0.0038153560 -0.0120146000 0 0
0.0039981850 -0.0118670130 0 0
0.0039791800 -0.0122879550 0 0
0.0037824090 -0.0132458080 0 0
0.0034501100 -0.0146486780 0 0
0.0030361050 -0.0163484910 0 0
0.0025943650 -0.0181548990 0 0
0.0021670560 -0.0198577010 0 0
0.0017793400 -0.0212530280 0 0
0.0014455110 -0.0221675110 0 0
0.0011820610 -0.0224767680 0 0
0.0010172850 -0.0221174560 0 0
0.0009897820 -0.0210929500 0 0
0.0011360180 -0.0194719310 0 0
0.0014741250 -0.0173797030 0 0
0.0019931810 -0.0149840930 0 0
0.0026523970 -0.0124785910 0 0
0.0033883490 -0.0100642470 0 0
0.0041262600 -0.0079315200 0 0
0.0047916950 -0.0062441000 0 0
0.0053199880 -0.0051265380 0 0
0.0056629550 -0.0046557800 0 0
0.0057929090 -0.0048553480 0 0
0.0057028370 -0.0056919480 0 0
0.0054032680 -0.0070762940 0 0
0.0049194140 -0.0088698310 0 0
0.0042913050 -0.0108970280 0 0
0.0035750150 -0.0129619510 0 0
0.0028403430 -0.0148673330 0 0
0.0021627690 -0.0164335870 0 0
0.0016114730 -0.0175154990 0 0
0.0012367020 -0.0180158120 0 0
0.0010600180 -0.0178953470 0 0
0.0010701960 -0.0171782620 0 0
0.0012247290 -0.0159507710 0 0
0.0014556880 -0.0143527430 0 0
0.0016798650 -0.0125624190 0 0
0.0018119360 -0.0107756540 0 0
0.0017780540 -0.0091833090 0 0
0.0015291430 -0.0079510720 0 0
0.0010521570 -0.0072034540 0 0
0.0003731640 -0.0070116020 0 0
-0.0004521040 -0.0073860840 0 0
-0.0013560710 -0.0082775520 0 0
-0.0022755680 -0.0095856500 0 0
-0.0031588670 -0.0111728070 0 0
-0.0039646540 -0.0128789100 0 0
-0.0046597940 -0.0145344390 0 0
-0.0052188730 -0.0159717210 0 0
-0.0056234730 -0.0170360360 0 0
-0.0058607880 -0.0175990830 0 0
-0.0059240190 -0.0175752990 0 0
-0.0058147980 -0.0169373490 0 0
-0.0055441800 -0.0157245760 0 0
-0.0051299560 -0.0140407370 0 0
-0.0045937110 -0.0120424360 0 0
-0.0039628040 -0.0099221340 0 0
-0.0032770570 -0.0078882690 0 0
-0.0025938220 -0.0061433350 0 0
-0.0019846620 -0.0048615000 0 0
-0.0015222570 -0.0041691500 0 0
-0.0012633260 -0.0041320080 0 0
-0.0012349390 -0.0047502460 0 0
-0.0014274450 -0.0059603630 0 0
-0.0017940270 -0.0076409210 0 0
-0.0022565910 -0.0096197960 0 0
-0.0027176310 -0.0116842380 0 0
-0.0030758880 -0.0135979240 0 0
-0.0032415940 -0.0151266970 0 0
-0.0031483940 -0.0160688480 0 0
-0.0027619800 -0.0162829180 0 0
-0.0020851080 -0.0157078000 0 0
-0.0011572640 -0.0143722270 0 0
-0.0000482135 -0.0123916250 0 0
0.0011538780 -0.0099521190 0 0
0.0023568510 -0.0072845680 0 0
0.0034767650 -0.0046339960 0 0
0.0044450090 -0.0022304990 0 0
0.0052109120 -0.0002663330 0 0
0.0057420620 0.0011191520 0 0
0.0060244820 0.0018479470 0 0
0.0060633390 0.0019069430 0 0
0.0058831300 0.0013463630 0 0
0.0055265120 0.0002718230 0 0
0.0050520850 -0.0011693720 0 0
0.0045314790 -0.0028050480 0 0
0.0040449340 -0.0044556520 0 0
0.0036731100 -0.0059509270 0 0
0.0034841370 -0.0071440600 0 0
0.0035188210 -0.0079209890 0 0
0.0037796550 -0.0082039880 0 0
0.0042283090 -0.0079516660 0 0
0.0047921900 -0.0071583940 0 0
0.0053769390 -0.0058542350 0 0
0.0058814380 -0.0041053550 0 0
0.0062136290 -0.0020142240 0 0
0.0063056020 0.0002832610 0 0
0.0061245820 0.0026266760 0 0
0.0056758700 0.0048459830 0 0
0.0049969260 0.0067803540 0 0
0.0041462470 0.0082980200 0 0
0.0031916220 0.0093127000 0 0
0.0021992570 0.0097926840 0 0
0.0012240020 0.0097619190 0 0
0.0003031630 0.0092947820 0 0
-0.0005431390 0.0085061500 0 0
-0.0013059050 0.0075382070 0 0
-0.0019807370 0.0065456220 0 0
-0.0025653150 0.0056803910 0 0
-0.0030595780 0.0050770190 0 0
-0.0034644850 0.0048391670 0 0
-0.0037791260 0.0050297610 0 0
-0.0039997990 0.0056658520 0 0
-0.0041223620 0.0067177960 0 0
-0.0041457980 0.0081117530 0 0
-0.0040757140 0.0097349420 0 0
-0.0039278110 0.0114435820 0 0
-0.0037309650 0.0130743410 0 0
-0.0035283130 0.0144602500 0 0
-0.0033741300 0.0154499550 0 0
-0.0033259280 0.0159266040 0 0
-0.0034336710 0.0158224700 0 0
-0.0037291080 0.0151271680 0 0
-0.0042186310 0.0138888500 0 0
-0.0048821240 0.0122088840 0 0
-0.0056769940 0.0102313370 0 0
-0.0065432690 0.0081288240 0 0
-0.0074072220 0.0060860690 0 0
-0.0081860190 0.0042826120 0 0
-0.0087963020 0.0028761100 0 0
-0.0091651780 0.0019870040 0 0
-0.0092405010 0.0016855880 0 0
-0.0089989910 0.0019838990 0 0
-0.0084502760 0.0028336950 0 0
-0.0076348940 0.0041297110 0 0
-0.0066181580 0.0057189800 0 0
-0.0054843260 0.0074180560 0 0
-0.0043320800 0.0090362060 0 0
-0.0032675960 0.0103988100 0 0
-0.0023913290 0.0113654610 0 0
-0.0017795490 0.0118404580 0 0
-0.0014673110 0.0117766850 0 0
-0.0014414390 0.0111754520 0 0
-0.0016478160 0.0100843320 0 0
-0.0020090920 0.0085936760 0 0
-0.0024440630 0.0068307500 0 0
-0.0028812950 0.0049501020 0 0
-0.0032641900 0.0031201700 0 0
-0.0035496220 0.0015072420 0 0
-0.0037048160 0.0002588810 0 0
-0.0037060340 -0.0005100570 0 0
-0.0035402880 -0.0007266750 0 0
-0.0032092840 -0.0003650330 0 0
-0.0027328150 0.0005515220 0 0
-0.0021480040 0.0019500160 0 0
-0.0015028930 0.0037109090 0 0
-0.0008467220 0.0056768730 0 0
-0.0002213540 0.0076676960 0 0
0.0003422730 0.0094988520 0 0
0.0008219950 0.0110005700 0 0
0.0011999360 0.0120350040 0 0
0.0014599040 0.0125099780 0 0
0.0015878350 0.0123885020 0 0
0.0015738340 0.0116930720 0 0
0.0014133790 0.0105036750 0 0
0.0011068730 0.0089495020 0 0
0.0006604840 0.0071960250 0 0
0.0000917214 0.0054292040 0 0
-0.0005622910 0.0038378230 0 0
-0.0012416380 0.0025951330 0 0
-0.0018713700 0.0018415860 0 0
-0.0023769000 0.0016701550 0 0
-0.0026982860 0.0021155600 0 0
-0.0027989180 0.0031488280 0 0
-0.0026697070 0.0046778940 0 0
-0.0023305410 0.0065544640 0 0
-0.0018290740 0.0085879880 0 0
-0.0012354520 0.0105664470 0 0
-0.0006324140 0.0122805920 0 0
-0.0001026090 0.0135471040 0 0
0.0002849420 0.0142275940 0 0
0.0004870050 0.0142420320 0 0
0.0004921910 0.0135763850 0 0
0.0003174130 0.0122847160 0 0
-0.0000021212 0.0104853430 0 0
-0.0004223590 0.0083504630 0 0
-0.0008954350 0.0060896710 0 0
-0.0013715230 0.0039289010 0 0
-0.0018001010 0.0020868160 0 0
-0.0021321990 0.0007511180 0 0
-0.0023244100 0.0000578294 0 0
-0.0023444550 0.0000761471 0 0
-0.0021768980 0.0008002290 0 0
-0.0018275090 0.0021485840 0 0
-0.0013258530 0.0039718500 0 0
-0.0007257490 0.0060692040 0 0
-0.0001015650 0.0082117140 0 0
0.0004620580 0.0101690430 0 0
0.0008858710 0.0117354810 0 0
0.0011112290 0.0127516110 0 0
0.0011083040 0.0131182740 0 0
0.0008748640 0.0128016320 0 0
0.0004285920 0.0118309010 0 0
-0.0002014370 0.0102914120 0 0
-0.0009797230 0.0083153430 0 0
-0.0018644880 0.0060712900 0 0
-0.0028046250 0.0037522610 0 0
-0.0037366240 0.0015606960 0 0
-0.0045849510 -0.0003098080 0 0
-0.0052681460 -0.0016939030 0 0
-0.0057101920 -0.0024713660 0 0
-0.0058533830 -0.0025783770 0 0
-0.0056676560 -0.0020119040 0 0
-0.0051542800 -0.0008280180 0 0
-0.0043457770 0.0008636880 0 0
-0.0033044790 0.0029086570 0 0
-0.0021198200 0.0051201100 0 0
-0.0009021260 0.0072965720 0 0
0.0002297130 0.0092422350 0 0
0.0011659750 0.0107870670 0 0
0.0018239130 0.0118037280 0 0
0.0021597620 0.0122189320 0 0
0.0021717490 0.0120183310 0 0
0.0018940580 0.0112457570 0 0
0.0013852450 0.0099982270 0 0
0.0007169340 0.0084174740 0 0
-0.0000330850 0.0066779040 0 0
-0.0007838400 0.0049711940 0 0
-0.0014536780 0.0034886860 0 0
-0.0019652560 0.0024026560 0 0
-0.0022539230 0.0018473830 0 0
-0.0022778440 0.0019020760 0 0
-0.0020263410 0.0025786290 0 0
-0.0015231400 0.0038170470 0 0
-0.0008233290 0.0054905630 0 0
-0.0000051458 0.0074210050 0 0
0.0008405300 0.0094024240 0 0
0.0016205430 0.0112279920 0 0
0.0022501420 0.0127140650 0 0
0.0026649290 0.0137180980 0 0
0.0028314400 0.0141503830 0 0
0.0027519960 0.0139801470 0 0
0.0024619770 0.0132360240 0 0
0.0020213120 0.0120012730 0 0
0.0015044210 0.0104047560 0 0
0.0009920270 0.0086086780 0 0
0.0005643720 0.0067935710 0 0
0.0002936000 0.0051412440 0 0
0.0002354610 0.0038181680 0 0
0.0004225600 0.0029623240 0 0
0.0008602130 0.0026745190 0 0
0.0015249050 0.0030126230 0 0
0.0023661880 0.0039861320 0 0
0.0033125100 0.0055501940 0 0
0.0042797740 0.0076018580 0 0
0.0051808300 0.0099833370 0 0
0.0059341280 0.0124951210 0 0
0.0064704860 0.0149176700 0 0
0.0067382270 0.0170370410 0 0
0.0067068500 0.0186691380 0 0
0.0063690900 0.0196788860 0 0
0.0057425980 0.0199922600 0 0
0.0048715770 0.0196004190 0 0
0.0038252320 0.0185566730 0 0
0.0026903090 0.0169679270 0 0
0.0015600320 0.0149823340 0 0
0.0005241060 0.0127751150 0 0
-0.0003381460 0.0105345100 0 0
-0.0009621440 0.0084487840 0 0
-0.0013011010 0.0066930220 0 0
-0.0013283600 0.0054137620 0 0
-0.0010390250 0.0047122060 0 0
-0.0004508120 0.0046306570 0 0
0.0003961650 0.0051471590 0 0
0.0014416550 0.0061794230 0 0
0.0026098780 0.0075954590 0 0
0.0038151930 0.0092279680 0 0
0.0049679600 0.0108904980 0 0
0.0059816270 0.0123941940 0 0
0.0067809440 0.0135646950 0 0
0.0073090260 0.0142588910 0 0
0.0075319520 0.0143804830 0 0
0.0074412100 0.0138922930 0 0
0.0070537110 0.0128228150 0 0
0.0064095220 0.0112653680 0 0
0.0055688710 0.0093697030 0 0
0.0046085200 0.0073267070 0 0
0.0036146680 0.0053476500 0 0
0.0026706180 0.0036412230 0 0
0.0018430740 0.0023922970 0 0
0.0011739560 0.0017443440 0 0
0.0006804210 0.0017852630 0 0
0.0003600310 0.0025369320 0 0
0.0001967980 0.0039507870 0 0
0.0001661930 0.0059118700 0 0
0.0002389010 0.0082517540 0 0
0.0003834190 0.0107678680 0 0
0.0005680630 0.0132451360 0 0
0.0007630130 0.0154769410 0 0
0.0009422140 0.0172839570 0 0
0.0010846760 0.0185295050 0 0
0.0011751990 0.0191303910 0 0
0.0012045310 0.0190631850 0 0
0.0011689250 0.0183656930 0 0
0.0010701370 0.0171334890 0 0
0.0009177370 0.0155118690 0 0
0.0007337050 0.0136832530 0 0
0.0005556870 0.0118506110 0 0
0.0004338320 0.0102183760 0 0
0.0004199440 0.0089714660 0 0
0.0005544530 0.0082531430 0 0
0.0008578940 0.0081456380 0 0
0.0013280580 0.0086592870 0 0
0.0019400490 0.0097331520 0 0
0.0026479970 0.0112454800 0 0
0.0033891420 0.0130297820 0 0
0.0040905110 0.0148927850 0 0
0.0046774070 0.0166328710 0 0
0.0050823850 0.0180590710 0 0
0.0052530990 0.0190100330 0 0
0.0051583350 0.0193707710 0 0
0.0047924290 0.0190845000 0 0
0.0041773990 0.0181577720 0 0
0.0033613630 0.0166587050 0 0
0.0024126270 0.0147095260 0 0
0.0014102720 0.0124753060 0 0
0.0004335430 0.0101506170 0 0
-0.0004481550 0.0079446880 0 0
-0.0011842980 0.0060644100 0 0
-0.0017493080 0.0046946380 0 0
-0.0021420360 0.0039769900 0 0
-0.0023786800 0.0039906900 0 0
-0.0024838510 0.0047403860 0 0
-0.0024841360 0.0061547250 0 0
-0.0024052460 0.0080953950 0 0
-0.0022716880 0.0103729440 0 0
-0.0021066010 0.0127661060 0 0
-0.0019297120 0.0150428280 0 0
-0.0017542020 0.0169811810 0 0
-0.0015853420 0.0183887880 0 0
-0.0014215340 0.0191205980 0 0
-0.0012553160 0.0190943640 0 0
-0.0010737550 0.0183014560 0 0
-0.0008617860 0.0168095990 0 0
-0.0006104410 0.0147553580 0 0
-0.0003253370 0.0123274450 0 0
-0.0000281581 0.0097445740 0 0
0.0002511590 0.0072318900 0 0
0.0004868550 0.0049991260 0 0
0.0006674260 0.0032228770 0 0
0.0007993780 0.0020342390 0 0
0.0009045420 0.0015108200 0 0
0.0010125610 0.0016706550 0 0
0.0011509290 0.0024679720 0 0
0.0013358310 0.0037944840 0 0
0.0015667720 0.0054892470 0 0
0.0018258710 0.0073561660 0 0
0.0020803170 0.0091863140 0 0
0.0022862060 0.0107829960 0 0
0.0023941160 0.0119864390 0 0
0.0023572950 0.0126918090 0 0
0.0021404690 0.0128551870 0 0
0.0017263400 0.0124885580 0 0
0.0011205680 0.0116501020 0 0
0.0003572400 0.0104353920 0 0
-0.0004975450 0.0089708550 0 0
-0.0013494970 0.0074070920 0 0
-0.0020902570 0.0059086370 0 0
-0.0026187200 0.0046391590 0 0
-0.0028614990 0.0037445080 0 0
-0.0027846750 0.0033368200 0 0
-0.0023944370 0.0034818470 0 0
-0.0017297150 0.0041908800 0 0
-0.0008519200 0.0054181870 0 0
0.0001640900 0.0070644700 0 0
0.0012361860 0.0089860930 0 0
0.0022792070 0.0110079340 0 0
0.0032095370 0.0129371180 0 0
0.0039516880 0.0145782040 0 0
0.0044463050 0.0157533430 0 0
0.0046570800 0.0163275250 0 0
0.0045742860 0.0162322060 0 0
0.0042144100 0.0154783640 0 0
0.0036174400 0.0141547650 0 0
0.0028439470 0.0124139680 0 0
0.0019723750 0.0104516340 0 0
0.0010939880 0.0084833750 0 0
0.0003022040 0.0067211510 0 0
-0.0003230730 0.0053505920 0 0
-0.0007305740 0.0045116340 0 0
-0.0009056910 0.0042857850 0 0
-0.0008686600 0.0046920660 0 0
-0.0006654440 0.0056905180 0 0
-0.0003565760 0.0071900440 0 0
-0.0000076464 0.0090577540 0 0
0.0003179500 0.0111291020 0 0
0.0005649720 0.0132203210 0 0
0.0006914110 0.0151444120 0 0
0.0006722720 0.0167288880 0 0
0.0005020580 0.0178315490 0 0
0.0001961910 0.0183525260 0 0
-0.0002101740 0.0182431610 0 0
-0.0006679840 0.0175120210 0 0
-0.0011237710 0.0162267580 0 0
-0.0015287400 0.0145103970 0 0
-0.0018440860 0.0125320180 0 0
-0.0020421040 0.0104924110 0 0
-0.0021047030 0.0086044630 0 0
-0.0020212220 0.0070688540 0 0
-0.0017873240 0.0060491020 0 0
-0.0014057940 0.0056521500 0 0
-0.0008880950 0.0059181980 0 0
-0.0002547830 0.0068194780 0 0
0.0004658160 0.0082658400 0 0
0.0012402960 0.0101156070 0 0
0.0020333420 0.0121905300 0 0
0.0028094380 0.0142931210 0 0
0.0035326950 0.0162248900 0 0
0.0041671080 0.0178046670 0 0
0.0046791570 0.0188856950 0 0
0.0050426240 0.0193693700 0 0
0.0052437850 0.0192143660 0 0
0.0052837150 0.0184408550 0 0
0.0051755200 0.0171292770 0 0
0.0049381170 0.0154128250 0 0
0.0045910180 0.0134634580 0 0
0.0041530490 0.0114724430 0 0
0.0036443530 0.0096282780 0 0
0.0030902740 0.0080960370 0 0
0.0025262610 0.0070013400 0 0
0.0020010140 0.0064202550 0 0
0.0015734210 0.0063753870 0 0
0.0013016410 0.0068376210 0 0
0.0012275310 0.0077320940 0 0
0.0013620490 0.0089467750 0 0
0.0016773390 0.0103426670 0 0
0.0021095860 0.0117652370 0 0
0.0025721930 0.0130565830 0 0
0.0029730550 0.0140681610 0 0
0.0032293160 0.0146743500 0 0
0.0032782540 0.0147864230 0 0
0.0030854420 0.0143642430 0 0
0.0026496150 0.0134220400 0 0
0.0020035700 0.0120266660 0 0
0.0012109140 0.0102893500 0 0
0.0003572580 0.0083531210 0 0
-0.0004632060 0.0063782350 0 0
-0.0011597410 0.0045277640 0 0
-0.0016510830 0.0029551710 0 0
-0.0018682630 0.0017944230 0 0
-0.0017598530 0.0011510840 0 0
-0.0013006710 0.0010929930 0 0
-0.0005001570 0.0016419720 0 0
0.0005938180 0.0027689610 0 0
0.0018973520 0.0043932940 0 0
0.0032983450 0.0063865010 0 0
0.0046687070 0.0085816640 0 0
0.0058807040 0.0107880680 0 0
0.0068259550 0.0128085700 0 0
0.0074322330 0.0144570710 0 0
0.0076716430 0.0155755350 0 0
0.0075565380 0.0160510430 0 0
0.0071260570 0.0158314320 0 0
0.0064318510 0.0149354710 0 0
0.0055312330 0.0134539280 0 0
0.0044888020 0.0115406980 0 0
0.0033803580 0.0093952940 0 0
0.0022923130 0.0072387780 0 0
0.0013145480 0.0052866300 0 0
0.0005290960 0.0037235950 0 0
-0.0000012528 0.0026847600 0 0
-0.0002406390 0.0022446980 0 0
-0.0001821940 0.0024145720 0 0
0.0001542460 0.0031457920 0 0
0.0007251130 0.0043380340 0 0
0.0014651010 0.0058503580 0 0
0.0022910630 0.0075153500 0 0
0.0031111130 0.0091555150 0 0
0.0038374440 0.0105998900 0 0
0.0043976960 0.0116992430 0 0
0.0047419120 0.0123398280 0 0
0.0048465000 0.0124554420 0 0
0.0047163840 0.0120358770 0 0
0.0043840240 0.0111297310 0 0
0.0039048710 0.0098408760 0 0
0.0033503480 0.0083184790 0 0
0.0027983160 0.0067406720 0 0
0.0023211660 0.0052936900 0 0
0.0019746170 0.0041505900 0 0
0.0017913600 0.0034535050 0 0
0.0017810660 0.0033008250 0 0
0.0019347620 0.0037386000 0 0
0.0022299210 0.0047551440 0 0
0.0026331180 0.0062788600 0 0
0.0030998320 0.0081810220 0 0
0.0035747080 0.0102861270 0 0
0.0039958910 0.0123905190 0 0
0.0043029490 0.0142862440 0 0
0.0044451210 0.0157849430 0 0
0.0043878300 0.0167377200 0 0
0.0041169620 0.0170489920 0 0
0.0036399720 0.0166833090 0 0
0.0029832220 0.0156646910 0 0
0.0021868750 0.0140702730 0 0
0.0012994080 0.0120223520 0 0
0.0003730810 0.0096816010 0 0
-0.0005384400 0.0072390640 0 0
-0.0013796590 0.0049020760 0 0
-0.0020922320 0.0028730220 0 0
-0.0026176080 0.0013256590 0 0
-0.0029057300 0.0003857160 0 0
-0.0029272970 0.0001202650 0 0
-0.0026834380 0.0005360370 0 0
-0.0022081660 0.0015830290 0 0
-0.0015636780 0.0031601680 0 0
-0.0008307460 0.0051229260 0 0
-0.0000966079 0.0072940660 0 0
0.0005563850 0.0094776900 0 0
0.0010585190 0.0114760480 0 0
0.0013567570 0.0131082330 0 0
0.0014173420 0.0142287020 0 0
0.0012292790 0.0147427810 0 0
0.0008084160 0.0146167070 0 0
0.0001986740 0.0138805420 0 0
-0.0005324670 0.0126235370 0 0
-0.0013032660 0.0109833770 0 0
-0.0020288810 0.0091311010 0 0
-0.0026322300 0.0072527010 0 0
-0.0030531390 0.0055291540 0 0
-0.0032547600 0.0041181440 0 0
-0.0032267640 0.0031406230 0 0
-0.0029851800 0.0026731720 0 0
-0.0025684000 0.0027446540 0 0
-0.0020286400 0.0033349690 0 0
-0.0014203290 0.0043752630 0 0
-0.0007897060 0.0057510070 0 0
-0.0001692040 0.0073100290 0 0
0.0004224600 0.0088763560 0 0
0.0009755530 0.0102684380 0 0
0.0014831120 0.0113192980 0 0
0.0019372600 0.0118964200 0 0
0.0023297880 0.0119186060 0 0
0.0026559700 0.0113660420 0 0
0.0029202040 0.0102817980 0 0
0.0031417570 0.0087667680 0 0
0.0033567740 0.0069707560 0 0
0.0036131560 0.0050799400 0 0
0.0039597190 0.0032993270 0 0
0.0044348430 0.0018301760 0 0
0.0050591120 0.0008455360 0 0
0.0058332220 0.0004686890 0 0
0.0067396960 0.0007579900 0 0
0.0077459670 0.0016994760 0 0
0.0088067920 0.0032078610 0 0
0.0098661640 0.0051362220 0 0
0.0108607830 0.0072935100 0 0
0.0117262330 0.0094674250 0 0
0.0124042150 0.0114487680 0 0
0.0128482550 0.0130530970 0 0
0.0130272140 0.0141369360 0 0
0.0129282900 0.0146083470 0 0
0.0125604600 0.0144326480 0 0
0.0119565620 0.0136331510 0 0
0.0111715860 0.0122870310 0 0
0.0102762490 0.0105177080 0 0
0.0093468080 0.0084848640 0 0
0.0084537640 0.0063713930 0 0
0.0076528320 0.0043666530 0 0
0.0069808660 0.0026478140 0 0
0.0064577160 0.0013631160 0 0
0.0060921640 0.0006195350 0 0
0.0058873210 0.0004743720 0 0
0.0058406030 0.0009300060 0 0
0.0059369970 0.0019333680 0 0
0.0061401680 0.0033813550 0 0
0.0063888340 0.0051305830 0 0
0.0066027550 0.0070091820 0 0
0.0066966480 0.0088303610 0 0
0.0065956490 0.0104088030 0 0
0.0062459520 0.0115796400 0 0
0.0056194770 0.0122172720 0 0
0.0047156670 0.0122499240 0 0
0.0035624410 0.0116667000 0 0
0.0022150850 0.0105164900 0 0
0.0007515220 0.0089001880 0 0
-0.0007353440 0.0069584730 0 0
-0.0021470100 0.0048575220 0 0
-0.0033909340 0.0027747380 0 0
-0.0043940150 0.0008852390 0 0
-0.0051137250 -0.0006509280 0 0
-0.0055411380 -0.0017004830 0 0
-0.0056941480 -0.0021672440 0 0
-0.0056054750 -0.0020016010 0 0
-0.0053129920 -0.0012085970 0 0
-0.0048568170 0.0001478290 0 0
-0.0042815810 0.0019470240 0 0
-0.0036387090 0.0040206160 0 0
-0.0029847160 0.0061670600 0 0
-0.0023752990 0.0081704430 0 0
-0.0018580290 0.0098229090 0 0
-0.0014667780 0.0109495910 0 0
-0.0012192510 0.0114322060 0 0
-0.0011168560 0.0112250830 0 0
-0.0011451170 0.0103592910 0 0
-0.0012734420 0.0089353280 0 0
-0.0014557600 0.0071077520 0 0
-0.0016344310 0.0050657040 0 0
-0.0017472120 0.0030130550 0 0
-0.0017361450 0.0011508780 0 0
-0.0015577490 -0.0003379250 0 0
-0.0011907360 -0.0013039820 0 0
-0.0006364900 -0.0016473350 0 0
0.0000866235 -0.0013311010 0 0
0.0009492700 -0.0003888090 0 0
0.0019142650 0.0010774900 0 0
0.0029382420 0.0029081390 0 0
0.0039734440 0.0049032300 0 0
0.0049688770 0.0068440380 0 0
0.0058706430 0.0085169520 0 0
0.0066240050 0.0097377340 0 0
0.0071799430 0.0103729320 0 0
0.0075051010 0.0103543890 0 0
0.0075906270 0.0096832420 0 0
0.0074560700 0.0084238600 0 0
0.0071479650 0.0066926160 0 0
0.0067338910 0.0046458110 0 0
0.0062919030 0.0024670870 0 0
0.0058972010 0.0003531130 0 0
0.0056107800 -0.0015024950 0 0
0.0054733120 -0.0029263040 0 0
0.0055039850 -0.0037822430 0 0
0.0057031800 -0.0039870440 0 0
0.0060573220 -0.0035211300 0 0
0.0065426940 -0.0024319780 0 0
0.0071259500 -0.0008290000 0 0
0.0077627630 0.0011279940 0 0
0.0083977760 0.0032439290 0 0
0.0089678340 0.0053061790 0 0
0.0094091090 0.0071054360 0 0
0.0096668710 0.0084591560 0 0
0.0097039580 0.0092337360 0 0
0.0095044580 0.0093600910 0 0
0.0090731170 0.0088392650 0 0
0.0084329840 0.0077379640 0 0
0.0076224340 0.0061765880 0 0
0.0066919330 0.0043136520 0 0
0.0057014440 0.0023297980 0 0
0.0047186650 0.0004122440 0 0
0.0038160620 -0.0012608940 0 0
0.0030643270 -0.0025358420 0 0
0.0025225460 -0.0032959650 0 0
0.0022278150 -0.0034710150 0 0
0.0021879760 -0.0030434150 0 0
0.0023803030 -0.0020516790 0 0
0.0027553110 -0.0005890960 0 0
0.0032417510 0.0012048910 0 0
0.0037514780 0.0031607090 0 0
0.0041875680 0.0050981620 0 0
0.0044582560 0.0068438500 0 0
0.0044933460 0.0082440470 0 0
0.0042561160 0.0091751570 0 0
0.0037464120 0.0095547030 0 0
0.0029961760 0.0093523010 0 0
0.0020622100 0.0085971420 0 0
0.0010196800 0.0073785170 0 0
-0.0000438536 0.0058375840 0 0
-0.0010356850 0.0041511000 0 0
-0.0018676500 0.0025105190 0 0
-0.0024670130 0.0011005030 0 0
-0.0027842690 0.0000799069 0 0
-0.0027946560 -0.0004328830 0 0
-0.0024955880 -0.0003701330 0 0
-0.0019056780 0.0002788510 0 0
-0.0010680480 0.0014652980 0 0
-0.0000535738 0.0030833160 0 0
0.0010426250 0.0049779770 0 0
0.0021125410 0.0069602830 0 0
0.0030501150 0.0088284020 0 0
0.0037653720 0.0103915630 0 0
0.0041951860 0.0114915670 0 0
0.0043086600 0.0120179600 0 0
0.0041068670 0.0119159770 0 0
0.0036190190 0.0111886650 0 0
0.0028976720 0.0098943980 0 0
0.0020138830 0.0081403850 0 0
0.0010510800 0.0060730180 0 0
0.0000964085 0.0038662290 0 0
-0.0007693570 0.0017086580 0 0
-0.0014814010 -0.0002104340 0 0
-0.0019984420 -0.0017172240 0 0
-0.0023057890 -0.0026716290 0 0
-0.0024121430 -0.0029856620 0 0
-0.0023422840 -0.0026369360 0 0
-0.0021289720 -0.0016732860 0 0
-0.0018054380 -0.0002082180 0 0
-0.0014002070 0.0015913630 0 0
-0.0009376660 0.0035240610 0 0
-0.0004450360 0.0053777760 0 0
0.0000391927 0.0069545890 0 0
0.0004618950 0.0080920050 0 0
0.0007597100 0.0086773380 0 0
0.0008695590 0.0086545410 0 0
0.0007420880 0.0080249170 0 0
0.0003548200 0.0068439930 0 0
-0.0002788920 0.0052161650 0 0
-0.0011086620 0.0032873070 0 0
-0.0020535990 0.0012347210 0 0
-0.0030132130 -0.0007462790 0 0
-0.0038798730 -0.0024593150 0 0
-0.0045517930 -0.0037264440 0 0
-0.0049451240 -0.0044078730 0 0
-0.0050031800 -0.0044191770 0 0
-0.0047027030 -0.0037437740 0 0
-0.0040579510 -0.0024382530 0 0
-0.0031217620 -0.0006282850 0 0
-0.0019816810 0.0015051250 0 0
-0.0007499140 0.0037465770 0 0
0.0004521670 0.0058705910 0 0
0.0015117590 0.0076656820 0 0
0.0023397840 0.0089553770 0 0
0.0028792730 0.0096146030 0 0
0.0031066980 0.0095809860 0 0
0.0030294180 0.0088605160 0 0
0.0026807760 0.0075260990 0 0
0.0021114860 0.0057082790 0 0
0.0013785210 0.0035800910 0 0
0.0005369520 0.0013392810 0 0
-0.0003612810 -0.0008103750 0 0
-0.0012633300 -0.0026777400 0 0
-0.0021112050 -0.0041011610 0 0
-0.0028414740 -0.0049618230 0 0
-0.0033904620 -0.0051932680 0 0
-0.0037039490 -0.0047872770 0 0
-0.0037476300 -0.0037960470 0 0
-0.0035134610 -0.0023292980 0 0
-0.0030207100 -0.0005436700 0 0
-0.0023139860 0.0013759170 0 0
-0.0014588440 0.0032387920 0 0
-0.0005338030 0.0048691330 0 0
0.0003801260 0.0061210390 0 0
0.0012083810 0.0068883360 0 0
0.0018864790 0.0071114720 0 0
0.0023593840 0.0067818360 0 0
0.0025826690 0.0059418660 0 0
0.0025298920 0.0046810780 0 0
0.0022043390 0.0031296000 0 0
0.0016483220 0.0014487720 0 0
0.0009426750 -0.0001831930 0 0
0.0001941160 -0.0015904080 0 0
-0.0004840750 -0.0026201850 0 0
-0.0009898380 -0.0031609110 0 0
-0.0012440570 -0.0031536740 0 0
-0.0011961540 -0.0025973210 0 0
-0.0008253270 -0.0015482770 0 0
-0.0001402130 -0.0001154920 0 0
0.0008203620 0.0015503750 0 0
0.0019856200 0.0032734830 0 0
0.0032540910 0.0048726990 0 0
0.0045029580 0.0061810240 0 0
0.0056068250 0.0070615580 0 0
0.0064611540 0.0074192520 0 0
0.0070010500 0.0072089420 0 0
0.0072069320 0.0064400730 0 0
0.0070966770 0.0051775120 0 0
0.0067128100 0.0035368980 0 0
0.0061135280 0.0016735620 0 0
0.0053684750 -0.0002339840 0 0
0.0045541790 -0.0020030510 0 0
0.0037458730 -0.0034647520 0 0
0.0030079610 -0.0044783020 0 0
0.0023879990 -0.0049410270 0 0
0.0019170190 -0.0047956380 0 0
0.0016141190 -0.0040362220 0 0
0.0014903220 -0.0027121940 0 0
0.0015492780 -0.0009284020 0 0
0.0017855910 0.0011600890 0 0
0.0021815110 0.0033598780 0 0
0.0027028420 0.0054586090 0 0
0.0032964560 0.0072495420 0 0
0.0038923340 0.0085556310 0 0
0.0044113120 0.0092474670 0 0
0.0047760810 0.0092529220 0 0
0.0049204120 0.0085604690 0 0
0.0047942070 0.0072192450 0 0
0.0043674350 0.0053363530 0 0
0.0036363600 0.0030693490 0 0
0.0026300210 0.0006124030 0 0
0.0014123720 -0.0018229660 0 0
0.0000776020 -0.0040296110 0 0
-0.0012621740 -0.0058256820 0 0
-0.0024954660 -0.0070721820 0 0
-0.0035307080 -0.0076847590 0 0
-0.0043094970 -0.0076383550 0 0
-0.0048108040 -0.0069659930 0 0
-0.0050480070 -0.0057540550 0 0
-0.0050620530 -0.0041351490 0 0
-0.0049126070 -0.0022782260 0 0
-0.0046683620 -0.0003750900 0 0
-0.0043982890 0.0013768560 0 0
-0.0041646210 0.0027940960 0 0
-0.0040163640 0.0037260040 0 0
-0.0039832990 0.0040708250 0 0
-0.0040729660 0.0037871740 0 0
-0.0042716080 0.0029000810 0 0
-0.0045472430 0.0015000810 0 0
-0.0048540360 -0.0002659280 0 0
-0.0051385770 -0.0022114290 0 0
-0.0053464190 -0.0041315640 0 0
-0.0054262520 -0.0058254700 0 0
-0.0053319570 -0.0071176720 0 0
-0.0050249810 -0.0078774860 0 0
-0.0044787810 -0.0080343020 0 0
-0.0036856570 -0.0075854530 0 0
-0.0026641970 -0.0065947160 0 0
-0.0014634940 -0.0051823200 0 0
-0.0001615410 -0.0035088430 0 0
0.0011423520 -0.0017556640 0 0
0.0023408910 -0.0001050760 0 0
0.0033361170 0.0012765800 0 0
0.0040556880 0.0022507400 0 0
0.0044628820 0.0027138570 0 0
0.0045584320 0.0026025940 0 0
0.0043761580 0.0018994350 0 0
0.0039757860 0.0006383940 0 0
0.0034343830 -0.0010922410 0 0
0.0028358220 -0.0031536620 0 0
0.0022585360 -0.0053690500 0 0
0.0017641450 -0.0075441590 0 0
0.0013897780 -0.0094908610 0 0
0.0011456930 -0.0110467560 0 0
0.0010192100 -0.0120879300 0 0
0.0009838960 -0.0125371500 0 0
0.0010101470 -0.0123701220 0 0
0.0010730690 -0.0116193660 0 0
0.0011550810 -0.0103736320 0 0
0.0012423800 -0.0087716210 0 0
0.0013171600 -0.0069896600 0 0
0.0013496350 -0.0052236840 0 0
0.0012938380 -0.0036673070 0 0
0.0010905430 -0.0024895080 0 0
0.0006789890 -0.0018158570 0 0
0.0000145399 -0.0017162580 0 0
-0.0009144980 -0.0022005380 0 0
-0.0020773410 -0.0032205010 0 0
-0.0034011070 -0.0046754490 0 0
-0.0047799350 -0.0064202750 0 0
-0.0060896150 -0.0082781040 0 0
-0.0072035830 -0.0100580730 0 0
-0.0080069620 -0.0115749250 0 0
-0.0084082050 -0.0126662640 0 0
-0.0083489690 -0.0132063420 0 0
-0.0078120200 -0.0131176740 0 0
-0.0068265950 -0.0123811220 0 0
-0.0054699330 -0.0110427770 0 0
-0.0038615830 -0.0092143310 0 0
-0.0021483250 -0.0070642880 0 0
-0.0004831990 -0.0047999410 0 0
0.0009943210 -0.0026423750 0 0
0.0021731990 -0.0007988090 0 0
0.0029815550 0.0005616760 0 0
0.0033934790 0.0013240520 0 0
0.0034296290 0.0014338170 0 0
0.0031498340 0.0008964140 0 0
0.0026384950 -0.0002267960 0 0
0.0019868640 -0.0018240390 0 0
0.0012789860 -0.0037410370 0 0
0.0005851960 -0.0057928780 0 0
-0.0000395011 -0.0077794530 0 0
-0.0005561510 -0.0095030790 0 0
-0.0009413030 -0.0107871010 0 0
-0.0011828720 -0.0114939880 0 0
-0.0012735680 -0.0115407660 0 0
-0.0012069530 -0.0109095070 0 0
-0.0009802510 -0.0096509350 0 0
-0.0006024520 -0.0078800390 0 0
-0.0001013920 -0.0057641570 0 0
0.0004755630 -0.0035053440 0 0
0.0010668280 -0.0013190640 0 0
0.0016041150 0.0005884130 0 0
0.0020201620 0.0020405920 0 0
0.0022570790 0.0029066450 0 0
0.0022749590 0.0031119560 0 0
0.0020582680 0.0026434300 0 0
0.0016173970 0.0015497340 0 0
0.0009851330 -0.0000630572 0 0
0.0002102620 -0.0020400990 0 0
-0.0006487840 -0.0041908010 0 0
-0.0015281110 -0.0063059820 0 0
-0.0023601890 -0.0081780360 0 0
-0.0030754690 -0.0096219780 0 0
-0.0036071840 -0.0104945010 0 0
-0.0039007360 -0.0107080700 0 0
-0.0039253320 -0.0102385300 0 0
-0.0036833630 -0.0091269880 0 0
-0.0032139690 -0.0074769680 0 0
-0.0025895860 -0.0054463870 0 0
-0.0019065370 -0.0032335980 0 0
-0.0012728430 -0.0010578470 0 0
-0.0007961410 0.0008639300 0 0
-0.0005716040 0.0023404600 0 0
-0.0006690810 0.0032261560 0 0
-0.0011218900 0.0034362340 0 0
-0.0019208200 0.0029562750 0 0
-0.0030145640 0.0018448440 0 0
-0.0043155590 0.0002274440 0 0
-0.0057091100 -0.0017185440 0 0
-0.0070649130 -0.0037860020 0 0
-0.0082523080 -0.0057633660 0 0
-0.0091582390 -0.0074581510 0 0
-0.0097015160 -0.0087146020 0 0
-0.0098373210 -0.0094244610 0 0
-0.0095531310 -0.0095331260 0 0
-0.0088623580 -0.0090437360 0 0
-0.0078005520 -0.0080186960 0 0
-0.0064246520 -0.0065753330 0 0
-0.0048125640 -0.0048730770 0 0
-0.0030600560 -0.0030936540 0 0
-0.0012746490 -0.0014194410 0 0
0.0004319400 -0.0000146849 0 0
0.0019523950 0.0009886160 0 0
0.0031941140 0.0015003020 0 0
0.0040900940 0.0014774830 0 0
0.0046073570 0.0009261590 0 0
0.0047501780 -0.0001008160 0 0
0.0045567080 -0.0015098430 0 0
0.0040900990 -0.0031766450 0 0
0.0034284660 -0.0049585160 0 0
0.0026578760 -0.0067067790 0 0
0.0018681590 -0.0082789280 0 0
0.0011483640 -0.0095501170 0 0
0.0005790780 -0.0104227700 0 0
0.0002213100 -0.0108336170 0 0
0.0001051930 -0.0107585770 0 0
0.0002238240 -0.0102153220 0 0
0.0005359490 -0.0092627140 0 0
0.0009764420 -0.0079966910 0 0
0.0014693400 -0.0065425120 0 0
0.0019380400 -0.0050437510 0 0
0.0023107470 -0.0036493450 0 0
0.0025233380 -0.0024998540 0 0
0.0025241420 -0.0017137510 0 0
0.0022830460 -0.0013757470 0 0
0.0018010750 -0.0015291790 0 0
0.0011141160 -0.0021719970 0 0
0.0002885730 -0.0032546510 0 0
-0.0005884170 -0.0046805670 0 0
-0.0014206740 -0.0063121210 0 0
-0.0021150980 -0.0079835640 0 0
-0.0025935850 -0.0095191190 0 0
-0.0028023030 -0.0107532890 0 0
-0.0027154740 -0.0115506190 0 0
-0.0023342710 -0.0118214000 0 0
-0.0016845850 -0.0115301410 0 0
-0.0008161550 -0.0106970530 0 0
0.0001984190 -0.0093953200 0 0
0.0012676250 -0.0077455180 0 0
0.0022879320 -0.0059061640 0 0
0.0031510710 -0.0040595510 0 0
0.0037511990 -0.0023941260 0 0
0.0039949040 -0.0010859670 0 0
0.0038152440 -0.0002813120 0 0
0.0031851040 -0.0000808512 0 0
0.0021233920 -0.0005267000 0 0
0.0006917350 -0.0015944400 0 0
-0.0010161830 -0.0031927820 0 0
-0.0028887400 -0.0051719800 0 0
-0.0048099770 -0.0073403230 0 0
-0.0066705500 -0.0094862270 0 0
-0.0083762430 -0.0114018380 0 0
-0.0098541240 -0.0129040630 0 0
-0.0110555600 -0.0138506790 0 0
-0.0119559820 -0.0141515370 0 0
-0.0125517210 -0.0137757670 0 0
-0.0128552580 -0.0127545070 0 0
-0.0128916590 -0.0111778630 0 0
-0.0126980370 -0.0091860560 0 0
-0.0123246870 -0.0069562440 0 0
-0.0118339140 -0.0046868520 0 0
-0.0112931710 -0.0025807140 0 0
-0.0107637080 -0.0008271830 0 0
-0.0102898900 0.0004167460 0 0
-0.0098937850 0.0010440160 0 0
-0.0095757230 0.0010098250 0 0
-0.0093175710 0.0003365910 0 0
-0.0090861780 -0.0008877020 0 0
-0.0088387490 -0.0025170430 0 0
-0.0085317710 -0.0043614370 0 0
-0.0081302440 -0.0062077850 0 0
-0.0076125890 -0.0078454460 0 0
-0.0069707570 -0.0090915620 0 0
-0.0062091340 -0.0098110970 0 0
-0.0053446010 -0.0099288550 0 0
-0.0044056630 -0.0094330920 0 0
-0.0034287700 -0.0083716190 0 0
-0.0024537810 -0.0068422390 0 0
-0.0015209900 -0.0049798950 0 0
-0.0006699500 -0.0029431360 0 0
0.0000605197 -0.0009023340 0 0
0.0006317500 0.0009692270 0 0
0.0010041890 0.0025028820 0 0
0.0011366970 0.0035443170 0 0
0.0009897070 0.0039684270 0 0
0.0005355800 0.0036986840 0 0
-0.0002264270 0.0027262760 0 0
-0.0012589950 0.0011220300 0 0
-0.0024865200 -0.0009646220 0 0
-0.0038065160 -0.0033214210 0 0
-0.0051077180 -0.0057013290 0 0
-0.0062882310 -0.0078565660 0 0
-0.0072693290 -0.0095701070 0 0
-0.0080042080 -0.0106780850 0 0
-0.0084814550 -0.0110817610 0 0
-0.0087214260 -0.0107524100 0 0
-0.0087660540 -0.0097327550 0 0
-0.0086667440 -0.0081345250 0 0
-0.0084746170 -0.0061292560 0 0
-0.0082343850 -0.0039316790 0 0
-0.0079825060 -0.0017779200 0 0
-0.0077497380 0.0000983669 0 0
-0.0075651250 0.0014892970 0 0
-0.0074568680 0.0022343540 0 0
-0.0074486980 0.0022394170 0 0
-0.0075541610 0.0014899090 0 0
-0.0077715090 0.0000534623 0 0
-0.0080801360 -0.0019297180 0 0
-0.0084393210 -0.0042660750 0 0
-0.0087915670 -0.0067324410 0 0
-0.0090719970 -0.0090998830 0 0
-0.0092207600 -0.0111551200 0 0
-0.0091927210 -0.0127189080 0 0
-0.0089616760 -0.0136616160 0 0
-0.0085210790 -0.0139151810 0 0
-0.0078843980 -0.0134792100 0 0
-0.0070852380 -0.0124194250 0 0
-0.0061750020 -0.0108588700 0 0
-0.0052172260 -0.0089640920 0 0
-0.0042802700 -0.0069280880 0 0
-0.0034300900 -0.0049510780 0 0
-0.0027234680 -0.0032213830 0 0
-0.0022028990 -0.0018996770 0 0
-0.0018948220 -0.0011074820 0 0
-0.0018096950 -0.0009174730 0 0
-0.0019410650 -0.0013437170 0 0
-0.0022639730 -0.0023344290 0 0
-0.0027350160 -0.0037723860 0 0
-0.0032953220 -0.0054857330 0 0
-0.0038770550 -0.0072678530 0 0
-0.0044132190 -0.0089025740 0 0
-0.0048478270 -0.0101904800 0 0
-0.0051421650 -0.0109725800 0 0
-0.0052761710 -0.0111483360 0 0
-0.0052474250 -0.0106853440 0 0
-0.0050699150 -0.0096194790 0 0
-0.0047732590 -0.0080471300 0 0
-0.0044020280 -0.0061125200 0 0
-0.0040133040 -0.0039919530 0 0
-0.0036696580 -0.0018760670 0 0
-0.0034275510 0.0000478616 0 0
-0.0033257930 0.0016113410 0 0
-0.0033791950 0.0026772310 0 0
-0.0035787630 0.0031501620 0 0
-0.0038967270 0.0029845750 0 0
-0.0042939510 0.0021889070 0 0
-0.0047274800 0.0008251660 0 0
-0.0051570780 -0.0009957860 0 0
-0.0055501530 -0.0031229070 0 0
-0.0058844930 -0.0053770130 0 0
-0.0061490570 -0.0075647420 0 0
-0.0063428600 -0.0094934210 0 0
-0.0064708090 -0.0109871800 0 0
-0.0065377590 -0.0119041980 0 0
-0.0065454890 -0.0121527290 0 0
-0.0064947500 -0.0117027230 0 0
-0.0063892700 -0.0105911090 0 0
-0.0062388330 -0.0089200720 0 0
-0.0060615850 -0.0068478790 0 0
-0.0058854670 -0.0045724510 0 0
-0.0057469430 -0.0023100050 0 0
-0.0056859620 -0.0002727770 0 0
-0.0057390140 0.0013513280 0 0
-0.0059338000 0.0024163600 0 0
-0.0062868650 0.0028322270 0 0
-0.0068023490 0.0025733390 0 0
-0.0074697740 0.0016811340 0 0
-0.0082601660 0.0002597650 0 0
-0.0091218170 -0.0015355810 0 0
-0.0099795470 -0.0035161450 0 0
-0.0107422130 -0.0054788870 0 0
-0.0113189070 -0.0072245020 0 0
-0.0116375690 -0.0085742850 0 0
-0.0116581850 -0.0093869850 0 0
-0.0113772640 -0.0095744230 0 0
-0.0108252040 -0.0091122970 0 0
-0.0100596050 -0.0080432260 0 0
-0.0091562110 -0.0064721460 0 0
-0.0081979600 -0.0045561810 0 0
-0.0072633150 -0.0024896220 0 0
-0.0064161000 -0.0004836470 0 0
-0.0056996690 0.0012568970 0 0
-0.0051367640 0.0025549740 0 0
-0.0047326020 0.0032782480 0 0
-0.0044774260 0.0033509190 0 0
-0.0043482760 0.0027598360 0 0
-0.0043125530 0.0015542290 0 0
-0.0043338990 -0.0001602200 0 0
-0.0043777910 -0.0022314480 0 0
-0.0044140080 -0.0044740990 0 0
-0.0044160730 -0.0066852750 0 0
-0.0043608660 -0.0086628630 0 0
-0.0042307180 -0.0102250400 0 0
-0.0040163100 -0.0112282860 0 0
-0.0037173300 -0.0115815610 0 0
-0.0033401470 -0.0112552330 0 0
-0.0028946010 -0.0102840410 0 0
-0.0023928480 -0.0087642360 0 0
-0.0018512620 -0.0068454860 0 0
-0.0012935810 -0.0047172420 0 0
-0.0007526690 -0.0025892330 0 0
-0.0002695100 -0.0006682720 0 0
0.0001103700 0.0008642970 0 0
0.0003421190 0.0018706320 0 0
0.0003877140 0.0022680220 0 0
0.0002217770 0.0020346600 0 0
-0.0001648540 0.0012112210 0 0
-0.0007633600 -0.0001017440 0 0
-0.0015441390 -0.0017525720 0 0
-0.0024537110 -0.0035546170 0 0
-0.0034174470 -0.0053081400 0 0
-0.0043519300 -0.0068233570 0 0
-0.0051823230 -0.0079394880 0 0
-0.0058556370 -0.0085376590 0 0
-0.0063446550 -0.0085489150 0 0
-0.0066445490 -0.0079592320 0 0
-0.0067667770 -0.0068121540 0 0
-0.0067321260 -0.0052078110 0 0
-0.0065636460 -0.0032964650 0 0
-0.0062822270 -0.0012661440 0 0
-0.0059073090 0.0006748340 0 0
-0.0054615270 0.0023196220 0 0
-0.0049749820 0.0034871250 0 0
-0.0044858330 0.0040449450 0 0
-0.0040377200 0.0039260760 0 0
-0.0036754400 0.0031361010 0 0
-0.0034385190 0.0017507410 0 0
-0.0033531990 -0.0000948127 0 0
-0.0034256000 -0.0022230390 0 0
-0.0036386720 -0.0044348530 0 0
-0.0039535300 -0.0065300660 0 0
-0.0043143240 -0.0083241350 0 0
-0.0046559200 -0.0096603540 0 0
-0.0049140850 -0.0104196960 0 0
-0.0050359400 -0.0105306880 0 0
-0.0049866280 -0.0099786990 0 0
-0.0047503870 -0.0088110380 0 0
-0.0043286250 -0.0071347080 0 0
-0.0037392130 -0.0051064940 0 0
-0.0030189730 -0.0029170620 0 0
-0.0022273020 -0.0007711040 0 0
-0.0014457550 0.0011337560 0 0
-0.0007689970 0.0026260060 0 0
-0.0002874790 0.0035751220 0 0
-0.0000676909 0.0039022110 0 0
-0.0001374480 0.0035868820 0 0
-0.0004805730 0.0026697800 0 0
-0.0010416080 0.0012495710 0 0
-0.0017395460 -0.0005262840 0 0
-0.0024869260 -0.0024757750 0 0
-0.0032072480 -0.0043990770 0 0
-0.0038448080 -0.0060965060 0 0
-0.0043656230 -0.0073879080 0 0
-0.0047514780 -0.0081323830 0 0
-0.0049918640 -0.0082449190 0 0
-0.0050797010 -0.0077063290 0 0
-0.0050133550 -0.0065651410 0 0
-0.0048020820 -0.0049324320 0 0
-0.0044700880 -0.0029712770 0 0
-0.0040564750 -0.0008816200 0 0
-0.0036120310 0.0011194280 0 0
-0.0031952620 0.0028207980 0 0
-0.0028676190 0.0040409400 0 0
-0.0026862700 0.0046476460 0 0
-0.0026953710 0.0045715760 0 0
-0.0029187160 0.0038119840 0 0
-0.0033553960 0.0024340150 0 0
-0.0039790890 0.0005592070 0 0
-0.0047411230 -0.0016469640 0 0
-0.0055761330 -0.0039874510 0 0
-0.0064090600 -0.0062466750 0 0
-0.0071628990 -0.0082074540 0 0
-0.0077670180 -0.0096724870 0 0
-0.0081669480 -0.0104869800 0 0
-0.0083344260 -0.0105581910 0 0
-0.0082713900 -0.0098686840 0 0
-0.0080034390 -0.0084805400 0 0
-0.0075676470 -0.0065287550 0 0
-0.0070041130 -0.0042047130 0 0
-0.0063546910 -0.0017333240 0 0
-0.0056649770 0.0006520260 0 0
-0.0049855600 0.0027338420 0 0
-0.0043714170 0.0043320520 0 0
-0.0038776530 0.0053198700 0 0
-0.0035500880 0.0056313910 0 0
-0.0034141370 0.0052612240 0 0
-0.0034687190 0.0042599320 0 0
-0.0036890310 0.0027288770 0 0
-0.0040363370 0.0008141530 0 0
-0.0044687740 -0.0013035440 0 0
-0.0049475110 -0.0034248700 0 0
-0.0054368390 -0.0053519060 0 0
-0.0059008270 -0.0069081860 0 0
-0.0063004010 -0.0079549910 0 0
-0.0065935280 -0.0084027780 0 0
-0.0067390790 -0.0082186080 0 0
-0.0067033210 -0.0074301560 0 0
-0.0064671760 -0.0061252640 0 0
-0.0060316990 -0.0044454660 0 0
-0.0054196590 -0.0025729610 0 0
-0.0046734220 -0.0007117120 0 0
-0.0038512580 0.0009352940 0 0
-0.0030235840 0.0021890800 0 0
-0.0022677020 0.0029144660 0 0
-0.0016580720 0.0030346720 0 0
-0.0012531600 0.0025397810 0 0
-0.0010846900 0.0014878310 0 0
-0.0011532550 -0.0000022286 0 0
-0.0014290030 -0.0017644890 0 0
-0.0018556960 -0.0036039100 0 0
-0.0023599840 -0.0053156220 0 0
-0.0028665420 -0.0067050150 0 0
-0.0033126120 -0.0076076030 0 0
-0.0036540680 -0.0079064230 0 0
-0.0038636490 -0.0075447800 0 0
-0.0039280210 -0.0065326430 0 0
-0.0038468630 -0.0049453290 0 0
-0.0036322600 -0.0029146610 0 0
-0.0033065670 -0.0006150030 0 0
-0.0028988120 0.0017533160 0 0
-0.0024413890 0.0039825380 0 0
-0.0019689910 0.0058772880 0 0
-0.0015190250 0.0072729540 0 0
-0.0011302130 0.0080498990 0 0
-0.0008383530 0.0081430170 0 0
-0.0006722150 0.0075469590 0 0
-0.0006516360 0.0063164800 0 0
-0.0007858910 0.0045616780 0 0
-0.0010705200 0.0024389800 0 0
-0.0014849370 0.0001385320 0 0
-0.0019938870 -0.0021320740 0 0
-0.0025526840 -0.0041677790 0 0
-0.0031141120 -0.0057882230 0 0
-0.0036349420 -0.0068584990 0 0
-0.0040799730 -0.0073038870 0 0
-0.0044227600 -0.0071155240 0 0
-0.0046451300 -0.0063473170 0 0
-0.0047379510 -0.0051068380 0 0
-0.0047027170 -0.0035429010 0 0
-0.0045522540 -0.0018308940 0 0
-0.0043099980 -0.0001557600 0 0
-0.0040077490 0.0013062080 0 0
-0.0036819520 0.0024038780 0 0
-0.0033693600 0.0030242500 0 0
-0.0031036170 0.0031019740 0 0
-0.0029135950 0.0026252470 0 0
-0.0028221830 0.0016373910 0 0
-0.0028431890 0.0002338170 0 0
-0.0029767350 -0.0014458880 0 0
-0.0032068630 -0.0032309640 0 0
-0.0035033550 -0.0049369020 0 0
-0.0038255370 -0.0063848390 0 0
-0.0041259010 -0.0074196540 0 0
-0.0043545900 -0.0079244050 0 0
-0.0044656660 -0.0078307760 0 0
-0.0044238190 -0.0071264750 0 0
-0.0042104490 -0.0058594010 0 0
-0.0038286640 -0.0041357850 0 0
-0.0033056010 -0.0021092900 0 0
-0.0026900790 0.0000382768 0 0
-0.0020445880 0.0021195030 0 0
-0.0014331700 0.0039612740 0 0
-0.0009103170 0.0054192330 0 0
-0.0005153460 0.0063875350 0 0
-0.0002711470 0.0068055380 0 0
-0.0001837430 0.0066620860 0 0
-0.0002424780 0.0059971840 0 0
-0.0004230690 0.0049000070 0 0
-0.0006934360 0.0035017170 0 0
-0.0010189940 0.0019629250 0 0
-0.0013642900 0.0004574040 0 0
-0.0016915710 -0.0008461270 0 0
-0.0019600070 -0.0018019860 0 0
-0.0021281210 -0.0023021240 0 0
-0.0021590770 -0.0022848510 0 0
-0.0020279020 -0.0017381590 0 0
-0.0017300710 -0.0006999760 0 0
-0.0012895380 0.0007432050 0 0
-0.0007621480 0.0024596630 0 0
-0.0002300400 0.0042793900 0 0
0.0002136510 0.0060072990 0 0
0.0004847640 0.0074441360 0 0
0.0005253410 0.0084123930 0 0
0.0003129900 0.0087812870 0 0
-0.0001389770 0.0084850470 0 0
-0.0007890210 0.0075309440 0 0
-0.0015792970 0.0059964120 0 0
-0.0024483070 0.0040171290 0 0
-0.0033396470 0.0017693230 0 0
-0.0042027260 -0.0005501520 0 0
-0.0049871080 -0.0027433060 0 0
-0.0056385320 -0.0046287740 0 0
-0.0061026190 -0.0060567670 0 0
-0.0063339070 -0.0069199960 0 0
-0.0063040970 -0.0071603940 0 0
-0.0060063960 -0.0067730420 0 0
-0.0054565410 -0.0058081180 0 0
-0.0046921550 -0.0043691660 0 0
-0.0037711430 -0.0026055100 0 0
-0.0027681900 -0.0006987370 0 0
-0.0017684310 0.0011551390 0 0
-0.0008587900 0.0027654850 0 0
-0.0001183100 0.0039661810 0 0
0.0003917440 0.0046321590 0 0
0.0006376320 0.0046916670 0 0
0.0006207270 0.0041323890 0 0
0.0003794350 0.0030008270 0 0
-0.0000165152 0.0013961920 0 0
-0.0004784230 -0.0005397870 0 0
-0.0009139950 -0.0026362460 0 0
-0.0012405000 -0.0047081110 0 0
-0.0013922910 -0.0065709410 0 0
-0.0013243950 -0.0080557240 0 0
-0.0010161620 -0.0090242760 0 0
-0.0004756850 -0.0093843200 0 0
0.0002577410 -0.0091015750 0 0
0.0011155070 -0.0082057960 0 0
0.0020073270 -0.0067888200 0 0
0.0028347750 -0.0049946210 0 0
0.0035076720 -0.0030035040 0 0
0.0039575250 -0.0010135590 0 0
0.0041434290 0.0007782580 0 0
0.0040502760 0.0021941760 0 0
0.0036820790 0.0030917800 0 0
0.0030536020 0.0033770860 0 0
0.0021840370 0.0030132010 0 0
0.0010965570 0.0020236610 0 0
-0.0001755100 0.0004906970 0 0
-0.0015799020 -0.0014504200 0 0
-0.0030402700 -0.0036202720 0 0
-0.0044586570 -0.0058084930 0 0
-0.0057247300 -0.0077933150 0 0
-0.0067278440 -0.0093671540 0 0
-0.0073692690 -0.0103637950 0 0
-0.0075740330 -0.0106811390 0 0
-0.0073015720 -0.0102950430 0 0
-0.0065531190 -0.0092620660 0 0
-0.0053739550 -0.0077110910 0 0
-0.0038498960 -0.0058258410 0 0
-0.0020983660 -0.0038215330 0 0
-0.0002554240 -0.0019194870 0 0
0.0015388150 -0.0003233680 0 0
0.0031539640 0.0008004370 0 0
0.0044817750 0.0013372220 0 0
0.0054478340 0.0012327270 0 0
0.0060215060 0.0004959050 0 0
0.0062199410 -0.0008046410 0 0
0.0061029250 -0.0025499650 0 0
0.0057605070 -0.0045839110 0 0
0.0052985400 -0.0067276840 0 0
0.0048257300 -0.0087939690 0 0
0.0044427900 -0.0106001320 0 0
0.0042325070 -0.0119817470 0 0
0.0042502800 -0.0128074950 0 0
0.0045168370 -0.0129939190 0 0
0.0050158870 -0.0125166560 0 0
0.0056983820 -0.0114154920 0 0
0.0064924890 -0.0097922140 0 0
0.0073157020 -0.0078011630 0 0
0.0080851820 -0.0056332990 0 0
0.0087250370 -0.0034964370 0 0
0.0091720240 -0.0015952400 0 0
0.0093813000 -0.0001124070 0 0
0.0093319030 0.0008090940 0 0
0.0090294020 0.0010814280 0 0
0.0085031720 0.0006822480 0 0
0.0077994230 -0.0003423470 0 0
0.0069746290 -0.0018835200 0 0
0.0060925560 -0.0037834620 0 0
0.0052235570 -0.0058544230 0 0
0.0044422650 -0.0078991430 0 0
0.0038212830 -0.0097290780 0 0
0.0034221930 -0.0111793610 0 0
0.0032873880 -0.0121221560 0 0
0.0034352220 -0.0124787240 0 0
0.0038587800 -0.0122272770 0 0
0.0045268860 -0.0114042790 0 0
0.0053859710 -0.0101002360 0 0
0.0063632450 -0.0084519530 0 0
0.0073726020 -0.0066314200 0 0
0.0083232520 -0.0048302140 0 0
0.0091296490 -0.0032395610 0 0
0.0097216190 -0.0020282470 0 0
0.0100539170 -0.0013218970 0 0
0.0101135790 -0.0011876430 0 0
0.0099215760 -0.0016271410 0 0
0.0095260390 -0.0025785170 0 0
0.0089887390 -0.0039258370 0 0
0.0083697040 -0.0055138390 0 0
0.0077158070 -0.0071655800 0 0
0.0070590230 -0.0087010360 0 0
0.0064253150 -0.0099543620 0 0
0.0058468740 -0.0107875360 0 0
0.0053672170 -0.0111003480 0 0
0.0050348800 -0.0108386600 0 0
0.0048902430 -0.0100016840 0 0
0.0049531360 -0.0086462810 0 0
0.0052160390 -0.0068858560 0 0
0.0056431020 -0.0048828390 0 0
0.0061732580 -0.0028342810 0 0
0.0067269380 -0.0009504620 0 0
0.0072163640 0.0005706130 0 0
0.0075574210 0.0015666520 0 0
0.0076803050 0.0019275540 0 0
0.0075380250 0.0016048890 0 0
0.0071132590 0.0006162720 0 0
0.0064229150 -0.0009556240 0 0
0.0055183170 -0.0029707340 0 0
0.0044799830 -0.0052456790 0 0
0.0034073690 -0.0075725400 0 0
0.0024044580 -0.0097404260 0 0
0.0015641580 -0.0115575080 0 0
0.0009566500 -0.0128704690 0 0
0.0006244130 -0.0135784930 0 0
0.0005811620 -0.0136407790 0 0
0.0008109110 -0.0130785200 0 0
0.0012681910 -0.0119722730 0 0
0.0018829470 -0.0104539720 0 0
0.0025703250 -0.0086928920 0 0
0.0032425700 -0.0068774880 0 0
0.0038205320 -0.0051963890 0 0
0.0042431060 -0.0038207730 0 0
0.0044731030 -0.0028892360 0 0
0.0044986450 -0.0024958540 0 0
0.0043302200 -0.0026820150 0 0
0.0039950140 -0.0034328240 0 0
0.0035317100 -0.0046786430 0 0
0.0029878940 -0.0063011360 0 0
0.0024187960 -0.0081427810 0 0
0.0018843330 -0.0100197820 0 0
0.0014428660 -0.0117388980 0 0
0.0011432850 -0.0131178060 0 0
0.0010188240 -0.0140065630 0 0
0.0010848800 -0.0143059750 0 0
0.0013405930 -0.0139789760 0 0
0.0017717960 -0.0130532750 0 0
0.0023521430 -0.0116154620 0 0
0.0030415620 -0.0097982970 0 0
0.0037846440 -0.0077646060 0 0
0.0045125710 -0.0056912450 0 0
0.0051505550 -0.0037542580 0 0
0.0056296330 -0.0021148080 0 0
0.0058986510 -0.0009059240 0 0
0.0059319000 -0.0002209300 0 0
0.0057307470 -0.0001047420 0 0
0.0053208560 -0.0005494810 0 0
0.0047474250 -0.0014952240 0 0
0.0040700270 -0.0028350180 0 0
0.0033580750 -0.0044229770 0 0
0.0026861800 -0.0060860400 0 0
0.0021264410 -0.0076407230 0 0
0.0017364990 -0.0089135690 0 0
0.0015475480 -0.0097611100 0 0
0.0015586460 -0.0100850350 0 0
0.0017405000 -0.0098403670 0 0
0.0020472570 -0.0090373890 0 0
0.0024315820 -0.0077398290 0 0
0.0028568470 -0.0060602190 0 0
0.0033019670 -0.0041507640 0 0
0.0037591570 -0.0021888180 0 0
0.0042278460 -0.0003590330 0 0
0.0047069220 0.0011644190 0 0
0.0051871910 0.0022331790 0 0
0.0056478180 0.0027365290 0 0
0.0060589030 0.0026094340 0 0
0.0063878300 0.0018375900 0 0
0.0066059120 0.0004609910 0 0
0.0066941330 -0.0014240940 0 0
0.0066476120 -0.0036677840 0 0
0.0064773690 -0.0060774570 0 0
0.0062087480 -0.0084373430 0 0
0.0058776890 -0.0105333360 0 0
0.0055262160 -0.0121779460 0 0
0.0051977380 -0.0132314100 0 0
0.0049321230 -0.0136167700 0 0
0.0047598320 -0.0133275180 0 0
0.0046954690 -0.0124267710 0 0
0.0047337600 -0.0110382670 0 0
0.0048509050 -0.0093311670 0 0
0.0050111190 -0.0075010270 0 0
0.0051755270 -0.0057489860 0 0
0.0053093560 -0.0042615230 0 0
0.0053842470 -0.0031930320 0 0
0.0053761620 -0.0026522790 0 0
0.0052630100 -0.0026930540 0 0
0.0050257770 -0.0033092210 0 0
0.0046540390 -0.0044345610 0 0
0.0041539610 -0.0059481220 0 0
0.0035538760 -0.0076856620 0 0
0.0029025040 -0.0094568130 0 0
0.0022601690 -0.0110659880 0 0
0.0016880380 -0.0123336270 0 0
0.0012402270 -0.0131139600 0 0
0.0009600880 -0.0133070030 0 0
0.0008780840 -0.0128652350 0 0
0.0010082590 -0.0117968600 0 0
0.0013444690 -0.0101662620 0 0
0.0018595980 -0.0080902160 0 0
0.0025079420 -0.0057282960 0 0
0.0032285510 -0.0032682380 0 0
0.0039494100 -0.0009090400 0 0
0.0045950330 0.0011560920 0 0
0.0050982490 0.0027566460 0 0
0.0054125800 0.0037612460 0 0
0.0055205590 0.0040918350 0 0
0.0054357050 0.0037333110 0 0
0.0051980940 0.0027371330 0 0
0.0048657320 0.0012180000 0 0
0.0045055980 -0.0006571210 0 0
0.0041863810 -0.0026870340 0 0
0.0039713210 -0.0046588390 0 0
0.0039091410 -0.0063718760 0 0
0.0040248810 -0.0076603020 0 0
0.0043152080 -0.0084110020 0 0
0.0047507360 -0.0085738220 0 0
0.0052833130 -0.0081632650 0 0
0.0058539080 -0.0072528370 0 0
0.0063984310 -0.0059639570 0 0
0.0068522630 -0.0044518940 0 0
0.0071561550 -0.0028910840 0 0
0.0072650180 -0.0014604090 0 0
0.0071572170 -0.0003277250 0 0
0.0068391840 0.0003660090 0 0
0.0063427200 0.0005209350 0 0
0.0057175130 0.0000888006 0 0
0.0050230280 -0.0009212680 0 0
0.0043212220 -0.0024425400 0 0
0.0036694160 -0.0043566760 0 0
0.0031139990 -0.0065055860 0 0
0.0026872740 -0.0087078280 0 0
0.0024089510 -0.0107773660 0 0
0.0022910900 -0.0125416230 0 0
0.0023419330 -0.0138557630 0 0
0.0025644880 -0.0146124040 0 0
0.0029511520 -0.0147485850 0 0
0.0034792150 -0.0142515870 0 0
0.0041104620 -0.0131624840 0 0
0.0047942960 -0.0115747790 0 0
0.0054721760 -0.0096267970 0 0
0.0060827710 -0.0074892400 0 0
0.0065690280 -0.0053506110 0 0
0.0068873280 -0.0034019550 0 0
0.0070159210 -0.0018206790 0 0
0.0069585370 -0.0007535140 0 0
0.0067412990 -0.0003007260 0 0
0.0064039550 -0.0005051640 0 0
0.0059888020 -0.0013482270 0 0
0.0055325480 -0.0027521200 0 0
0.0050652640 -0.0045870870 0 0
0.0046159180 -0.0066836530 0 0
0.0042195010 -0.0088503320 0 0
0.0039204420 -0.0108953500 0 0
0.0037695810 -0.0126478730 0 0
0.0038155210 -0.0139733270 0 0
0.0040941160 -0.0147808130 0 0
0.0046199410 -0.0150251720 0 0
0.0053808110 -0.0147070940 0 0
0.0063352750 -0.0138719350 0 0
0.0074147310 -0.0126060110 0 0
0.0085316430 -0.0110301640 0 0
0.0095917300 -0.0092911320 0 0
0.0105056030 -0.0075502500 0 0
0.0111973520 -0.0059686940 0 0
0.0116115450 -0.0046904590 0 0
0.0117194440 -0.0038262260 0 0
0.0115210540 -0.0034412670 0 0
0.0110410640 -0.0035493170 0 0
0.0103228680 -0.0041127270 0 0
0.0094243540 -0.0050471040 0 0
0.0084143750 -0.0062284240 0 0
0.0073683650 -0.0075032120 0 0
0.0063622540 -0.0087037960 0 0
0.0054639740 -0.0096681440 0 0
0.0047247560 -0.0102601870 0 0
0.0041743400 -0.0103861290 0 0
0.0038214830 -0.0100050050 0 0
0.0036573310 -0.0091338080 0 0
0.0036579270 -0.0078470890 0 0
0.0037850780 -0.0062699840 0 0
0.0039889610 -0.0045642320 0 0
0.0042148770 -0.0029087190 0 0
0.0044117340 -0.0014779900 0 0
0.0045386930 -0.0004224630 0 0
0.0045689480 0.0001473270 0 0
0.0044912250 0.0001719740 0 0
0.0043095540 -0.0003503140 0 0
0.0040419630 -0.0013636400 0 0
0.0037189430 -0.0027622500 0 0
0.0033817880 -0.0044043530 0 0
0.0030797340 -0.0061275600 0 0
0.0028646010 -0.0077637110 0 0
0.0027823510 -0.0091538550 0 0
0.0028632570 -0.0101639950 0 0
0.0031148410 -0.0106999500 0 0
0.0035214540 -0.0107178860 0 0
0.0040510150 -0.0102273650 0 0
0.0046656540 -0.0092866530 0 0
0.0053309850 -0.0079933200 0 0
0.0060194060 -0.0064737950 0 0
0.0067059760 -0.0048733380 0 0
0.0073598100 -0.0033461430 0 0
0.0079373040 -0.0020446640 0 0
0.0083830980 -0.0011071090 0 0
0.0086394170 -0.0006430940 0 0
0.0086589970 -0.0007196440 0 0
0.0084160690 -0.0013512070 0 0
0.0079124660 -0.0024967590 0 0
0.0071786500 -0.0040644740 0 0
0.0062711830 -0.0059217070 0 0
0.0052677010 -0.0079077760 0 0
0.0042581510 -0.0098485420 0 0
0.0033319350 -0.0115723160 0 0
0.0025648630 -0.0129258860 0 0
0.0020103460 -0.0137888590 0 0
0.0016959420 -0.0140844530 0 0
0.0016243490 -0.0137855000 0 0
0.0017768200 -0.0129160140 0 0
0.0021170840 -0.0115496520 0 0
0.0025963040 -0.0098054140 0 0
0.0031596160 -0.0078396530 0 0
0.0037520770 -0.0058332990 0 0
0.0043228050 -0.0039741930 0 0
0.0048291040 -0.0024367490 0 0
0.0052411830 -0.0013629490 0 0
0.0055458830 -0.0008474380 0 0
0.0057482870 -0.0009276020 0 0
0.0058708000 -0.0015799730 0 0
0.0059491770 -0.0027243670 0 0
0.0060255100 -0.0042344000 0 0
0.0061395670 -0.0059514770 0 0
0.0063218320 -0.0077008100 0 0
0.0065918780 -0.0093092260 0 0
0.0069618600 -0.0106234140 0 0
0.0074402560 -0.0115259460 0 0
0.0080312050 -0.0119463960 0 0
0.0087298640 -0.0118662640 0 0
0.0095181120 -0.0113178830 0 0
0.0103631430 -0.0103789820 0 0
0.0112173140 -0.0091649340 0 0
0.0120176980 -0.0078191820 0 0
0.0126877490 -0.0065009230 0 0
0.0131454250 -0.0053698420 0 0
0.0133182870 -0.0045691340 0 0
0.0131600410 -0.0042087570 0 0
0.0126609950 -0.0043511730 0 0
0.0118487340 -0.0050022530 0 0
0.0107807110 -0.0061095580 0 0
0.0095326950 -0.0075683460 0 0
0.0081863170 -0.0092332410 0 0
0.0068185790 -0.0109323100 0 0
0.0054966460 -0.0124818000 0 0
0.0042794080 -0.0137021260 0 0
0.0032228530 -0.0144357050 0 0
0.0023832280 -0.0145646170 0 0
0.0018133720 -0.0140244640 0 0
0.0015521860 -0.0128127490 0 0
0.0016113640 -0.0109927570 0 0
0.0019652100 -0.0086928370 0 0
0.0025484900 -0.0060981690 0 0
0.0032641970 -0.0034330230 0 0
0.0039981440 -0.0009359710 0 0
0.0046343030 0.0011668400 0 0
0.0050672060 0.0026857650 0 0
0.0052121540 0.0034858130 0 0
0.0050156580 0.0034976370 0 0
0.0044660950 0.0027222790 0 0
0.0035998510 0.0012305030 0 0
0.0024961500 -0.0008438240 0 0
0.0012590170 -0.0033166580 0 0
-0.0000070348 -0.0059719560 0 0
-0.0012177150 -0.0085827890 0 0
-0.0023185720 -0.0109322710 0 0
-0.0032815870 -0.0128314500 0 0
-0.0040935950 -0.0141333860 0 0
-0.0047446250 -0.0147445520 0 0
-0.0052220290 -0.0146339830 0 0
-0.0055116100 -0.0138382230 0 0
-0.0056029930 -0.0124590280 0 0
-0.0054956020 -0.0106527770 0 0
-0.0052039020 -0.0086136020 0 0
-0.0047616700 -0.0065535140 0 0
-0.0042230910 -0.0046820640 0 0
-0.0036577100 -0.0031867220 0 0
-0.0031392270 -0.0022145510 0 0
-0.0027318240 -0.0018569160 0 0
-0.0024782170 -0.0021404960 0 0
-0.0023915720 -0.0030268580 0 0
-0.0024523820 -0.0044199430 0 0
-0.0026120490 -0.0061787370 0 0
-0.0028030460 -0.0081325780 0 0
-0.0029511910 -0.0100977410 0 0
-0.0029845010 -0.0118942010 0 0
-0.0028380750 -0.0133604770 0 0
-0.0024592870 -0.0143644480 0 0
-0.0018157060 -0.0148105980 0 0
-0.0009035870 -0.0146467290 0 0
0.0002462900 -0.0138717940 0 0
0.0015675750 -0.0125419740 0 0
0.0029632000 -0.0107703860 0 0
0.0043156660 -0.0087189270 0 0
0.0055009690 -0.0065839200 0 0
0.0064042440 -0.0045773060 0 0
0.0069347950 -0.0029045170 0 0
0.0070372070 -0.0017412050 0 0
0.0066966840 -0.0012121870 0 0
0.0059395100 -0.0013758320 0 0
0.0048292800 -0.0022163620 0 0
0.0034586100 -0.0036453530 0 0
0.0019383880 -0.0055117440 0 0
0.0003881480 -0.0076184870 0 0
-0.0010718690 -0.0097441730 0 0
-0.0023292920 -0.0116676350 0 0
-0.0032899710 -0.0131926970 0 0
-0.0038886400 -0.0141701420 0 0
-0.0040973630 -0.0145138390 0 0
-0.0039287110 -0.0142079790 0 0
-0.0034312970 -0.0133043290 0 0
-0.0026793050 -0.0119117580 0 0
-0.0017616710 -0.0101820230 0 0
-0.0007751260 -0.0082943120 0 0
0.0001802500 -0.0064386480 0 0
0.0010076470 -0.0047979360 0 0
0.0016246740 -0.0035301960 0 0
0.0019762630 -0.0027541600 0 0
0.0020444130 -0.0025406590 0 0
0.0018513940 -0.0029090990 0 0
0.0014551190 -0.0038266530 0 0
0.0009375400 -0.0052094200 0 0
0.0003892990 -0.0069268360 0 0
-0.0001046820 -0.0088112830 0 0
-0.0004752720 -0.0106741620 0 0
-0.0006740250 -0.0123269610 0 0
-0.0006738640 -0.0136029950 0 0
-0.0004678230 -0.0143756590 0 0
-0.0000682395 -0.0145715500 0 0
0.0004937790 -0.0141778590 0 0
0.0011705210 -0.0132428660 0 0
0.0019020850 -0.0118692650 0 0
0.0026225040 -0.0102024130 0 0
0.0032672410 -0.0084160790 0 0
0.0037806660 -0.0066968690 0 0
0.0041204930 -0.0052277630 0 0
0.0042573930 -0.0041717360 0 0
0.0041714430 -0.0036565850 0 0
0.0038493380 -0.0037618850 0 0
0.0032861990 -0.0045084860 0 0
0.0024921770 -0.0058513450 0 0
0.0014989780 -0.0076783590 0 0
0.0003612520 -0.0098189090 0 0
-0.0008476090 -0.0120630270 0 0
-0.0020426400 -0.0141871810 0 0
-0.0031361430 -0.0159796710 0 0
-0.0040481880 -0.0172603600 0 0
-0.0047167770 -0.0178944420 0 0
-0.0051046030 -0.0178025700 0 0
-0.0052013470 -0.0169676590 0 0
-0.0050218300 -0.0154371200 0 0
-0.0046011520 -0.0133206150 0 0
-0.0039891890 -0.0107835540 0 0
-0.0032463300 -0.0080352590 0 0
-0.0024404320 -0.0053111550 0 0
-0.0016433690 -0.0028504230 0 0
-0.0009253510 -0.0008717900 0 0
-0.0003468260 0.0004496480 0 0
0.0000505793 0.0010020550 0 0
0.0002517730 0.0007504010 0 0
0.0002716190 -0.0002593970 0 0
0.0001521230 -0.0019077380 0 0
-0.0000458723 -0.0040175230 0 0
-0.0002541680 -0.0063742780 0 0
-0.0004089030 -0.0087472620 0 0
-0.0004589360 -0.0109103190 0 0
-0.0003694360 -0.0126606520 0 0
-0.0001230740 -0.0138346180 0 0
0.0002780400 -0.0143211660 0 0
0.0008096970 -0.0140729840 0 0
0.0014250850 -0.0131135360 0 0
0.0020596840 -0.0115374120 0 0
0.0026429310 -0.0095018550 0 0
0.0031137150 -0.0072092700 0 0
0.0034328230 -0.0048836830 0 0
0.0035865420 -0.0027457530 0 0
0.0035812880 -0.0009901190 0 0
0.0034338980 0.0002324650 0 0
0.0031631520 0.0008270400 0 0
0.0027862720 0.0007606960 0 0
0.0023208650 0.0000637934 0 0
0.0017885770 -0.0011737020 0 0
0.0012156180 -0.0028110430 0 0
0.0006303560 -0.0046706660 0 0
0.0000624289 -0.0065563080 0 0
-0.0004546320 -0.0082731380 0 0
-0.0008801160 -0.0096471960 0 0
-0.0011663750 -0.0105420180 0 0
-0.0012648630 -0.0108712550 0 0
-0.0011371140 -0.0106064650 0 0
-0.0007668390 -0.0097793200 0 0
-0.0001680630 -0.0084781960 0 0
0.0006136900 -0.0068398810 0 0
0.0015065570 -0.0050371200 0 0
0.0024215940 -0.0032622540 0 0
0.0032637640 -0.0017075820 0 0
0.0039425200 -0.0005450200 0 0
0.0043812970 0.0000914674 0 0
0.0045267390 0.0001194330 0 0
0.0043570040 -0.0004822570 0 0
0.0038864600 -0.0016687220 0 0
0.0031648590 -0.0033314060 0 0
0.0022711210 -0.0053081460 0 0
0.0013027850 -0.0074006100 0 0
0.0003623830 -0.0093972680 0 0
-0.0004571090 -0.0110980590 0 0
-0.0010847820 -0.0123366970 0 0
-0.0014794410 -0.0129973790 0 0
-0.0016307490 -0.0130235080 0 0
-0.0015546220 -0.0124181940 0 0
-0.0012867760 -0.0112390350 0 0
-0.0008784600 -0.0095908450 0 0
-0.0003931230 -0.0076187070 0 0
0.0001010570 -0.0055009560 0 0
0.0005437440 -0.0034387960 0 0
0.0008944790 -0.0016387540 0 0
0.0011377770 -0.0002876600 0 0
0.0012796040 0.0004743690 0 0
0.0013381210 0.0005739410 0 0
0.0013333850 0.0000109484 0 0
0.0012799830 -0.0011476250 0 0
0.0011844050 -0.0027808060 0 0
0.0010473900 -0.0047291650 0 0
0.0008706500 -0.0068116140 0 0
0.0006650460 -0.0088426820 0 0
0.0004546220 -0.0106484340 0 0
0.0002730690 -0.0120798550 0 0
0.0001556310 -0.0130235950 0 0
0.0001315130 -0.0134102560 0 0
0.0002189110 -0.0132200420 0 0
0.0004226490 -0.0124849650 0 0
0.0007336390 -0.0112862860 0 0
0.0011287190 -0.0097468660 0 0
0.0015705340 -0.0080197130 0 0
0.0020085860 -0.0062736930 0 0
0.0023826320 -0.0046770910 0 0
0.0026297180 -0.0033815650 0 0
0.0026944940 -0.0025101360 0 0
0.0025390350 -0.0021506170 0 0
0.0021484050 -0.0023528760 0 0
0.0015320900 -0.0031266320 0 0
0.0007234630 -0.0044372200 0 0
-0.0002218520 -0.0062001530 0 0
-0.0012298280 -0.0082792460 0 0
-0.0022159260 -0.0104936950 0 0
-0.0030968920 -0.0126359860 0 0
-0.0038025160 -0.0144973610 0 0
-0.0042830820 -0.0158943890 0 0
-0.0045126930 -0.0166908650 0 0
-0.0044908670 -0.0168122540 0 0
-0.0042428280 -0.0162526210 0 0
-0.0038173430 -0.0150747340 0 0
-0.0032811770 -0.0134028810 0 0
-0.0027106550 -0.0114081020 0 0
-0.0021829130 -0.0092882970 0 0
-0.0017692090 -0.0072472570 0 0
-0.0015294970 -0.0054750690 0 0
-0.0015057550 -0.0041309070 0 0
-0.0017139610 -0.0033286760 0 0
-0.0021389150 -0.0031257030 0 0
-0.0027365580 -0.0035153530 0 0
-0.0034435340 -0.0044255390 0 0
-0.0041895500 -0.0057252870 0 0
-0.0049081650 -0.0072399730 0 0
-0.0055437130 -0.0087730600 0 0
-0.0060541760 -0.0101298120 0 0
-0.0064105010 -0.0111381430 0 0
-0.0065928570 -0.0116646900 0 0
-0.0065861820 -0.0116275860 0 0
-0.0063795100 -0.0110065210 0 0
-0.0059715350 -0.0098471510 0 0
-0.0053796850 -0.0082568200 0 0
-0.0046468610 -0.0063921710 0 0
-0.0038411890 -0.0044417230 0 0
-0.0030483110 -0.0026064100 0 0
-0.0023593680 -0.0010794190 0 0
-0.0018578520 -0.0000260713 0 0
-0.0016069090 0.0004340920 0 0
-0.0016388370 0.0002402680 0 0
-0.0019499240 -0.0006029680 0 0
-0.0025032700 -0.0020259360 0 0
-0.0032385050 -0.0039015850 0 0
-0.0040839100 -0.0060597060 0 0
-0.0049670230 -0.0083051100 0 0
-0.0058220280 -0.0104373730 0 0
-0.0065937830 -0.0122701090 0 0
-0.0072392270 -0.0136475190 0 0
-0.0077263730 -0.0144566890 0 0
-0.0080311120 -0.0146355830 0 0
-0.0081349280 -0.0141767740 0 0
-0.0080276220 -0.0131265060 0 0
-0.0077146620 -0.0115790510 0 0
-0.0072241950 -0.0096674290 0 0
-0.0066093110 -0.0075523850 0 0
-0.0059443750 -0.0054108530 0 0
-0.0053168500 -0.0034238780 0 0
-0.0048171390 -0.0017630530 0 0
-0.0045283110 -0.0005745670 0 0
-0.0045161490 0.0000382013 0 0
-0.0048192020 0.0000294186 0 0
-0.0054393440 -0.0005818070 0 0
-0.0063360250 -0.0017127170 0 0
-0.0074289760 -0.0032252470 0 0
-0.0086110890 -0.0049396650 0 0
-0.0097680580 -0.0066525610 0 0
-0.0107981320 -0.0081580570 0 0
-0.0116255590 -0.0092701680 0 0
-0.0122052470 -0.0098437650 0 0
-0.0125208120 -0.0097920420 0 0
-0.0125793520 -0.0090985790 0 0
-0.0124051570 -0.0078211600 0 0
-0.0120346970 -0.0060849730 0 0
-0.0115149270 -0.0040661020 0 0
-0.0109039940 -0.0019695920 0 0
-0.0102702320 -0.0000067917 0 0
-0.0096853590 0.0016250280 0 0
-0.0092118190 0.0027598880 0 0
-0.0088890740 0.0032772410 0 0
-0.0087252230 0.0031129710 0 0
-0.0086971240 0.0022663010 0 0
-0.0087575760 0.0008012370 0 0
-0.0088466430 -0.0011582030 0 0
-0.0089043710 -0.0034390190 0 0
-0.0088810910 -0.0058360520 0 0
-0.0087416980 -0.0081326480 0 0
-0.0084634680 -0.0101218460 0 0
-0.0080311110 -0.0116260430 0 0
-0.0074341510 -0.0125146860 0 0
-0.0066684160 -0.0127180160 0 0
-0.0057403110 -0.0122331010 0 0
-0.0046731500 -0.0111205370 0 0
-0.0035139540 -0.0094941090 0 0
-0.0023359340 -0.0075071700 0 0
-0.0012328430 -0.0053385530 0 0
-0.0003059730 -0.0031790500 0 0
0.0003524060 -0.0012170750 0 0
0.0006745130 0.0003781870 0 0
0.0006274140 0.0014749190 0 0
0.0002169010 0.0019947390 0 0
-0.0005135670 0.0019235910 0 0
-0.0014867420 0.0013143340 0 0
-0.0025976860 0.0002789080 0 0
-0.0037226120 -0.0010281590 0 0
-0.0047304430 -0.0024301570 0 0
-0.0054963790 -0.0037485110 0 0
-0.0059164140 -0.0048212770 0 0
-0.0059211890 -0.0055185380 0 0
-0.0054868620 -0.0057532800 0 0
-0.0046402530 -0.0054875010 0 0
-0.0034561570 -0.0047342580 0 0
-0.0020469810 -0.0035560510 0 0
-0.0005477320 -0.0020597260 0 0
0.0008988380 -0.0003878270 0 0
0.0021541030 0.0012941460 0 0
0.0030940560 0.0028145920 0 0
0.0036201540 0.0040146250 0 0
0.0036684260 0.0047652570 0 0
0.0032148990 0.0049801480 0 0
0.0022781340 0.0046229800 0 0
0.0009192020 0.0037094560 0 0
-0.0007623170 0.0023042760 0 0
-0.0026374460 0.0005141590 0 0
-0.0045616990 -0.0015212660 0 0
-0.0063920360 -0.0036396910 0 0
-0.0080031520 -0.0056680770 0 0
-0.0092981630 -0.0074372450 0 0
-0.0102121490 -0.0087983530 0 0
-0.0107120270 -0.0096384900 0 0
-0.0107959790 -0.0098922450 0 0
-0.0104919500 -0.0095472420 0 0
-0.0098532680 -0.0086431110 0 0
-0.0089512150 -0.0072648890 0 0
-0.0078664580 -0.0055332340 0 0
-0.0066817760 -0.0035943840 0 0
-0.0054777400 -0.0016112180 0 0
-0.0043312580 0.0002460980 0 0
-0.0033145640 0.0018120900 0 0
-0.0024909460 0.0029405780 0 0
-0.0019063340 0.0035199040 0 0
-0.0015802610 0.0034867440 0 0
-0.0015001580 0.0028367670 0 0
-0.0016209080 0.0016298200 0 0
-0.0018702470 -0.0000129997 0 0
-0.0021586640 -0.0019213020 0 0
-0.0023907560 -0.0038943310 0 0
-0.0024763640 -0.0057233060 0 0
-0.0023417240 -0.0072138810 0 0
-0.0019398430 -0.0082062990 0 0
-0.0012574090 -0.0085919340 0 0
-0.0003158270 -0.0083256870 0 0
0.0008342250 -0.0074330160 0 0
0.0021223550 -0.0060091480 0 0
0.0034675340 -0.0042088100 0 0
0.0047838450 -0.0022276540 0 0
0.0059843530 -0.0002785150 0 0
0.0069862190 0.0014338640 0 0
0.0077179190 0.0027355180 0 0
0.0081266270 0.0034997150 0 0
0.0081834250 0.0036560520 0 0
0.0078855220 0.0031935330 0 0
0.0072566470 0.0021594220 0 0
0.0063475610 0.0006546100 0 0
0.0052366300 -0.0011750490 0 0
0.0040273640 -0.0031515450 0 0
0.0028413640 -0.0050801360 0 0
0.0018090010 -0.0067660570 0 0
0.0010594270 -0.0080327360 0 0
0.0007079730 -0.0087408990 0 0
0.0008399040 -0.0088057560 0 0
0.0014940830 -0.0082091370 0 0
0.0026521790 -0.0070045000 0 0
0.0042377190 -0.0053132230 0 0
0.0061258950 -0.0033115930 0 0
0.0081611630 -0.0012104470 0 0
0.0101778780 0.0007673870 0 0
0.0120204070 0.0024070780 0 0
0.0135600980 0.0035183390 0 0
0.0147062780 0.0039500260 0 0
0.0154102860 0.0036030400 0 0
0.0156659450 0.0024401360 0 0
0.0155105400 0.0004911810 0 0
0.0150256390 -0.0021468650 0 0
0.0143341570 -0.0053156870 0 0
0.0135914360 -0.0088077490 0 0
0.0129696690 -0.0123853720 0 0
0.0126375060 -0.0158062590 0 0
0.0127401570 -0.0188524820 0 0
0.0133836110 -0.0213570630 0 0
0.0146226420 -0.0232217080 0 0
0.0164538430 -0.0244219950 0 0
0.0188182740 -0.0250003680 0 0
0.0216147980 -0.0250510500 0 0
0.0247184420 -0.0247030900 0 0
0.0279968730 -0.0241066330 0 0
0.0313223180 -0.0234237380 1 0
0.0345802100 -0.0228211930 1 0
0.0376769480 -0.0224619890 1 0
0.0405473460 -0.0224936430 1 0
0.0431595160 -0.0230326930 1 0
0.0455146750 -0.0241461790 1 0
0.0476419640 -0.0258346130 1 0
0.0495905240 -0.0280238650 1 0
0.0514213060 -0.0305710000 1 -1
0.0532003480 -0.0332833100 1 -1
0.0549939500 -0.0359459800 1 -1
0.0568651200 -0.0383525960 1 -1
0.0588700320 -0.0403323600 1 -1
0.0610538430 -0.0417686000 1 -1
0.0634466660 -0.0426064500 1 -1
0.0660606300 -0.0428520260 1 -1
0.0688884640 -0.0425671260 1 -1
0.0719043420 -0.0418614430 1 -1
0.0750668000 -0.0408818880 1 -1
0.0783223850 -0.0397985690 1 -1
0.0816092380 -0.0387885720 1 -1
0.0848600510 -0.0380199640 1 -1
0.0880042090 -0.0376376640 1 -1
0.0909710110 -0.0377511500 1 -1
0.0936960990 -0.0384241690 1 -1
0.0961303220 -0.0396682890 1 -1
0.0982474850 -0.0414423140 1 -1
0.1000470560 -0.0436574220 1 -1
0.1015507840 -0.0461859970 1 -1
0.1027964990 -0.0488723950 1 -1
0.1038327150 -0.0515449160 1 -1
0.1047141280 -0.0540290150 1 -1
0.1054960680 -0.0561621210 1 -1
0.1062277620 -0.0578098520 1 -1
0.1069465100 -0.0588814730 1 -1
0.1076742460 -0.0593415170 1 -1
0.1084160620 -0.0592152120 1 -1
0.1091602790 -0.0585861290 1 -1
0.1098810140 -0.0575859570 1 -1
0.1105433870 -0.0563788270 1 -1
0.1111089750 -0.0551434820 1 -1
0.1115398230 -0.0540553220 1 -1
0.1118024000 -0.0532696420 1 -1
0.1118725420 -0.0529075800 1 -1
0.1117395460 -0.0530459180 1 -1
0.1114078440 -0.0537113420 1 -1
0.1108976620 -0.0548793390 1 -1
0.1102459610 -0.0564772520 1 -1
0.1095056800 -0.0583907480 1 -1
0.1087407250 -0.0604734520 1 -1
0.1080174720 -0.0625597030 1 -1
0.1073960250 -0.0644798510 1 -1
0.1069240540 -0.0660762160 1 -1
0.1066340460 -0.0672173950 1 -1
0.1065429960 -0.0678101260 1 -1
0.1066524750 -0.0678090500 1 -1
0.1069477910 -0.0672233380 1 -1
0.1073976230 -0.0661177480 1 -1
0.1079566620 -0.0646069220 1 -1
0.1085718500 -0.0628441990 1 -1
0.1091896780 -0.0610073290 1 -1
0.1097617670 -0.0592825070 1 -1
0.1102487370 -0.0578467050 1 -1
0.1106233270 -0.0568487800 1 -1
0.1108713640 -0.0563920970 1 -1
0.1109897350 -0.0565224810 1 -1
0.1109839960 -0.0572231740 1 -1
0.1108680870 -0.0584157430 1 -1
0.1106657320 -0.0599662210 1 -1
0.1104119380 -0.0616982290 1 -1
0.1101523580 -0.0634145270 1 -1
0.1099385130 -0.0649236190 1 -1
0.1098199060 -0.0660640490 1 -1
0.1098362050 -0.0667208330 1 -1
0.1100114330 -0.0668331770 1 -1
0.1103507120 -0.0663955560 1 -1
0.1108396830 -0.0654545760 1 -1
0.1114466810 -0.0641032200 1 -1
0.1121279160 -0.0624728620 1 -1
0.1128346610 -0.0607228910 1 -1
0.1135199450 -0.0590282000 1 -1
0.1141430110 -0.0575649590 1 -1
0.1146712230 -0.0564944710 1 -1
0.1150800160 -0.0559452260 1 -1
0.1153523190 -0.0559959330 1 -1
0.1154787200 -0.0566645680 1 -1
0.1154584710 -0.0579067500 1 -1
0.1153007910 -0.0596223920 1 -1
0.1150260680 -0.0616671070 1 -1
0.1146667490 -0.0638657350 1 -1
0.1142672900 -0.0660274760 1 -1
0.1138822430 -0.0679629100 1 -1
0.1135715200 -0.0695021550 1 -1
0.1133920140 -0.0705118980 1 -1
0.1133861980 -0.0709093160 1 -1
0.1135714590 -0.0706719520 1 -1
0.1139348670 -0.0698419730 1 -1
0.1144351630 -0.0685227650 1 -1
0.1150103600 -0.0668675550 1 -1
0.1155883540 -0.0650617820 1 -1
0.1160981910 -0.0633019090 1 -1
0.1164798540 -0.0617741500 1 -1
0.1166906140 -0.0606366890 1 -1
0.1167063770 -0.0600069980 1 -1
0.1165187790 -0.0599534970 1 -1
0.1161323470 -0.0604904420 1 -1
0.1155650070 -0.0615765210 1 -1
0.1148495510 -0.0631185140 1 -1
0.1140318630 -0.0649803500 1 -1
0.1131653380 -0.0669962260 1 -1
0.1123039470 -0.0689862880 1 -1
0.1114964300 -0.0707740320 1 -1
0.1107820300 -0.0722042600 1 -1
0.1101861000 -0.0731589490 1 -1
0.1097157820 -0.0735679190 1 -1
0.1093590600 -0.0734129040 1 -1
0.1090884600 -0.0727264890 1 -1
0.1088665290 -0.0715883140 1 -1
0.1086500890 -0.0701190120 1 -1
0.1083922530 -0.0684706840 1 -1
0.1080432990 -0.0668139110 1 -1
0.1075540710 -0.0653230940 1 -1
0.1068842980 -0.0641611470 1 -1
0.1060123860 -0.0634633490 1 -1
0.1049406040 -0.0633214260 1 -1
0.1036939220 -0.0637711460 1 -1
0.1023157500 -0.0647864640 1 -1
0.1008638720 -0.0662808800 1 -1
0.0994062580 -0.0681151170 1 -1
0.0980147690 -0.0701102090 1 -1
0.0967575560 -0.0720652380 1 -1
0.0956930050 -0.0737785550 1 -1
0.0948657900 -0.0750700080 1 -1
0.0943039800 -0.0758006280 1 -1
0.0940177790 -0.0758871110 1 -1
0.0940005620 -0.0753105370 1 -1
0.0942307750 -0.0741198670 1 -1
0.0946734620 -0.0724298420 1 -1
0.0952825860 -0.0704115820 1 -1
0.0960053530 -0.0682750320 1 -1
0.0967868160 -0.0662453410 1 -1
0.0975718900 -0.0645371190 1 -1
0.0983052330 -0.0633303610 1 -1
0.0989330060 -0.0627511080 1 -1
0.0994096560 -0.0628594990 1 -1
0.0997087500 -0.0636466270 1 -1
0.0998329090 -0.0650391020 1 -1
0.0998168480 -0.0669088740 1 -1
0.0997210600 -0.0690867100 1 -1
0.0996191250 -0.0713784620 1 -1
0.0995844330 -0.0735831340 1 -1
0.0996806950 -0.0755112080 1 -1
0.0999567340 -0.0770008430 1 -1
0.1004432670 -0.0779297680 1 -1
0.1011499620 -0.0782227320 1 -1
0.1020627530 -0.0778562990 1 -1
0.1031422850 -0.0768623350 1 -1
0.1043256230 -0.0753290700 1 -1
0.1055337910 -0.0733963780 1 -1
0.1066845030 -0.0712428130 1 -1
0.1077044500 -0.0690662030 1 -1
0.1085356370 -0.0670624930 1 -1
0.1091364870 -0.0654064580 1 -1
0.1094820510 -0.0642356530 1 -1
0.1095646980 -0.0636379950 1 -1
0.1093930090 -0.0636434670 1 -1
0.1089881800 -0.0642212820 1 -1
0.1083815650 -0.0652837570 1 -1
0.1076164020 -0.0666965770 1 -1
0.1067505520 -0.0682936830 1 -1
0.1058544520 -0.0698945440 1 -1
0.1050034780 -0.0713215760 1 -1
0.1042686980 -0.0724161830 1 -1
0.1037093270 -0.0730530240 1 -1
0.1033672220 -0.0731520040 1 -1
0.1032627380 -0.0726871460 1 -1
0.1033925140 -0.0716915700 1 -1
0.1037301770 -0.0702570630 1 -1
0.1042294790 -0.0685264180 1 -1
0.1048281180 -0.0666784280 1 -1
0.1054512740 -0.0649076420 1 -1
0.1060153030 -0.0634026080 1 -1
0.1064333600 -0.0623265610 1 -1
0.1066252050 -0.0618023930 1 -1
0.1065308310 -0.0619014720 1 -1
0.1061229420 -0.0626361610 1 -1
0.1054127400 -0.0639572610 1 -1
0.1044488180 -0.0657574070 1 -1
0.1033122200 -0.0678806310 1 -1
0.1021077630 -0.0701378330 1 -1
0.1009502590 -0.0723265060 1 -1
0.0999477020 -0.0742510090 1 -1
0.0991853010 -0.0757393890 1 -1
0.0987128020 -0.0766552520 1 -1
0.0985377260 -0.0769064690 1 -1
0.0986278380 -0.0764531540 1 -1
0.0989233670 -0.0753145970 1 -1
0.0993547410 -0.0735726840 1 -1
0.0998580590 -0.0713695210 1 -1
0.1003808260 -0.0688977050 1 -1
0.1008771870 -0.0663823740 1 -1
0.1013006030 -0.0640565490 1 -1
0.1016026000 -0.0621346330 1 -1
0.1017393190 -0.0607896920 1 -1
0.1016824960 -0.0601373920 1 -1
0.1014306180 -0.0602267320 1 -1
0.1010151680 -0.0610370820 1 -1
0.1004967690 -0.0624811890 1 -1
0.0999510550 -0.0644137810 1 -1
0.0994519600 -0.0666456360 1 -1
0.0990610150 -0.0689625450 1 -1
0.0988237220 -0.0711472540 1 -1
0.0987689410 -0.0730015290 1 -1
0.0989087090 -0.0743655850 1 -1
0.0992386600 -0.0751328760 1 -1
0.0997397560 -0.0752591400 1 -1
0.1003812800 -0.0747647490 1 -1
0.1011241850 -0.0737299050 1 -1
0.1019231840 -0.0722838510 1 -1
0.1027263130 -0.0705902220 1 -1
0.1034736160 -0.0688299440 1 -1
0.1040990730 -0.0671830280 1 -1
0.1045376930 -0.0658111630 1 -1
0.1047359540 -0.0648428730 1 -1
0.1046624700 -0.0643622310 1 -1
0.1043155610 -0.0644020500 1 -1
0.1037246440 -0.0649428090 1 -1
0.1029446350 -0.0659171140 1 -1
0.1020451850 -0.0672173080 1 -1
0.1010986190 -0.0687043250 1 -1
0.1001718460 -0.0702179100 1 -1
0.0993247940 -0.0715888460 1 -1
0.0986114350 -0.0726533770 1 -1
0.0980774120 -0.0732696820 1 -1
0.0977535640 -0.0733352570 1 -1
0.0976502160 -0.0728021220 1 -1
0.0977562150 -0.0716857840 1 -1
0.0980421610 -0.0700652950 1 -1
0.0984658420 -0.0680746690 1 -1
0.0989783800 -0.0658878760 1 -1
0.0995286470 -0.0637001490 1 -1
0.1000647160 -0.0617083670 1 -1
0.1005343320 -0.0600922500 1 -1
0.1008872880 -0.0589970630 1 -1
0.1010812450 -0.0585193880 1 -1
0.1010909770 -0.0586981270 1 -1
0.1009175260 -0.0595115650 1 -1
0.1005919500 -0.0608799450 1 -1
0.1001725470 -0.0626731630 1 -1
0.0997380210 -0.0647229200 1 -1
0.0993776930 -0.0668377180 1 -1
0.0991796380 -0.0688195070 1 -1
0.0992188510 -0.0704823410 1 -1
0.0995462430 -0.0716727040 1 -1
0.1001785720 -0.0722879540 1 -1
0.1010921140 -0.0722875930 1 -1
0.1022245130 -0.0716951010 1 -1
0.1034856920 -0.0705924850 1 -1
0.1047737820 -0.0691103740 1 -1
0.1059906140 -0.0674148580 1 -1
0.1070531940 -0.0656920980 1 -1
0.1078994480 -0.0641321340 1 -1
0.1084881770 -0.0629124810 1 -1
0.1087956020 -0.0621814850 1 -1
0.1088118270 -0.0620424100 1 -1
0.1085390140 -0.0625406730 1 -1
0.1079924530 -0.0636570130 1 -1
0.1072051180 -0.0653082790 1 -1
0.1062323290 -0.0673551660 1 -1
0.1051507840 -0.0696145640 1 -1
0.1040505180 -0.0718754650 1 -1
0.1030236280 -0.0739190080 1 -1
0.1021542090 -0.0755415340 1 -1
0.1015115730 -0.0765771840 1 -1
0.1011457130 -0.0769169910 1 -1
0.1010821830 -0.0765225500 1 -1
0.1013166870 -0.0754321570 1 -1
0.1018143070 -0.0737577910 1 -1
0.1025167460 -0.0716727890 1 -1
0.1033540750 -0.0693918870 1 -1
0.1042540960 -0.0671474530 1 -1
0.1051462340 -0.0651660870 1 -1
0.1059621780 -0.0636479430 1 -1
0.1066374690 -0.0627493140 1 -1
0.1071174800 -0.0625681330 1 -1
0.1073671540 -0.0631329630 1 -1
0.1073787550 -0.0643981950 1 -1
0.1071722150 -0.0662482070 1 -1
0.1067881570 -0.0685102240 1 -1
0.1062781430 -0.0709731470 1 -1
0.1056967210 -0.0734097630 1 -1
0.1050966050 -0.0756001450 1 -1
0.1045258320 -0.0773533810 1 -1
0.1040261370 -0.0785250310 1 -1
0.1036325810 -0.0790287060 1 -1
0.1033734730 -0.0788411140 1 -1
0.1032684220 -0.0780011110 1 -1
0.1033235710 -0.0766038970 1 -1
0.1035261520 -0.0747909900 1 -1
0.1038416050 -0.0727366340 1 -1
0.1042150710 -0.0706320060 1 -1
0.1045784240 -0.0686684180 1 -1
0.1048629310 -0.0670199930 1 -1
0.1050139410 -0.0658266990 1 -1
0.1050016880 -0.0651805090 1 -1
0.1048252290 -0.0651176830 1 -1
0.1045106000 -0.0656171890 1 -1
0.1041045800 -0.0666029560 1 -1
0.1036633230 -0.0679493480 1 -1
0.1032363160 -0.0694914980 1 -1
0.1028514620 -0.0710418240 1 -1
0.1025088000 -0.0724117300 1 -1
0.1021842440 -0.0734344540 1 -1
0.1018394430 -0.0739836580 1 -1
0.1014355560 -0.0739850560 1 -1
0.1009493260 -0.0734218250 1 -1
0.1003855190 -0.0723350690 1 -1
0.0997786940 -0.0708197910 1 -1
0.0991833490 -0.0690166020 1 -1
0.0986581030 -0.0670990140 1 -1
0.0982506780 -0.0652566960 1 -1
0.0979879350 -0.0636764250 1 -1
0.0978723600 -0.0625234120 1 -1
0.0978832250 -0.0619254490 1 -1
0.0979796530 -0.0619610970 1 -1
0.0981060380 -0.0626519600 1 -1
0.0982022450 -0.0639593800 1 -1
0.0982176120 -0.0657865650 1 -1
0.0981236410 -0.0679870130 1 -1
0.0979206550 -0.0703788510 1 -1
0.0976372050 -0.0727631220 1 -1
0.0973235430 -0.0749428040 1 -1
0.0970412120 -0.0767395130 1 -1
0.0968508620 -0.0780074000 1 -1
0.0968005020 -0.0786459680 1 -1
0.0969169120 -0.0786120750 1 -1
0.0972022190 -0.0779277660 1 -1
0.0976351070 -0.0766797060 1 -1
0.0981746600 -0.0750091880 1 -1
0.0987662680 -0.0730953660 1 -1
0.0993494400 -0.0711352780 1 -1
0.0998643000 -0.0693234320 1 -1
0.1002535270 -0.0678334440 1 -1
0.1004628830 -0.0668026090 1 -1
0.1004457230 -0.0663183470 1 -1
0.1001707430 -0.0664069670 1 -1
0.0996282410 -0.0670288160 1 -1
0.0988331140 -0.0680837750 1 -1
0.0978262840 -0.0694262160 1 -1
0.0966749370 -0.0708842670 1 -1
0.0954689330 -0.0722787400 1 -1
0.0943115910 -0.0734402580 1 -1
0.0933069850 -0.0742249880 1 -1
0.0925468530 -0.0745288850 1 -1
0.0920982530 -0.0742985580 1 -1
0.0919927000 -0.0735359120 1 -1
0.0922191160 -0.0722957320 1 -1
0.0927237000 -0.0706782420 1 -1
0.0934178350 -0.0688195210 1 -1
0.0941911390 -0.0668808570 1 -1
0.0949259590 -0.0650361090 1 -1
0.0955121680 -0.0634566240 1 -1
0.0958618490 -0.0622950330 1 -1
0.0959214690 -0.0616692550 1 -1
0.0956782470 -0.0616476970 1 -1
0.0951592020 -0.0622382080 1 -1
0.0944245080 -0.0633849320 1 -1
0.0935583070 -0.0649754190 1 -1
0.0926585450 -0.0668559450 1 -1
0.0918259860 -0.0688501410 1 -1
0.0911541680 -0.0707772100 1 -1
0.0907232200 -0.0724688460 1 -1
0.0905973790 -0.0737842980 1 -1
0.0908224820 -0.0746223060 1 -1
0.0914210170 -0.0749291880 1 -1
0.0923861870 -0.0747032150 1 -1
0.0936781570 -0.0739950210 1 -1
0.0952248330 -0.0729030040 1 -1
0.0969281160 -0.0715628350 1 -1
0.0986749980 -0.0701323740 1 -1
0.1003512480 -0.0687758560 1 -1
0.1018545380 -0.0676506890 1 -1
0.1031045640 -0.0668970650 1 -1
0.1040492290 -0.0666281860 1 -1
0.1046668310 -0.0669188380 1 -1
0.1049643780 -0.0677927140 1 -1
0.1049723930 -0.0692124010 1 -1
0.1047374010 -0.0710769000 1 -1
0.1043143000 -0.0732295270 1 -1
0.1037604490 -0.0754758120 1 -1
0.1031315810 -0.0776077990 1 -1
0.1024789110 -0.0794289850 1 -1
0.1018466530 -0.0807744850 1 -1
0.1012692040 -0.0815244150 1 -1
0.1007688690 -0.0816121060 1 -1
0.1003565160 -0.0810289600 1 -1
0.1000353530 -0.0798255570 1 -1
0.0998045590 -0.0781074990 1 -1
0.0996595830 -0.0760257360 1 -1
0.0995894030 -0.0737628660 1 -1
0.0995731430 -0.0715172310 1 -1
0.0995781020 -0.0694855050 1 -1
0.0995614790 -0.0678438140 1 -1
0.0994778640 -0.0667288040 1 -1
0.0992909740 -0.0662223330 1 -1
0.0989840780 -0.0663431960 1 -1
0.0985639630 -0.0670465530 1 -1
0.0980579390 -0.0682298060 1 -1
0.0975069350 -0.0697435990 1 -1
0.0969576060 -0.0714072090 1 -1
0.0964549680 -0.0730272310 1 -1
0.0960364060 -0.0744171320 1 -1
0.0957276160 -0.0754143700 1 -1
0.0955410150 -0.0758935730 1 -1
0.0954767180 -0.0757765420 1 -1
0.0955252790 -0.0750396450 1 -1
0.0956707250 -0.0737180930 1 -1
0.0958924840 -0.0719066090 1 -1
0.0961653660 -0.0697553400 1 -1
0.0964579230 -0.0674588430 1 -1
0.0967300780 -0.0652371830 1 -1
0.0969312990 -0.0633112160 1 -1
0.0970023590 -0.0618761700 1 -1
0.0968838710 -0.0610778800 1 -1
0.0965303080 -0.0609954610 1 -1
0.0959243760 -0.0616330610 1 -1
0.0950864700 -0.0629216580 1 -1
0.0940758130 -0.0647301990 1 -1
0.0929833010 -0.0668836260 1 -1
0.0919189050 -0.0691839590 1 -1
0.0909963300 -0.0714306830 1 -1
0.0903163820 -0.0734381580 1 -1
0.0899513660 -0.0750493570 1 -1
0.0899341760 -0.0761462640 1 -1
0.0902544610 -0.0766580110 1 -1
0.0908624360 -0.0765673180 1 -1
0.0916800870 -0.0759138460 1 -1
0.0926167090 -0.0747918320 1 -1
0.0935831390 -0.0733408280 1 -1
0.0945013250 -0.0717305960 1 -1
0.0953092660 -0.0701427490 1 -1
0.0959611860 -0.0687523640 1 -1
0.0964230590 -0.0677123620 1 -1
0.0966669480 -0.0671415600 1 -1
0.0966697570 -0.0671154130 1 -1
0.0964188450 -0.0676582970 1 -1
0.0959215760 -0.0687377530 1 -1
0.0952128000 -0.0702627190 1 -1
0.0943550850 -0.0720881420 1 -1
0.0934307260 -0.0740273710 1 -1
0.0925290690 -0.0758715960 1 -1
0.0917337200 -0.0774132430 1 -1
0.0911123170 -0.0784691270 1 -1
0.0907099330 -0.0788998890 1 -1
0.0905464030 -0.0786245140 1 -1
0.0906165610 -0.0776301020 1 -1
0.0908915500 -0.0759756940 1 -1
0.0913208550 -0.0737877630 1 -1
0.0918380940 -0.0712469790 1 -1
0.0923728910 -0.0685687030 1 -1
0.0928649460 -0.0659804180 1 -1
0.0932732020 -0.0636990110 1 -1
0.0935776520 -0.0619105080 1 -1
0.0937758200 -0.0607538450 1 -1
0.0938758640 -0.0603092210 1 -1
0.0938876450 -0.0605915200 1 -1
0.0938148780 -0.0615495200 1 -1
0.0936521970 -0.0630714470 1 -1
0.0933886320 -0.0649965570 1 -1
0.0930151320 -0.0671311500 1 -1
0.0925320360 -0.0692665370 1 -1
0.0919545590 -0.0711971270 1 -1
0.0913157350 -0.0727382110 1 -1
0.0906646400 -0.0737433200 1 -1
0.0900581640 -0.0741195070 1 -1
0.0895483630 -0.0738375030 1 -1
0.0891698890 -0.0729341450 1 -1
0.0889321620 -0.0715067890 1 -1
0.0888191300 -0.0697015940 1 -1
0.0887960760 -0.0676981890 1 -1
0.0888192360 -0.0656926910 1 -1
0.0888435100 -0.0638801350 1 -1
0.0888274000 -0.0624367530 1 -1
0.0887366640 -0.0615027080 1 -1
0.0885467350 -0.0611665840 1 -1
0.0882439890 -0.0614542470 1 -1
0.0878278420 -0.0623254810 1 -1
0.0873143880 -0.0636801150 1 -1
0.0867390240 -0.0653721620 1 -1
0.0861549310 -0.0672285020 1 -1
0.0856273670 -0.0690682410 1 -1
0.0852254320 -0.0707192520 1 -1
0.0850122930 -0.0720304640 1 -1
0.0850361800 -0.0728811860 1 -1
0.0853249900 -0.0731893560 1 -1
0.0858839130 -0.0729186610 1 -1
0.0866940030 -0.0720831220 1 -1
0.0877120950 -0.0707478470 1 -1
0.0888734110 -0.0690252490 1 -1
0.0900968770 -0.0670666360 1 -1
0.0912924590 -0.0650496350 1 -1
0.0923696270 -0.0631621090 1 -1
0.0932450140 -0.0615835330 1 -1
0.0938482100 -0.0604657220 1 -1
0.0941267760 -0.0599158390 1 -1
0.0940511170 -0.0599846800 1 -1
0.0936189710 -0.0606619680 1 -1
0.0928603700 -0.0618787200 1 -1
0.0918419880 -0.0635153950 1 -1
0.0906651780 -0.0654135510 1 -1
0.0894526160 -0.0673889910 1 -1
0.0883265760 -0.0692464340 1 -1
0.0873885210 -0.0707971790 1 -1
0.0867075390 -0.0718792980 1 -1
0.0863182070 -0.0723766060 1 -1
0.0862240950 -0.0722327280 1 -1
0.0864032980 -0.0714588760 1 -1
0.0868146150 -0.0701340400 1 -1
0.0874037590 -0.0683960640 1 -1
0.0881080090 -0.0664247590 1 -1
0.0888589630 -0.0644208960 1 -1
0.0895866800 -0.0625849260 1 -1
0.0902279940 -0.0610976200 1 -1
0.0907359770 -0.0601033940 1 -1
0.0910852150 -0.0596969710 1 -1
0.0912717380 -0.0599145270 1 -1
0.0913101730 -0.0607308970 1 -1
0.0912298020 -0.0620639170 1 -1
0.0910688730 -0.0637851170 1 -1
0.0908673550 -0.0657339580 1 -1
0.0906609170 -0.0677330600 1 -1
0.0904782620 -0.0696038660 1 -1
0.0903410570 -0.0711830170 1 -1
0.0902650210 -0.0723383460 1 -1
0.0902617490 -0.0729819580 1 -1
0.0903404670 -0.0730778430 1 -1
0.0905073460 -0.0726429580 1 -1
0.0907610470 -0.0717430890 1 -1
0.0910875570 -0.0704866110 1 -1
0.0914591840 -0.0690178920 1 -1
0.0918378560 -0.0675087120 1 -1
0.0921780690 -0.0661447420 1 -1
0.0924279750 -0.0651058940 1 -1
0.0925332170 -0.0645429920 1 -1
0.0924464620 -0.0645567820 1 -1
0.0921382880 -0.0651844680 1 -1
0.0916030820 -0.0663941210 1 -1
0.0908584080 -0.0680855400 1 -1
0.0899405980 -0.0700986080 1 -1
0.0888990990 -0.0722304580 1 -1
0.0877903230 -0.0742593210 1 -1
0.0866713500 -0.0759706170 1 -1
0.0855941440 -0.0771813170 1 -1
0.0846014230 -0.0777595390 1 -1
0.0837247730 -0.0776372800 1 -1
0.0829841410 -0.0768162060 1 -1
0.0823879700 -0.0753678020 1 -1
0.0819345350 -0.0734277830 1 -1
0.0816141070 -0.0711832360 1 -1
0.0814102790 -0.0688525030 1 -1
0.0812999430 -0.0666605570 1 -1
0.0812532670 -0.0648140600 1 -1
0.0812356420 -0.0634805830 1 -1
0.0812130820 -0.0627745820 1 -1
0.0811604710 -0.0627494160 1 -1
0.0810694180 -0.0633939160 1 -1
0.0809522200 -0.0646335300 1 -1
0.0808401950 -0.0663367230 1 -1
0.0807772890 -0.0683269350 1 -1
0.0808111180 -0.0704000010 1 -1
0.0809831250 -0.0723457530 1 -1
0.0813201570 -0.0739706960 1 -1
0.0818306470 -0.0751180300 1 -1
0.0825063560 -0.0756823350 1 -1
0.0833271730 -0.0756175870 1 -1
0.0842650270 -0.0749383550 1 -1
0.0852846680 -0.0737150580 1 -1
0.0863429470 -0.0720649410 1 -1
0.0873902390 -0.0701408190 1 -1
0.0883753490 -0.0681190850 1 -1
0.0892519290 -0.0661866640 1 -1
0.0899831220 -0.0645255170 1 -1
0.0905418930 -0.0632953730 1 -1
0.0909076320 -0.0626178870 1 -1
0.0910629340 -0.0625650530 1 -1
0.0909943290 -0.0631523490 1 -1
0.0906974190 -0.0643357410 1 -1
0.0901832320 -0.0660120160 1 -1
0.0894819280 -0.0680235630 1 -1
0.0886427280 -0.0701699040 1 -1
0.0877310940 -0.0722268160 1 -1
0.0868231940 -0.0739705400 1 -1
0.0859968740 -0.0752025800 1 -1
0.0853200620 -0.0757712050 1 -1
0.0848404310 -0.0755877540 1 -1
0.0845801430 -0.0746366910 1 -1
0.0845354060 -0.0729779950 1 -1
0.0846778590 -0.0707411410 1 -1
0.0849570040 -0.0681121400 1 -1
0.0853063580 -0.0653157470 1 -1
0.0856549530 -0.0625938440 1 -1
0.0859412440 -0.0601810990 1 -1
0.0861236530 -0.0582808420 1 -1
0.0861836930 -0.0570450750 1 -1
0.0861225330 -0.0565610970 1 -1
0.0859555040 -0.0568454180 1 -1
0.0857081400 -0.0578450950 1 -1
0.0854140730 -0.0594459360 1 -1
0.0851133330 -0.0614855820 1 -1
0.0848492820 -0.0637690620 1 -1
0.0846630080 -0.0660858720 1 -1
0.0845865930 -0.0682286680 1 -1
0.0846381690 -0.0700124910 1 -1
0.0848200410 -0.0712920660 1 -1
0.0851199240 -0.0719747490 1 -1
0.0855149230 -0.0720273900 1 -1
0.0859761540 -0.0714768460 1 -1
0.0864715230 -0.0704053300 1 -1
0.0869666500 -0.0689419420 1 -1
0.0874261670 -0.0672510820 1 -1
0.0878172050 -0.0655181280 1 -1
0.0881141920 -0.0639329360 1 -1
0.0883018250 -0.0626721810 1 -1
0.0883734330 -0.0618820350 1 -1
0.0883254730 -0.0616628960 1 -1
0.0881531140 -0.0620579470 1 -1
0.0878511960 -0.0630474160 1 -1
0.0874192560 -0.0645497130 1 -1
0.0868664220 -0.0664288020 1 -1
0.0862141060 -0.0685065340 1 -1
0.0854965640 -0.0705795960 1 -1
0.0847586970 -0.0724404270 1 -1
0.0840505870 -0.0738994250 1 -1
0.0834200180 -0.0748052670 1 -1
0.0829046410 -0.0750613930 1 -1
0.0825254930 -0.0746371860 1 -1
0.0822849800 -0.0735720180 1 -1
0.0821707640 -0.0719713460 1 -1
0.0821624180 -0.0699956980 1 -1
0.0822371240 -0.0678436530 1 -1
0.0823734800 -0.0657301280 1 -1
0.0825530590 -0.0638629980 1 -1
0.0827584680 -0.0624216230 1 -1
0.0829687170 -0.0615393740 1 -1
0.0831566770 -0.0612914040 1 -1
0.0832924120 -0.0616889270 1 -1
0.0833505500 -0.0626801260 1 -1
0.0833174930 -0.0641560860 1 -1
0.0831958240 -0.0659605010 1 -1
0.0830045120 -0.0679037050 1 -1
0.0827753180 -0.0697815620 1 -1
0.0825476360 -0.0713974650 1 -1
0.0823632740 -0.0725838460 1 -1
0.0822612170 -0.0732197150 1 -1
0.0822721610 -0.0732422570 1 -1
0.0824125070 -0.0726518250 1 -1
0.0826782880 -0.0715099160 1 -1
0.0830417360 -0.0699304050 1 -1
0.0834536600 -0.0680659480 1 -1
0.0838523080 -0.0660921620 1 -1
0.0841765900 -0.0641911160 1 -1
0.0843795050 -0.0625352740 1 -1
0.0844360620 -0.0612735390 1 -1
0.0843419410 -0.0605202810 1 -1
0.0841050760 -0.0603466920 1 -1
0.0837375990 -0.0607738110 1 -1
0.0832546470 -0.0617682920 1 -1
0.0826794330 -0.0632431450 1 -1
0.0820481070 -0.0650646300 1 -1
0.0814095690 -0.0670644590 1 -1
0.0808204950 -0.0690551860 1 -1
0.0803380290 -0.0708471570 1 -1
0.0800126370 -0.0722664230 1 -1
0.0798834020 -0.0731730620 1 -1
0.0799760410 -0.0734780010 1 -1
0.0803012560 -0.0731547610 1 -1
0.0808507610 -0.0722430210 1 -1
0.0815908570 -0.0708440700 1 -1
0.0824573890 -0.0691102480 1 -1
0.0833581550 -0.0672290730 1 -1
0.0841866870 -0.0654022330 1 -1
0.0848446610 -0.0638227190 1 -1
0.0852637630 -0.0626547970 1 -1
0.0854182730 -0.0620188370 1 -1
0.0853256090 -0.0619808100 1 -1
0.0850372910 -0.0625466880 1 -1
0.0846247610 -0.0636626920 1 -1
0.0841642820 -0.0652220070 1 -1
0.0837240670 -0.0670769730 1 -1
0.0833562910 -0.0690539670 1 -1
0.0830952490 -0.0709685490 1 -1
0.0829599810 -0.0726403820 1 -1
0.0829576810 -0.0739083560 1 -1
0.0830848840 -0.0746461550 1 -1
0.0833261250 -0.0747773810 1 -1
0.0836518740 -0.0742868890 1 -1
0.0840185910 -0.0732243590 1 -1
0.0843739030 -0.0716990310 1 -1
0.0846668410 -0.0698675410 1 -1
0.0848579140 -0.0679168910 1 -1
0.0849229910 -0.0660443170 1 -1
0.0848496480 -0.0644365890 1 -1
0.0846312010 -0.0632515470 1 -1
0.0842662500 -0.0626032660 1 -1
0.0837655190 -0.0625512680 1 -1
0.0831587000 -0.0630947390 1 -1
0.0824934540 -0.0641731110 1 -1
0.0818266540 -0.0656727790 1 -1
0.0812141340 -0.0674383910 1 -1
0.0807040800 -0.0692880740 1 -1
0.0803338520 -0.0710321040 1 -1
0.0801270380 -0.0724924510 1 -1
0.0800903990 -0.0735198910 1 -1
0.0802143560 -0.0740074240 1 -1
0.0804788720 -0.0738999130 1 -1
0.0808613300 -0.0731989910 1 -1
0.0813419100 -0.0719621670 1 -1
0.0819045280 -0.0702969680 1 -1
0.0825334550 -0.0683520440 1 -1
0.0832076940 -0.0663056710 1 -1
0.0838968670 -0.0643509370 1 -1
0.0845614530 -0.0626777870 1 -1
0.0851571730 -0.0614532070 1 -1
0.0856415010 -0.0608015920 1 -1
0.0859802830 -0.0607885490 1 -1
0.0861527210 -0.0614120330 1 -1
0.0861536260 -0.0626032000 1 -1
0.0859934450 -0.0642360440 1 -1
0.0856974080 -0.0661426610 1 -1
0.0853039090 -0.0681315750 1 -1
0.0848606430 -0.0700077100 1 -1
0.0844180160 -0.0715920170 1 -1
0.0840223260 -0.0727378060 1 -1
0.0837117970 -0.0733418830 1 -1
0.0835150250 -0.0733506470 1 -1
0.0834484390 -0.0727622520 1 -1
0.0835120520 -0.0716258120 1 -1
0.0836869190 -0.0700377510 1 -1
0.0839371100 -0.0681345770 1 -1
0.0842151360 -0.0660821030 1 -1
0.0844679180 -0.0640624830 1 -1
0.0846416170 -0.0622599440 1 -1
0.0846859310 -0.0608445030 1 -1
0.0845591410 -0.0599536850 1 -1
0.0842339400 -0.0596753170 1 -1
0.0837030910 -0.0600354680 1 -1
0.0829834400 -0.0609938960 1 -1
0.0821160110 -0.0624473150 1 -1
0.0811610430 -0.0642393470 1 -1
0.0801896630 -0.0661756590 1 -1
0.0792755000 -0.0680433180 1 -1
0.0784879350 -0.0696329160 1 -1
0.0778856880 -0.0707610020 1 -1
0.0775094410 -0.0712903250 1 -1
0.0773755590 -0.0711455860 1 -1
0.0774744170 -0.0703222670 1 -1
0.0777737290 -0.0688868750 1 -1
0.0782246430 -0.0669693710 1 -1
0.0787688640 -0.0647504540 1 -1
0.0793454650 -0.0624453190 1 -1
0.0798951990 -0.0602835470 1 -1
0.0803619270 -0.0584856800 1 -1
0.0806937270 -0.0572397750 1 -1
0.0808457140 -0.0566816490 1 -1
0.0807849820 -0.0568808160 1 -1
0.0804977750 -0.0578331160 1 -1
0.0799967590 -0.0594606710 1 -1
0.0793238680 -0.0616191280 1 -1
0.0785464670 -0.0641115510 1 -1
0.0777485030 -0.0667077160 1 -1
0.0770190600 -0.0691664930 1 -1
0.0764396520 -0.0712583670 1 -1
0.0760723350 -0.0727859400 1 -1
0.0759519040 -0.0736015690 1 -1
0.0760835640 -0.0736214580 1 -1
0.0764444310 -0.0728343540 1 -1
0.0769868980 -0.0713027990 1 -1
0.0776435310 -0.0691566500 1 -1
0.0783338590 -0.0665800900 1 -1
0.0789728330 -0.0637933780 1 -1
0.0794802220 -0.0610310040 1 -1
0.0797900570 -0.0585192130 1 -1
0.0798583970 -0.0564562110 1 -1
0.0796680080 -0.0549971390 1 -1
0.0792301510 -0.0542436530 1 -1
0.0785834590 -0.0542361550 1 -1
0.0777889190 -0.0549478130 1 -1
0.0769218620 -0.0562830190 1 -1
0.0760630750 -0.0580844550 1 -1
0.0752895270 -0.0601499530 1 -1
0.0746648780 -0.0622559120 1 -1
0.0742320820 -0.0641826900 1 -1
0.0740110150 -0.0657384360 1 -1
0.0740015840 -0.0667786690 1 -1
0.0741896780 -0.0672194790 1 -1
0.0745523960 -0.0670433170 1 -1
0.0750605110 -0.0662977040 1 -1
0.0756785690 -0.0650879180 1 -1
0.0763643750 -0.0635648640 1 -1
0.0770689590 -0.0619090190 1 -1
0.0777370840 -0.0603109490 1 -1
0.0783094100 -0.0589497720 1 -1
0.0787282520 -0.0579730750 1 -1
0.0789459680 -0.0574822410 1 -1
0.0789320950 -0.0575245610 1 -1
0.0786770660 -0.0580912280 1 -1
0.0781938330 -0.0591204740 1 -1
0.0775183800 -0.0605051180 1 -1
0.0767076230 -0.0621028630 1 -1
0.0758334610 -0.0637478880 1 -1
0.0749743530 -0.0652637860 1 -1
0.0742071710 -0.0664786010 1 -1
