-0.0007123970 -0.0110730380 0 0
-0.0001154890 -0.0106464280 0 0
0.0002053700 -0.0107268430 0 0
0.0003053990 -0.0113280370 0 0
0.0002570810 -0.0124047740 0 0
0.0001342590 -0.0138564900 0 0
0.0000017512 -0.0155383190 0 0
-0.0000869834 -0.0172781150 0 0
-0.0000874085 -0.0188976020 0 0
0.0000381469 -0.0202346360 0 0
0.0003187380 -0.0211620400 0 0
0.0007692690 -0.0215985650 0 0
0.0013850970 -0.0215115830 0 0
0.0021412400 -0.0209151440 0 0
0.0029959430 -0.0198663490 0 0
0.0038944600 -0.0184599750 0 0
0.0047717530 -0.0168203850 0 0
0.0055577770 -0.0150901200 0 0
0.0061876590 -0.0134152820 0 0
0.0066136180 -0.0119300470 0 0
0.0068139240 -0.0107444640 0 0
0.0067972630 -0.0099376380 0 0
0.0066022710 -0.0095545370 0 0
0.0062906200 -0.0096043350 0 0
0.0059330340 -0.0100606570 0 0
0.0055925010 -0.0108649390 0 0
0.0053127530 -0.0119326910 0 0
0.0051172880 -0.0131616090 0 0
0.0050167710 -0.0144408110 0 0
0.0050181760 -0.0156605390 0 0
0.0051306320 -0.0167218240 0 0
0.0053672930 -0.0175457280 0 0
0.0057448520 -0.0180806220 0 0
0.0062794330 -0.0183050790 0 0
0.0069758580 -0.0182262670 0 0
0.0078135490 -0.0178771220 0 0
0.0087385800 -0.0173149920 0 0
0.0096679300 -0.0166201960 0 0
0.0105036640 -0.0158905420 0 0
0.0111495620 -0.0152306600 0 0
0.0115230940 -0.0147390460 0 0
0.0115614240 -0.0144958280 0 0
0.0112257700 -0.0145524680 0 0
0.0105066700 -0.0149242320 0 0
0.0094269810 -0.0155865630 0 0
0.0080394760 -0.0164761600 0 0
0.0064210360 -0.0174971250 0 0
0.0046667380 -0.0185317320 0 0
0.0028836840 -0.0194545150 0 0
0.0011827510 -0.0201476930 0 0
-0.0003323800 -0.0205157220 0 0
-0.0015779610 -0.0204970830 0 0
-0.0025013010 -0.0200720090 0 0
-0.0030853850 -0.0192651920 0 0
-0.0033449540 -0.0181431220 0 0
-0.0033175060 -0.0168064830 0 0
-0.0030547550 -0.0153785940 0 0
-0.0026166350 -0.0139911670 0 0
-0.0020673780 -0.0127692410 0 0
-0.0014747660 -0.0118181370 0 0
-0.0009113350 -0.0112147060 0 0
-0.0004512160 -0.0110029470 0 0
-0.0001587390 -0.0111929520 0 0
-0.0000724922 -0.0117621570 0 0
-0.0001916320 -0.0126578360 0 0
-0.0004708670 -0.0138007250 0 0
-0.0008289830 -0.0150911350 0 0
-0.0011699660 -0.0164185610 0 0
-0.0014077000 -0.0176737360 0 0
-0.0014826120 -0.0187605700 0 0
-0.0013652010 -0.0196054230 0 0
-0.0010512760 -0.0201623110 0 0
-0.0005568710 -0.0204137840 0 0
0.0000836645 -0.0203680190 0 0
0.0008182560 -0.0200537190 0 0
0.0015804990 -0.0195152620 0 0
0.0022988300 -0.0188102310 0 0
0.0029102510 -0.0180092560 0 0
0.0033723770 -0.0171952870 0 0
0.0036670350 -0.0164591970 0 0
0.0037951860 -0.0158909930 0 0
0.0037699270 -0.0155681080 0 0
0.0036133540 -0.0155434890 0 0
0.0033566880 -0.0158369040 0 0
0.0030392010 -0.0164321260 0 0
0.0027030880 -0.0172801150 0 0
0.0023857500 -0.0183059450 0 0
0.0021136560 -0.0194170090 0 0
0.0019009750 -0.0205115200 0 0
0.0017529510 -0.0214870230 0 0
0.0016718820 -0.0222481970 0 0
0.0016629860 -0.0227134370 0 0
0.0017371670 -0.0228211490 0 0
0.0019083450 -0.0225367110 0 0
0.0021860800 -0.0218595120 0 0
0.0025675140 -0.0208275670 0 0
0.0030329530 -0.0195167530 0 0
0.0035467770 -0.0180336600 0 0
0.0040626690 -0.0165037780 0 0
0.0045306240 -0.0150578150 0 0
0.0049030350 -0.0138183550 0 0
0.0051383210 -0.0128883730 0 0
0.0052022060 -0.0123423520 0 0
0.0050683380 -0.0122199280 0 0
0.0047207580 -0.0125219760 0 0
0.0041596470 -0.0132099910 0 0
0.0034085280 -0.0142096600 0 0
0.0025186520 -0.0154178870 0 0
0.0015666300 -0.0167118200 0 0
0.0006446360 -0.0179593550 0 0
-0.0001533600 -0.0190312410 0 0
-0.0007448880 -0.0198145270 0 0
-0.0010697670 -0.0202258410 0 0
-0.0010968320 -0.0202217460 0 0
-0.0008243990 -0.0198037430 0 0
-0.0002753920 -0.0190171770 0 0
0.0005070340 -0.0179448520 0 0
0.0014581390 -0.0166970460 0 0
0.0024869030 -0.0153993830 0 0
0.0034763750 -0.0141788350 0 0
0.0042949750 -0.0131489010 0 0
0.0048173770 -0.0123974140 0 0
0.0049485660 -0.0119800980 0 0
0.0046440580 -0.0119198740 0 0
0.0039207030 -0.0122093090 0 0
0.0028542190 -0.0128131500 0 0
0.0015627530 -0.0136698620 0 0
0.0001816200 -0.0146936440 0 0
-0.0011614170 -0.0157792540 0 0
-0.0023627340 -0.0168107030 0 0
-0.0033495090 -0.0176731130 0 0
-0.0040799090 -0.0182660700 0 0
-0.0045413980 -0.0185164570 0 0
-0.0047480690 -0.0183880780 0 0
-0.0047354740 -0.0178855020 0 0
-0.0045537370 -0.0170520470 0 0
-0.0042609310 -0.0159643140 0 0
-0.0039171480 -0.0147250160 0 0
-0.0035795060 -0.0134537210 0 0
-0.0032984970 -0.0122746310 0 0
-0.0031152390 -0.0113019990 0 0
-0.0030597070 -0.0106263380 0 0
-0.0031505550 -0.0103048770 0 0
-0.0033951370 -0.0103569440 0 0
-0.0037868380 -0.0107629920 0 0
-0.0043000040 -0.0114670610 0 0
-0.0048873260 -0.0123833730 0 0
-0.0054846490 -0.0134065360 0 0
-0.0060229920 -0.0144230200 0 0
-0.0064424280 -0.0153216300 0 0
-0.0067023710 -0.0160026880 0 0
-0.0067859220 -0.0163870220 0 0
-0.0066985570 -0.0164248650 0 0
-0.0064633930 -0.0161030670 0 0
-0.0061161790 -0.0154484340 0 0
-0.0057013850 -0.0145259700 0 0
-0.0052683740 -0.0134325860 0 0
-0.0048660870 -0.0122876670 0 0
-0.0045360180 -0.0112213380 0 0
-0.0043051740 -0.0103606860 0 0
-0.0041815950 -0.0098145490 0 0
-0.0041545640 -0.0096590780 0 0
-0.0041997430 -0.0099275850 0 0
-0.0042864470 -0.0106071000 0 0
-0.0043834780 -0.0116416230 0 0
-0.0044624680 -0.0129402140 0 0
-0.0044996250 -0.0143874330 0 0
-0.0044768090 -0.0158546830 0 0
-0.0043822500 -0.0172122900 0 0
-0.0042105250 -0.0183419580 0 0
-0.0039619480 -0.0191480630 0 0
-0.0036420950 -0.0195659350 0 0
-0.0032610870 -0.0195659570 0 0
-0.0028318610 -0.0191537910 0 0
-0.0023679520 -0.0183682740 0 0
-0.0018816640 -0.0172783360 0 0
-0.0013832930 -0.0159789020 0 0
-0.0008812450 -0.0145845160 0 0
-0.0003818110 -0.0132201010 0 0
0.0001116230 -0.0120103730 0 0
0.0005983190 -0.0110701880 0 0
0.0010779960 -0.0104960820 0 0
0.0015481870 -0.0103570950 0 0
0.0020030820 -0.0106840800 0 0
0.0024342560 -0.0114603510 0 0
0.0028329630 -0.0126182380 0 0
0.0031939520 -0.0140445720 0 0
0.0035192030 -0.0155953330 0 0
0.0038183220 -0.0171165380 0 0
0.0041050270 -0.0184654190 0 0
0.0043929770 -0.0195260400 0 0
0.0046934110 -0.0202176500 0 0
0.0050142400 -0.0204979830 0 0
0.0053598320 -0.0203638980 0 0
0.0057315780 -0.0198500070 0 0
0.0061286910 -0.0190247530 0 0
0.0065486090 -0.0179830110 0 0
0.0069867830 -0.0168351280 0 0
0.0074350780 -0.0156943240 0 0
0.0078786110 -0.0146651390 0 0
0.0082937010 -0.0138344840 0 0
0.0086506400 -0.0132656170 0 0
0.0089203620 -0.0129950530 0 0
0.0090793300 -0.0130322490 0 0
0.0091100150 -0.0133615350 0 0
0.0090005780 -0.0139450470 0 0
0.0087479040 -0.0147249840 0 0
0.0083640710 -0.0156241710 0 0
0.0078843200 -0.0165462360 0 0
0.0073740750 -0.0173791250 0 0
0.0069290830 -0.0180054960 0 0
0.0066609160 -0.0183198320 0 0
0.0066679930 -0.0182478260 0 0
0.0070046180 -0.0177616660 0 0
0.0076633330 -0.0168861770 0 0
0.0085768630 -0.0156948700 0 0
0.0096359210 -0.0142989480 0 0
0.0107145830 -0.0128334820 0 0
0.0116937880 -0.0114434290 0 0
0.0124757630 -0.0102699120 0 0
0.0129884880 -0.0094369840 0 0
0.0131853870 -0.0090405830 0 0
0.0130453850 -0.0091412060 0 0
0.0125742990 -0.0097601590 0 0
0.0118060250 -0.0108786710 0 0
0.0108028880 -0.0124393030 0 0
0.0096542250 -0.0143496940 0 0
0.0084694170 -0.0164894270 0 0
0.0073619790 -0.0187201300 0 0
0.0064283610 -0.0208972830 0 0
0.0057307640 -0.0228819450 0 0
0.0052905090 -0.0245513680 0 0
0.0050918990 -0.0258081420 0 0
0.0050927100 -0.0265876670 0 0
0.0052367650 -0.0268634250 0 0
0.0054651420 -0.0266497000 0 0
0.0057247150 -0.0260013470 0 0
0.0059737600 -0.0250096150 0 0
0.0061839700 -0.0237933500 0 0
0.0063383350 -0.0224863030 0 0
0.0064265170 -0.0212225100 0 0
0.0064406410 -0.0201222190 0 0
0.0063733870 -0.0192808070 0 0
0.0062189990 -0.0187620460 0 0
0.0059764200 -0.0185955990 0 0
0.0056517500 -0.0187773290 0 0
0.0052571780 -0.0192709450 0 0
0.0048062940 -0.0200108440 0 0
0.0043092480 -0.0209067660 0 0
0.0037727110 -0.0218504420 0 0
0.0032060510 -0.0227248380 0 0
0.0026295310 -0.0234173570 0 0
0.0020789460 -0.0238362240 0 0
0.0016037390 -0.0239252260 0 0
0.0012583800 -0.0236715710 0 0
0.0010893000 -0.0231057160 0 0
0.0011223830 -0.0222955190 0 0
0.0013566890 -0.0213370540 0 0
0.0017664430 -0.0203436700 0 0
0.0023079930 -0.0194345730 0 0
0.0029270800 -0.0187237260 0 0
0.0035649440 -0.0183091850 0 0
0.0041635250 -0.0182628150 0 0
0.0046691360 -0.0186207030 0 0
0.0050348180 -0.0193759130 0 0
0.0052244550 -0.0204768380 0 0
0.0052211230 -0.0218339950 0 0
0.0050369240 -0.0233341780 0 0
0.0047181100 -0.0248565060 0 0
0.0043413780 -0.0262846360 0 0
0.0039997430 -0.0275128700 0 0
0.0037792770 -0.0284482630 0 0
0.0037354050 -0.0290131170 0 0
0.0038814300 -0.0291514190 0 0
0.0041935400 -0.0288393970 0 0
0.0046250930 -0.0280963860 0 0
0.0051207910 -0.0269902220 0 0
0.0056262570 -0.0256335060 0 0
0.0060947120 -0.0241716200 0 0
0.0064941740 -0.0227659160 0 0
0.0068124630 -0.0215748020 0 0
0.0070525950 -0.0207346440 0 0
0.0072191820 -0.0203428630 0 0
0.0073070590 -0.0204459090 0 0
0.0073009400 -0.0210334760 0 0
0.0071844020 -0.0220394600 0 0
0.0069513530 -0.0233504810 0 0
0.0066142470 -0.0248213770 0 0
0.0062061740 -0.0262945890 0 0
0.0057765620 -0.0276198050 0 0
0.0053819710 -0.0286705670 0 0
0.0050749770 -0.0293552400 0 0
0.0048952270 -0.0296224220 0 0
0.0048651770 -0.0294627420 0 0
0.0049893880 -0.0289073790 0 0
0.0052539580 -0.0280220640 0 0
0.0056249960 -0.0268972690 0 0
0.0060501170 -0.0256375130 0 0
0.0064670000 -0.0243521600 0 0
0.0068158810 -0.0231482560 0 0
0.0070492960 -0.0221244080 0 0
0.0071370320 -0.0213642560 0 0
0.0070680030 -0.0209294480 0 0
0.0068495400 -0.0208535790 0 0
0.0065045380 -0.0211381920 0 0
0.0060688590 -0.0217509210 0 0
0.0055899490 -0.0226260950 0 0
0.0051246590 -0.0236688650 0 0
0.0047343290 -0.0247633880 0 0
0.0044763960 -0.0257838770 0 0
0.0043931120 -0.0266065970 0 0
0.0045014800 -0.0271219450 0 0
0.0047900170 -0.0272465330 0 0
0.0052236980 -0.0269346960 0 0
0.0057537900 -0.0261879210 0 0
0.0063287890 -0.0250599230 0 0
0.0069038240 -0.0236546730 0 0
0.0074468810 -0.0221155630 0 0
0.0079404160 -0.0206067300 0 0
0.0083764040 -0.0192905830 0 0
0.0087455320 -0.0183060120 0 0
0.0090269880 -0.0177508500 0 0
0.0091868110 -0.0176718960 0 0
0.0091865540 -0.0180641420 0 0
0.0089966230 -0.0188775070 0 0
0.0086066080 -0.0200275850 0 0
0.0080290940 -0.0214074780 0 0
0.0072983260 -0.0228994490 0 0
0.0064662160 -0.0243862280 0 0
0.0055965190 -0.0257611760 0 0
0.0047564070 -0.0269362720 0 0
0.0040051240 -0.0278473870 0 0
0.0033829840 -0.0284566380 0 0
0.0029064310 -0.0287523810 0 0
0.0025715180 -0.0287481840 0 0
0.0023627480 -0.0284815110 0 0
0.0022623590 -0.0280114010 0 0
0.0022561900 -0.0274140130 0 0
0.0023337200 -0.0267759510 0 0
0.0024823250 -0.0261861560 0 0
0.0026787860 -0.0257274600 0 0
0.0028831630 -0.0254686540 0 0
0.0030397320 -0.0254573910 0 0
0.0030869960 -0.0257142620 0 0
0.0029750500 -0.0262288140 0 0
0.0026843190 -0.0269583810 0 0
0.0022361800 -0.0278303490 0 0
0.0016885740 -0.0287481980 0 0
0.0011195490 -0.0296011740 0 0
0.0006083970 -0.0302767030 0 -1
0.0002207800 -0.0306740390 0 -1
-0.0000001652 -0.0307170080 0 -1
-0.0000350319 -0.0303632920 0 -1
0.0001171890 -0.0296087890 0 0
0.0004457660 -0.0284877360 0 0
0.0009329810 -0.0270700900 0 0
0.0015580440 -0.0254559390 0 0
0.0023007720 -0.0237656830 0 0
0.0031422960 -0.0221270440 0 0
0.0040600760 -0.0206626340 0 0
0.0050202020 -0.0194809970 0 0
0.0059742270 -0.0186702100 0 0
0.0068636550 -0.0182911790 0 0
0.0076284410 -0.0183706520 0 0
0.0082149800 -0.0188970830 0 0
0.0085822510 -0.0198211360 0 0
0.0087068120 -0.0210596580 0 0
0.0085877060 -0.0225015450 0 0
0.0082512410 -0.0240153690 0 0
0.0077532280 -0.0254593570 0 0
0.0071754090 -0.0266937020 0 0
0.0066154170 -0.0275941520 0 0
0.0061725080 -0.0280653920 0 0
0.0059318060 -0.0280530010 0 0
0.0059492180 -0.0275526380 0 0
0.0062399560 -0.0266137200 0 0
0.0067747300 -0.0253346120 0 0
0.0074859040 -0.0238492420 0 0
0.0082815780 -0.0223087390 0 0
0.0090633920 -0.0208628060 0 0
0.0097442800 -0.0196438800 0 0
0.0102613370 -0.0187550590 0 0
0.0105790580 -0.0182623750 0 0
0.0106847420 -0.0181920720 0 0
0.0105834480 -0.0185323950 0 0
0.0102963820 -0.0192376120 0 0
0.0098598750 -0.0202320020 0 0
0.0093215950 -0.0214143530 0 0
0.0087351390 -0.0226655910 0 0
0.0081558000 -0.0238605390 0 0
0.0076366000 -0.0248818170 0 0
0.0072210650 -0.0256331500 0 0
0.0069332030 -0.0260503210 0 0
0.0067712250 -0.0261087200 0 0
0.0067113720 -0.0258262090 0 0
0.0067209600 -0.0252601790 0 0
0.0067723440 -0.0244996150 0 0
0.0068484530 -0.0236545740 0 0
0.0069369950 -0.0228443010 0 0
0.0070192690 -0.0221842450 0 0
0.0070631400 -0.0217735180 0 0
0.0070257820 -0.0216850220 0 0
0.0068648390 -0.0219588430 0 0
0.0065520180 -0.0225979790 0 0
0.0060829010 -0.0235661180 0 0
0.0054803160 -0.0247888110 0 0
0.0047933750 -0.0261593540 0 0
0.0040961180 -0.0275491660 0 0
0.0034843960 -0.0288213300 0 0
0.0030637500 -0.0298458680 0 0
0.0029260040 -0.0305152210 0 -1
0.0031237030 -0.0307581900 0 -1
0.0036549750 -0.0305497920 0 -1
0.0044652230 -0.0299137030 0 0
0.0054636110 -0.0289158720 0 0
0.0065463520 -0.0276524850 0 0
0.0076175180 -0.0262373610 0 0
0.0086005590 -0.0247911470 0 0
0.0094383260 -0.0234318150 0 0
0.0100862400 -0.0222664200 0 0
0.0105078110 -0.0213852260 0 0
0.0106772630 -0.0208583150 0 0
0.0105848500 -0.0207329090 0 0
0.0102386260 -0.0210292150 0 0
0.0096622970 -0.0217347990 0 0
0.0088920730 -0.0228007620 0 0
0.0079736250 -0.0241436670 0 0
0.0069590200 -0.0256539410 0 0
0.0059043600 -0.0272080640 0 0
0.0048684470 -0.0286811420 0 0
0.0039104070 -0.0299575880 0 0
0.0030838610 -0.0309393790 0 -1
0.0024291800 -0.0315531780 0 -1
0.0019688140 -0.0317572630 0 -1
0.0017076020 -0.0315469770 0 -1
0.0016353840 -0.0309562570 0 -1
0.0017295740 -0.0300542760 0 -1
0.0019576120 -0.0289382620 0 0
0.0022795070 -0.0277244180 0 0
0.0026509520 -0.0265383500 0 0
0.0030271530 -0.0255051870 0 0
0.0033658860 -0.0247388270 0 0
0.0036284340 -0.0243302000 0 0
0.0037802140 -0.0243355760 0 0
0.0037946770 -0.0247669520 0 0
0.0036612340 -0.0255871870 0 0
0.0033937740 -0.0267118160 0 0
0.0030346880 -0.0280170680 0 0
0.0026503200 -0.0293519400 0 0
0.0023174990 -0.0305530450 0 -1
0.0021062080 -0.0314625130 0 -1
0.0020654790 -0.0319482110 0 -1
0.0022166220 -0.0319223270 0 -1
0.0025544240 -0.0313533730 0 -1
0.0030545210 -0.0302695250 0 -1
0.0036820890 -0.0287542740 0 0
0.0043966840 -0.0269361190 0 0
0.0051533170 -0.0249739900 0 0
0.0059043440 -0.0230400760 0 0
0.0066048090 -0.0213020980 0 0
0.0072195570 -0.0199069790 0 0
0.0077287380 -0.0189673480 0 0
0.0081296700 -0.0185522420 0 0
0.0084357910 -0.0186831510 0 0
0.0086745530 -0.0193348570 0 0
0.0088842420 -0.0204386820 0 0
0.0091080100 -0.0218866980 0 0
0.0093847230 -0.0235384670 0 0
0.0097392920 -0.0252331700 0 0
0.0101765720 -0.0268075300 0 0
0.0106806200 -0.0281161830 0 0
0.0112181320 -0.0290495000 0 0
0.0117450200 -0.0295449900 0 0
0.0122153600 -0.0295907420 0 0
0.0125897400 -0.0292218160 0 0
0.0128401170 -0.0285121630 0 0
0.0129523790 -0.0275646370 0 0
0.0129286530 -0.0265004220 0 0
0.0127872310 -0.0254477270 0 0
0.0125571480 -0.0245293360 0 0
0.0122686730 -0.0238498670 0 0
0.0119438760 -0.0234852470 0 0
0.0115918840 -0.0234766290 0 0
0.0112123740 -0.0238284220 0 0
0.0108051740 -0.0245083070 0 0
0.0103774980 -0.0254482470 0 0
0.0099428240 -0.0265475880 0 0
0.0095151640 -0.0276801120 0 0
0.0091072530 -0.0287064460 0 0
0.0087351940 -0.0294911330 0 0
0.0084239970 -0.0299208830 0 0
0.0082075640 -0.0299197730 0 0
0.0081214690 -0.0294584200 0 0
0.0081908080 -0.0285563170 0 0
0.0084167080 -0.0272788710 0 0
0.0087669700 -0.0257311170 0 0
0.0091772090 -0.0240481430 0 0
0.0095638430 -0.0223813800 0 0
0.0098428200 -0.0208820580 0 0
0.0099450690 -0.0196848550 0 0
0.0098229410 -0.0188943070 0 0
0.0094496710 -0.0185753100 0 0
0.0088192310 -0.0187481750 0 0
0.0079493000 -0.0193879390 0 0
0.0068822140 -0.0204275540 0 0
0.0056793190 -0.0217650820 0 0
0.0044109760 -0.0232749420 0 0
0.0031469970 -0.0248216550 0 0
0.0019482560 -0.0262728560 0 0
0.0008590460 -0.0275091040 0 0
-0.0000961809 -0.0284313510 0 0
-0.0009084450 -0.0289682430 0 0
-0.0015757080 -0.0290828680 0 0
-0.0020963970 -0.0287761400 0 0
-0.0024675190 -0.0280851460 0 0
-0.0026870260 -0.0270777090 0 0
-0.0027595590 -0.0258454660 0 0
-0.0027034080 -0.0244963930 0 0
-0.0025547980 -0.0231466720 0 0
-0.0023661030 -0.0219115610 0 0
-0.0021974220 -0.0208952440 0 0
-0.0021037070 -0.0201804600 0 0
-0.0021209550 -0.0198194400 0 0
-0.0022558200 -0.0198281600 0 0
-0.0024827990 -0.0201858780 0 0
-0.0027508550 -0.0208403020 0 0
-0.0029972220 -0.0217162290 0 0
-0.0031620630 -0.0227240920 0 0
-0.0031986320 -0.0237663230 0 0
-0.0030791960 -0.0247423340 0 0
-0.0027986490 -0.0255545420 0 0
-0.0023748510 -0.0261166170 0 0
-0.0018438990 -0.0263627390 0 0
-0.0012514680 -0.0262556660 0 0
-0.0006437910 -0.0257921490 0 0
-0.0000609967 -0.0250052640 0 0
0.0004673060 -0.0239629370 0 0
0.0009258420 -0.0227615980 0 0
0.0013163040 -0.0215154740 0 0
0.0016558830 -0.0203437400 0 0
0.0019717210 -0.0193576000 0 0
0.0022943930 -0.0186485870 0 0
0.0026507980 -0.0182789020 0 0
0.0030555410 -0.0182743930 0 0
0.0035047710 -0.0186212420 0 0
0.0039783680 -0.0192678110 0 0
0.0044507960 -0.0201313970 0 0
0.0049042430 -0.0211075150 0 0
0.0053364230 -0.0220796770 0 0
0.0057603810 -0.0229295570 0 0
0.0061995450 -0.0235481760 0 0
0.0066820950 -0.0238476080 0 0
0.0072350560 -0.0237713960 0 0
0.0078767950 -0.0233020400 0 0
0.0086090050 -0.0224649250 0 0
0.0094108500 -0.0213280170 0 0
0.0102373520 -0.0199957760 0 0
0.0110241940 -0.0185968790 0 0
0.0117000720 -0.0172681720 0 0
0.0122018010 -0.0161384380 0 0
0.0124828560 -0.0153146620 0 0
0.0125121670 -0.0148724610 0 0
0.0122707140 -0.0148512590 0 0
0.0117541420 -0.0152530670 0 0
0.0109809650 -0.0160432070 0 0
0.0099997620 -0.0171526810 0 0
0.0088892830 -0.0184832660 0 0
0.0077493300 -0.0199160540 0 0
0.0066847320 -0.0213225420 0 0
0.0057876130 -0.0225764060 0 0
0.0051238200 -0.0235644950 0 0
0.0047277620 -0.0241963360 0 0
0.0046047390 -0.0244119070 0 0
0.0047346050 -0.0241879060 0 0
0.0050730430 -0.0235427960 0 0
0.0055542870 -0.0225396920 0 0
0.0060998670 -0.0212846080 0 0
0.0066306410 -0.0199173810 0 0
0.0070763120 -0.0185948950 0 0
0.0073812510 -0.0174698190 0 0
0.0075095070 -0.0166701840 0 0
0.0074504020 -0.0162839230 0 0
0.0072216230 -0.0163498910 0 0
0.0068648820 -0.0168553580 0 0
0.0064336250 -0.0177400610 0 0
0.0059789660 -0.0189063020 0 0
0.0055410160 -0.0202326990 0 0
0.0051479710 -0.0215881190 0 0
0.0048204260 -0.0228436530 0 0
0.0045769970 -0.0238822750 0 0
0.0044385950 -0.0246065900 0 0
0.0044289030 -0.0249455450 0 0
0.0045681480 -0.0248607760 0 0
0.0048607760 -0.0243516050 0 0
0.0052835770 -0.0234570080 0 0
0.0057824740 -0.0222539160 0 0
0.0062812790 -0.0208518000 0 0
0.0066986760 -0.0193837140 0 0
0.0069660020 -0.0179940780 0 0
0.0070400770 -0.0168231760 0 0
0.0069094150 -0.0159893280 0 0
0.0065941510 -0.0155724120 0 0
0.0061387340 -0.0156035710 0 0
0.0055976260 -0.0160637750 0 0
0.0050203060 -0.0168904830 0 0
0.0044444300 -0.0179888260 0 0
0.0038991430 -0.0192433040 0 0
0.0034121100 -0.0205284880 0 0
0.0030128270 -0.0217202980 0 0
0.0027295820 -0.0227089770 0 0
0.0025820410 -0.0234114820 0 0
0.0025739090 -0.0237792780 0 0
0.0026893500 -0.0237997520 0 0
0.0028944000 -0.0234930190 0 0
0.0031434280 -0.0229070560 0 0
0.0033901050 -0.0221122170 0 0
0.0036000050 -0.0211945260 0 0
0.0037596570 -0.0202479380 0 0
0.0038770500 -0.0193669510 0 0
0.0039729650 -0.0186401630 0 0
0.0040689140 -0.0181436570 0 0
0.0041790910 -0.0179331910 0 0
0.0043094530 -0.0180362390 0 0
0.0044620560 -0.0184463270 0 0
0.0046396170 -0.0191218670 0 0
0.0048447700 -0.0199901760 0 0
0.0050737140 -0.0209560000 0 0
0.0053113300 -0.0219134080 0 0
0.0055341680 -0.0227596230 0 0
0.0057197660 -0.0234081690 0 0
0.0058560770 -0.0237975860 0 0
0.0059461930 -0.0238935050 0 0
0.0060063410 -0.0236855730 0 0
0.0060580430 -0.0231831960 0 0
0.0061178830 -0.0224132480 0 0
0.0061902000 -0.0214203820 0 0
0.0062670360 -0.0202680400 0 0
0.0063343380 -0.0190369780 0 0
0.0063786360 -0.0178194050 0 0
0.0063899740 -0.0167101310 0 0
0.0063612010 -0.0157977000 0 0
0.0062860380 -0.0151568090 0 0
0.0061589680 -0.0148412700 0 0
0.0059790470 -0.0148769350 0 0
0.0057561160 -0.0152554500 0 0
0.0055147230 -0.0159309370 0 0
0.0052926440 -0.0168219980 0 0
0.0051355170 -0.0178200550 0 0
0.0050893110 -0.0188025970 0 0
0.0051890850 -0.0196485580 0 0
0.0054459260 -0.0202532030 0 0
0.0058416130 -0.0205401530 0 0
0.0063376430 -0.0204687720 0 0
0.0068933800 -0.0200369410 0 0
0.0074820810 -0.0192804970 0 0
0.0080965220 -0.0182700710 0 0
0.0087423950 -0.0171042910 0 0
0.0094234160 -0.0158985600 0 0
0.0101253960 -0.0147717780 0 0
0.0108073420 -0.0138349190 0 0
0.0114046750 -0.0131826120 0 0
0.0118429280 -0.0128863250 0 0
0.0120556500 -0.0129883730 0 0
0.0120005690 -0.0134972360 0 0
0.0116699230 -0.0143848080 0 0
0.0110923810 -0.0155863450 0 0
0.0103268890 -0.0170040620 0 0
0.0094517190 -0.0185146800 0 0
0.0085524960 -0.0199804420 0 0
0.0077111850 -0.0212625560 0 0
0.0069962460 -0.0222354990 0 0
0.0064538080 -0.0227999960 0 0
0.0061015390 -0.0228929610 0 0
0.0059287330 -0.0224941350 0 0
0.0059042640 -0.0216296960 0 0
0.0059887720 -0.0203718710 0 0
0.0061436550 -0.0188331860 0 0
0.0063326730 -0.0171554640 0 0
0.0065195380 -0.0154950230 0 0
0.0066673560 -0.0140057930 0 0
0.0067413360 -0.0128224020 0 0
0.0067123940 -0.0120458400 0 0
0.0065597750 -0.0117340630 0 0
0.0062732730 -0.0118983670 0 0
0.0058567250 -0.0125045620 0 0
0.0053317400 -0.0134781320 0 0
0.0047374080 -0.0147136130 0 0
0.0041249040 -0.0160871170 0 0
0.0035503770 -0.0174686670 0 0
0.0030679970 -0.0187322620 0 0
0.0027230150 -0.0197646840 0 0
0.0025457520 -0.0204745930 0 0
0.0025477530 -0.0208013770 0 0
0.0027211800 -0.0207214990 0 0
0.0030407670 -0.0202505930 0 0
0.0034650280 -0.0194415550 0 0
0.0039356110 -0.0183795530 0 0
0.0043789920 -0.0171738970 0 0
0.0047146800 -0.0159464880 0 0
0.0048685430 -0.0148180840 0 0
0.0047856950 -0.0138952060 0 0
0.0044384860 -0.0132599480 0 0
0.0038295890 -0.0129624460 0 0
0.0029924350 -0.0130152200 0 0
0.0019896620 -0.0133908980 0 0
0.0009095230 -0.0140258620 0 0
-0.0001398340 -0.0148301060 0 0
-0.0010420360 -0.0157002570 0 0
-0.0016942630 -0.0165319030 0 0
-0.0020325890 -0.0172293600 0 0
-0.0020457250 -0.0177129310 0 0
-0.0017704140 -0.0179237460 0 0
-0.0012756050 -0.0178261810 0 0
-0.0006447490 -0.0174084730 0 0
0.0000389131 -0.0166828580 0 0
0.0007013120 -0.0156859010 0 0
0.0012807210 -0.0144779870 0 0
0.0017286460 -0.0131402990 0 0
0.0020109380 -0.0117686360 0 0
0.0021084970 -0.0104650370 0 0
0.0020170060 -0.0093287130 0 0
0.0017470220 -0.0084471210 0 0
0.0013251890 -0.0078879310 0 0
0.0007942300 -0.0076930890 0 0
0.0002088600 -0.0078752820 0 0
-0.0003714250 -0.0084156780 0 0
-0.0008894760 -0.0092624170 0 0
-0.0012968940 -0.0103311760 0 0
-0.0015617550 -0.0115102620 0 0
-0.0016773450 -0.0126718370 0 0
-0.0016667480 -0.0136882180 0 0
-0.0015784170 -0.0144497160 0 0
-0.0014736810 -0.0148802150 0 0
-0.0014112420 -0.0149473150 0 0
-0.0014332580 -0.0146648430 0 0
-0.0015559050 -0.0140875810 0 0
-0.0017664240 -0.0133007510 0 0
-0.0020275570 -0.0124082060 0 0
-0.0022886640 -0.0115224910 0 0
-0.0025012720 -0.0107573440 0 0
-0.0026343980 -0.0102203760 0 0
-0.0026827570 -0.0100025640 0 0
-0.0026637110 -0.0101643700 0 0
-0.0026059760 -0.0107234770 0 0
-0.0025372490 -0.0116501890 0 0
-0.0024758800 -0.0128723880 0 0
-0.0024276680 -0.0142870670 0 0
-0.0023865850 -0.0157736660 0 0
-0.0023377620 -0.0172059570 0 0
-0.0022608530 -0.0184620340 0 0
-0.0021325060 -0.0194334290 0 0
-0.0019283250 -0.0200341190 0 0
-0.0016251710 -0.0202089060 0 0
-0.0012043680 -0.0199393900 0 0
-0.0006564050 -0.0192461160 0 0
0.0000135930 -0.0181868990 0 0
0.0007815520 -0.0168523070 0 0
0.0016031030 -0.0153591790 0 0
0.0024171410 -0.0138421500 0 0
0.0031559350 -0.0124428080 0 0
0.0037605020 -0.0112970020 0 0
0.0041961010 -0.0105213520 0 0
0.0044614620 -0.0101998120 0 0
0.0045886910 -0.0103721620 0 0
0.0046356430 -0.0110273550 0 0
0.0046736300 -0.0121037530 0 0
0.0047720390 -0.0134966730 0 0
0.0049829820 -0.0150721970 0 0
0.0053317540 -0.0166842750 0 0
0.0058166660 -0.0181909920 0 0
0.0064163800 -0.0194673870 0 0
0.0070994850 -0.0204149160 0 0
0.0078315550 -0.0209683120 0 0
0.0085778820 -0.0210997160 0 0
0.0093026820 -0.0208195630 0 0
0.0099670030 -0.0201743130 0 0
0.0105287580 -0.0192418160 0 0
0.0109475890 -0.0181252810 0 0
0.0111932580 -0.0169458040 0 0
0.0112534260 -0.0158320670 0 0
0.0111385820 -0.0149065670 0 0
0.0108855810 -0.0142703160 0 0
0.0105607150 -0.0139893260 0 0
0.0102572290 -0.0140862710 0 0
0.0100792030 -0.0145399800 0 0
0.0101128980 -0.0152921880 0 0
0.0104003220 -0.0162572680 0 0
0.0109302540 -0.0173312000 0 0
0.0116487610 -0.0183999220 0 0
0.0124787970 -0.0193489100 0 0
0.0133369010 -0.0200739360 0 0
0.0141428570 -0.0204908270 0 0
0.0148266000 -0.0205428620 0 0
0.0153375930 -0.0202064490 0 0
0.0156555290 -0.0194956470 0 0
0.0157949320 -0.0184643450 0 0
0.0157977000 -0.0172047490 0 0
0.0157158840 -0.0158417770 0 0
0.0155930960 -0.0145224890 0 0
0.0154524050 -0.0133994020 0 0
0.0152944510 -0.0126092380 0 0
0.0151045880 -0.0122522440 0 0
0.0148638060 -0.0123778350 0 0
0.0145579600 -0.0129793150 0 0
0.0141830210 -0.0139969240 0 0
0.0137466990 -0.0153266530 0 0
0.0132673290 -0.0168320500 0 0
0.0127711160 -0.0183579700 0 0
0.0122888800 -0.0197472140 0 0
0.0118528350 -0.0208591420 0 0
0.0114943390 -0.0215859870 0 0
0.0112438950 -0.0218631550 0 0
0.0111318710 -0.0216733890 0 0
0.0111851610 -0.0210461300 0 0
0.0114169040 -0.0200523390 0 0
0.0118130930 -0.0187947410 0 0
0.0123249930 -0.0173953060 0 0
0.0128738770 -0.0159828600 0 0
0.0133671590 -0.0146821550 0 0
0.0137190630 -0.0136038750 0 0
0.0138672400 -0.0128358560 0 0
0.0137800000 -0.0124367990 0 0
0.0134557110 -0.0124324570 0 0
0.0129186760 -0.0128135000 0 0
0.0122119230 -0.0135358470 0 0
0.0113861160 -0.0145249890 0 0
0.0104893450 -0.0156840850 0 0
0.0095642160 -0.0169038600 0 0
0.0086513720 -0.0180728900 0 0
0.0077924900 -0.0190881590 0 0
0.0070284170 -0.0198649830 0 0
0.0063936660 -0.0203437680 0 0
0.0059101840 -0.0204921180 0 0
0.0055822530 -0.0203041130 0 0
0.0053945580 -0.0198001530 0 0
0.0053152090 -0.0190284350 0 0
0.0053023320 -0.0180654940 0 0
0.0053099050 -0.0170126300 0 0
0.0052904160 -0.0159875400 0 0
0.0051963570 -0.0151123520 0 0
0.0049839120 -0.0144994470 0 0
0.0046198470 -0.0142366190 0 0
0.0040894490 -0.0143740860 0 0
0.0034021270 -0.0149161770 0 0
0.0025921650 -0.0158192620 0 0
0.0017136550 -0.0169962560 0 0
0.0008305070 -0.0183271860 0 0
0.0000043274 -0.0196741420 0 0
-0.0007159480 -0.0208980940 0 0
-0.0012985850 -0.0218749610 0 0
-0.0017256180 -0.0225083030 0 0
-0.0019842280 -0.0227366720 0 0
-0.0020594110 -0.0225360480 0 0
-0.0019328570 -0.0219197340 0 0
-0.0015892080 -0.0209369130 0 0
-0.0010291370 -0.0196688460 0 0
-0.0002852490 -0.0182220580 0 0
0.0005690610 -0.0167196110 0 0
0.0014262520 -0.0152914080 0 0
0.0021650060 -0.0140633150 0 0
0.0026745590 -0.0131455680 0 0
0.0028744090 -0.0126227580 0 0
0.0027264950 -0.0125468540 0 0
0.0022400610 -0.0129322310 0 0
0.0014688630 -0.0137517250 0 0
0.0005005900 -0.0149352890 0 0
-0.0005583310 -0.0163736910 0 0
-0.0015978390 -0.0179277360 0 0
-0.0025169930 -0.0194416040 0 0
-0.0032336420 -0.0207586940 0 0
-0.0036892360 -0.0217392070 0 0
-0.0038478760 -0.0222787870 0 0
-0.0036927690 -0.0223251800 0 0
-0.0032253750 -0.0218872050 0 0
-0.0024693360 -0.0210314210 0 0
-0.0014755140 -0.0198674220 0 0
-0.0003214970 -0.0185283070 0 0
0.0008985860 -0.0171532640 0 0
0.0020904930 -0.0158747250 0 0
0.0031739550 -0.0148085850 0 0
0.0040901740 -0.0140462000 0 0
0.0048053850 -0.0136489660 0 0
0.0053126450 -0.0136463420 0 0
0.0056299710 -0.0140360560 0 0
0.0057941480 -0.0147843910 0 0
0.0058531410 -0.0158266390 0 0
0.0058595430 -0.0170700070 0 0
0.0058647730 -0.0184006950 0 0
0.0059135030 -0.0196945260 0 0
0.0060395240 -0.0208287270 0 0
0.0062643760 -0.0216927440 0 0
0.0065978170 -0.0221978770 0 0
0.0070380890 -0.0222864390 0 0
0.0075710730 -0.0219394930 0 0
0.0081680730 -0.0211803840 0 0
0.0087829920 -0.0200721340 0 0
0.0093521670 -0.0187095770 0 0
0.0098003980 -0.0172090030 0 0
0.0100531030 -0.0156976070 0 0
0.0100512260 -0.0143034690 0 0
0.0097649840 -0.0131458730 0 0
0.0092021880 -0.0123257090 0 0
0.0084074160 -0.0119160320 0 0
0.0074523670 -0.0119537040 0 0
0.0064226010 -0.0124346080 0 0
0.0054056450 -0.0133149020 0 0
0.0044815390 -0.0145176700 0 0
0.0037150370 -0.0159413000 0 0
0.0031504060 -0.0174669270 0 0
0.0028111920 -0.0189656380 0 0
0.0027047090 -0.0203078530 0 0
0.0028264410 -0.0213759360 0 0
0.0031599410 -0.0220783180 0 0
0.0036737260 -0.0223620870 0 0
0.0043207670 -0.0222209580 0 0
0.0050444040 -0.0216962450 0 0
0.0057893830 -0.0208705350 0 0
0.0065113500 -0.0198560930 0 0
0.0071775920 -0.0187809380 0 0
0.0077594100 -0.0177753770 0 0
0.0082253240 -0.0169601600 0 0
0.0085433110 -0.0164348330 0 0
0.0086910210 -0.0162650160 0 0
0.0086663260 -0.0164711650 0 0
0.0084915330 -0.0170233600 0 0
0.0082094730 -0.0178447340 0 0
0.0078735820 -0.0188229290 0 0
0.0075353560 -0.0198266800 0 0
0.0072328700 -0.0207233560 0 0
0.0069842250 -0.0213937050 0 0
0.0067878930 -0.0217424520 0 0
0.0066281970 -0.0217060950 0 0
0.0064821350 -0.0212594640 0 0
0.0063246260 -0.0204204780 0 0
0.0061315780 -0.0192508770 0 0
0.0058824160 -0.0178510760 0 0
0.0055638690 -0.0163490760 0 0
0.0051742800 -0.0148851970 0 0
0.0047255290 -0.0135952550 0 0
0.0042410790 -0.0125948930 0 0
0.0037512530 -0.0119673680 0 0
0.0032870310 -0.0117560270 0 0
0.0028733080 -0.0119616420 0 0
0.0025232920 -0.0125444720 0 0
0.0022356310 -0.0134303760 0 0
0.0019949380 -0.0145193070 0 0
0.0017768640 -0.0156946770 0 0
0.0015581260 -0.0168330990 0 0
0.0013274060 -0.0178144180 0 0
0.0010900070 -0.0185318410 0 0
0.0008631760 -0.0189015770 0 0
0.0006659340 -0.0188709880 0 0
0.0005088570 -0.0184243070 0 0
0.0003874160 -0.0175849300 0 0
0.0002821010 -0.0164134480 0 0
0.0001664840 -0.0150019250 0 0
0.0000182312 -0.0134657670 0 0
-0.0001747270 -0.0119335930 0 0
-0.0004155710 -0.0105352680 0 0
-0.0007027450 -0.0093890870 0 0
-0.0010303450 -0.0085897760 0 0
-0.0013834060 -0.0081993560 0 0
-0.0017335950 -0.0082425320 0 0
-0.0020423510 -0.0087067030 0 0
-0.0022720560 -0.0095447670 0 0
-0.0023971900 -0.0106786040 0 0
-0.0024067140 -0.0120033590 0 0
-0.0022980410 -0.0133947520 0 0
-0.0020711400 -0.0147201570 0 0
-0.0017291080 -0.0158511660 0 0
-0.0012835470 -0.0166751120 0 0
-0.0007591700 -0.0171055880 0 0
-0.0001937460 -0.0170931000 0 0
0.0003667860 -0.0166344760 0 0
0.0008753780 -0.0157773510 0 0
0.0012904300 -0.0146169430 0 0
0.0015819180 -0.0132849460 0 0
0.0017380340 -0.0119327190 0 0
0.0017692540 -0.0107124730 0 0
0.0017036290 -0.0097598960 0 0
0.0015718990 -0.0091799790 0 0
0.0013903100 -0.0090364030 0 0
0.0011523930 -0.0093449640 0 0
0.0008348990 -0.0100725090 0 0
0.0004135320 -0.0111424170 0 0
-0.0001216270 -0.0124454800 0 0
-0.0007587250 -0.0138538810 0 0
-0.0014647350 -0.0152361440 0 0
-0.0021895680 -0.0164702050 0 0
-0.0028715180 -0.0174516890 0 0
-0.0034454250 -0.0180974460 0 0
-0.0038544750 -0.0183474500 0 0
-0.0040622900 -0.0181677960 0 0
-0.0040593320 -0.0175553490 0 0
-0.0038610550 -0.0165431940 0 0
-0.0035010990 -0.0152045180 0 0
-0.0030240470 -0.0136515020 0 0
-0.0024794980 -0.0120270440 0 0
-0.0019174070 -0.0104897190 0 0
-0.0013844090 -0.0091946740 0 0
-0.0009205770 -0.0082752890 0 0
-0.0005565540 -0.0078297410 0 0
-0.0003123280 -0.0079126180 0 0
-0.0001987010 -0.0085296190 0 0
-0.0002206220 -0.0096354960 0 0
-0.0003797010 -0.0111372860 0 0
-0.0006726580 -0.0129032730 0 0
-0.0010846200 -0.0147758180 0 0
-0.0015811120 -0.0165861580 0 0
-0.0021058220 -0.0181705420 0 0
-0.0025879100 -0.0193870150 0 0
-0.0029559720 -0.0201313190 0 0
-0.0031533950 -0.0203494820 0 0
-0.0031513430 -0.0200442030 0 0
-0.0029561560 -0.0192730100 0 0
-0.0026080380 -0.0181384710 0 0
-0.0021710560 -0.0167727540 0 0
-0.0017189260 -0.0153194450 0 0
-0.0013222770 -0.0139156770 0 0
-0.0010404490 -0.0126780440 0 0
-0.0009175710 -0.0116946540 0 0
-0.0009807960 -0.0110223080 0 0
-0.0012387610 -0.0106858470 0 0
-0.0016795410 -0.0106779590 0 0
-0.0022686740 -0.0109598960 0 0
-0.0029497810 -0.0114647180 0 0
-0.0036496790 -0.0121041570 0 0
-0.0042859340 -0.0127780110 0 0
-0.0047743380 -0.0133841340 0 0
-0.0050374390 -0.0138289600 0 0
-0.0050154930 -0.0140386610 0 0
-0.0046780060 -0.0139685820 0 0
-0.0040316200 -0.0136079460 0 0
-0.0031194620 -0.0129794050 0 0
-0.0020102830 -0.0121349020 0 0
-0.0007825500 -0.0111488880 0 0
0.0004880960 -0.0101097130 0 0
0.0017338620 -0.0091109040 0 0
0.0028942580 -0.0082437260 0 0
0.0039140790 -0.0075909970 0 0
0.0047445940 -0.0072212810 0 0
0.0053528990 -0.0071825550 0 0
0.0057375860 -0.0074952590 0 0
0.0059370570 -0.0081464140 0 0
0.0060175100 -0.0090881980 0 0
0.0060454690 -0.0102431770 0 0
0.0060640590 -0.0115147450 0 0
0.0060866990 -0.0127991840 0 0
0.0061057540 -0.0139965960 0 0
0.0061055300 -0.0150191910 0 0
0.0060727060 -0.0157959730 0 0
0.0060022680 -0.0162739340 0 0
0.0058984850 -0.0164180490 0 0
0.0057719030 -0.0162130980 0 0
0.0056342030 -0.0156676040 0 0
0.0054919930 -0.0148168530 0 0
0.0053407910 -0.0137224640 0 0
0.0051622810 -0.0124687230 0 0
0.0049282260 -0.0111570580 0 0
0.0046106370 -0.0098993060 0 0
0.0041928070 -0.0088093440 0 0
0.0036751970 -0.0079924110 0 0
0.0030748130 -0.0075323870 0 0
0.0024214220 -0.0074790180 0 0
0.0017538870 -0.0078381620 0 0
0.0011173840 -0.0085678460 0 0
0.0005600640 -0.0095814290 0 0
0.0001269980 -0.0107573820 0 0
-0.0001479140 -0.0119544810 0 0
-0.0002471420 -0.0130307350 0 0
-0.0001683430 -0.0138623980 0 0
0.0000805027 -0.0143580190 0 0
0.0004836020 -0.0144649380 0 0
0.0010149900 -0.0141695120 0 0
0.0016355290 -0.0134941020 0 0
0.0022949480 -0.0124934040 0 0
0.0029389140 -0.0112510810 0 0
0.0035168850 -0.0098753410 0 0
0.0039882790 -0.0084914340 0 0
0.0043269550 -0.0072307150 0 0
0.0045232900 -0.0062176570 0 0
0.0045827880 -0.0055558820 0 0
0.0045224030 -0.0053141770 0 0
0.0043669410 -0.0055152410 0 0
0.0041456940 -0.0061314920 0 0
0.0038883270 -0.0070905540 0 0
0.0036204620 -0.0082886600 0 0
0.0033613070 -0.0096065480 0 0
0.0031261870 -0.0109222850 0 0
0.0029337520 -0.0121192000 0 0
0.0028117030 -0.0130916720 0 0
0.0027928220 -0.0137526060 0 0
0.0028995220 -0.0140430220 0 0
0.0031254230 -0.0139407870 0 0
0.0034265790 -0.0134653860 0 0
0.0037294280 -0.0126770540 0 0
0.0039527700 -0.0116697200 0 0
0.0040343460 -0.0105584800 0 0
0.0039495080 -0.0094640900 0 0
0.0037111100 -0.0084979060 0 0
0.0033515260 -0.0077503380 0 0
0.0029018560 -0.0072842660 0 0
0.0023819420 -0.0071326670 0 0
0.0018013750 -0.0072985530 0 0
0.0011649750 -0.0077564170 0 0
0.0004788130 -0.0084555330 0 0
-0.0002439590 -0.0093249480 0 0
-0.0009779990 -0.0102796580 0 0
-0.0016840650 -0.0112281700 0 0
-0.0023133450 -0.0120811050 0 0
-0.0028162760 -0.0127594490 0 0
-0.0031510400 -0.0132016760 0 0
-0.0032892020 -0.0133697950 0 0
-0.0032197280 -0.0132533830 0 0
-0.0029530520 -0.0128702470 0 0
-0.0025244120 -0.0122641420 0 0
-0.0019929560 -0.0115015250 0 0
-0.0014329170 -0.0106681520 0 0
-0.0009179230 -0.0098643060 0 0
-0.0005056920 -0.0091970770 0 0
-0.0002308150 -0.0087693170 0 0
-0.0001075990 -0.0086663710 0 0
-0.0001379540 -0.0089433310 0 0
-0.0003161420 -0.0096164600 0 0
-0.0006265160 -0.0106606860 0 0
-0.0010387600 -0.0120119390 0 0
-0.0015078300 -0.0135724940 0 0
-0.0019801190 -0.0152193290 0 0
-0.0024011740 -0.0168160760 0 0
-0.0027210090 -0.0182266920 0 0
-0.0028984050 -0.0193275680 0 0
-0.0029066770 -0.0200174110 0 0
-0.0027393160 -0.0202266710 0 0
-0.0024114500 -0.0199263070 0 0
-0.0019560380 -0.0191325760 0 0
-0.0014173390 -0.0179055520 0 0
-0.0008438230 -0.0163432380 0 0
-0.0002811040 -0.0145740260 0 0
0.0002344080 -0.0127473360 0 0
0.0006803800 -0.0110207550 0 0
0.0010515990 -0.0095434530 0 0
0.0013596170 -0.0084381400 0 0
0.0016273040 -0.0077857650 0 0
0.0018793940 -0.0076171700 0 0
0.0021325360 -0.0079136770 0 0
0.0023881600 -0.0086153160 0 0
0.0026312460 -0.0096327440 0 0
0.0028376440 -0.0108585630 0 0
0.0029871320 -0.0121762000 0 0
0.0030731730 -0.0134674560 0 0
0.0031029250 -0.0146206380 0 0
0.0030903090 -0.0155398880 0 0
0.0030499680 -0.0161546940 0 0
0.0029960970 -0.0164274860 0 0
0.0029425600 -0.0163575130 0 0
0.0028989520 -0.0159810290 0 0
0.0028632500 -0.0153686600 0 0
0.0028167760 -0.0146193770 0 0
0.0027254100 -0.0138496090 0 0
0.0025461990 -0.0131780860 0 0
0.0022362670 -0.0127096890 0 0
0.0017613990 -0.0125221650 0 0
0.0011026600 -0.0126580750 0 0
0.0002606680 -0.0131217980 0 0
-0.0007410770 -0.0138797480 0 0
-0.0018537140 -0.0148627150 0 0
-0.0030051720 -0.0159714060 0 0
-0.0041092140 -0.0170867780 0 0
-0.0050767710 -0.0180843020 0 0
-0.0058239420 -0.0188489350 0 0
-0.0062782800 -0.0192879120 0 0
-0.0063884160 -0.0193402260 0 0
-0.0061352020 -0.0189821360 0 0
-0.0055359210 -0.0182284560 0 0
-0.0046376410 -0.0171305620 0 0
-0.0035064320 -0.0157722250 0 0
-0.0022217000 -0.0142635150 0 0
-0.0008771560 -0.0127326040 0 0
0.0004175300 -0.0113153030 0 0
0.0015405210 -0.0101427100 0 0
0.0023700380 -0.0093278430 0 0
0.0028046510 -0.0089522620 0 0
0.0027863640 -0.0090545720 0 0
0.0023170670 -0.0096241690 0 0
0.0014604390 -0.0106024540 0 0
0.0003286190 -0.0118903820 0 0
-0.0009396010 -0.0133601480 0 0
-0.0022011610 -0.0148694400 0 0
-0.0033287670 -0.0162760290 0 0
-0.0042276060 -0.0174502760 0 0
-0.0048445080 -0.0182850460 0 0
-0.0051665500 -0.0187038480 0 0
-0.0052124880 -0.0186670240 0 0
-0.0050222720 -0.0181747150 0 0
-0.0046468010 -0.0172660790 0 0
-0.0041391640 -0.0160155530 0 0
-0.0035501370 -0.0145270720 0 0
-0.0029290190 -0.0129266600 0 0
-0.0023260000 -0.0113533950 0 0
-0.0017906480 -0.0099491270 0 0
-0.0013661710 -0.0088474290 0 0
-0.0010834450 -0.0081612500 0 0
-0.0009568560 -0.0079689330 0 0
-0.0009823240 -0.0083006870 0 0
-0.0011392000 -0.0091292960 0 0
-0.0013952410 -0.0103684100 0 0
-0.0017103360 -0.0118804690 0 0
-0.0020378420 -0.0134939860 0 0
-0.0023276350 -0.0150272200 0 0
-0.0025335520 -0.0163135400 0 0
-0.0026222650 -0.0172227570 0 0
-0.0025791020 -0.0176734620 0 0
-0.0024104030 -0.0176355870 0 0
-0.0021442180 -0.0171268330 0 0
-0.0018283910 -0.0162071140 0 0
-0.0015234540 -0.0149725870 0 0
-0.0012909090 -0.0135485560 0 0
-0.0011813930 -0.0120798000 0 0
-0.0012267620 -0.0107170430 0 0
-0.0014358590 -0.0095997550 0 0
-0.0017917780 -0.0088383560 0 0
-0.0022521850 -0.0085007360 0 0
-0.0027568750 -0.0086062870 0 0
-0.0032415760 -0.0091272020 0 0
-0.0036511100 -0.0099953520 0 0
-0.0039467280 -0.0111131310 0 0
-0.0041075320 -0.0123659570 0 0
-0.0041276670 -0.0136341340 0 0
-0.0040118560 -0.0148037290 0 0
-0.0037725490 -0.0157766710 0 0
-0.0034293640 -0.0164789920 0 0
-0.0030080070 -0.0168663090 0 0
-0.0025369580 -0.0169268190 0 0
-0.0020438440 -0.0166818460 0 0
-0.0015540800 -0.0161832030 0 0
-0.0010918370 -0.0155069970 0 0
-0.0006807540 -0.0147449440 0 0
-0.0003417830 -0.0139949670 0 0
-0.0000887840 -0.0133517520 0 0
0.0000745071 -0.0128974900 0 0
0.0001536080 -0.0126945610 0 0
0.0001595810 -0.0127820310 0 0
0.0001052760 -0.0131749460 0 0
0.0000036421 -0.0138637140 0 0
-0.0001316340 -0.0148126620 0 0
-0.0002846430 -0.0159591220 0 0
-0.0004360860 -0.0172149690 0 0
-0.0005619470 -0.0184722030 0 0
-0.0006319550 -0.0196131080 0 0
-0.0006097430 -0.0205236900 0 0
-0.0004564140 -0.0211077850 0 0
-0.0001376050 -0.0212988760 0 0
0.0003670890 -0.0210675300 0 0
0.0010550740 -0.0204242540 0 0
0.0018968360 -0.0194184040 0 0
0.0028403760 -0.0181334230 0 0
0.0038209700 -0.0166788020 0 0
0.0047698320 -0.0151801980 0 0
0.0056196040 -0.0137689150 0 0
0.0063094520 -0.0125705010 0 0
0.0067918090 -0.0116921900 0 0
0.0070396330 -0.0112106230 0 0
0.0070507500 -0.0111623900 0 0
0.0068459560 -0.0115393480 0 0
0.0064615520 -0.0122896210 0 0
0.0059411840 -0.0133245170 0 0
0.0053305790 -0.0145302050 0 0
0.0046749690 -0.0157813780 0 0
0.0040180800 -0.0169539620 0 0
0.0034018830 -0.0179354160 0 0
0.0028657230 -0.0186329280 0 0
0.0024436220 -0.0189802970 0 0
0.0021598880 -0.0189432580 0 0
0.0020243860 -0.0185225020 0 0
0.0020299720 -0.0177540760 0 0
0.0021540310 -0.0167069960 0 0
0.0023629870 -0.0154778870 0 0
0.0026167050 -0.0141826600 0 0
0.0028710530 -0.0129456220 0 0
0.0030791880 -0.0118872570 0 0
0.0031936610 -0.0111126280 0 0
0.0031720980 -0.0107014760 0 0
0.0029863230 -0.0107003600 0 0
0.0026297180 -0.0111177100 0 0
0.0021176440 -0.0119222600 0 0
0.0014812150 -0.0130440130 0 0
0.0007586550 -0.0143775270 0 0
-0.0000112302 -0.0157889080 0 0
-0.0007906700 -0.0171280390 0 0
-0.0015402350 -0.0182461130 0 0
-0.0022162010 -0.0190158370 0 0
-0.0027729840 -0.0193492080 0 0
-0.0031717890 -0.0192083770 0 0
-0.0033914780 -0.0186084200 0 0
-0.0034355480 -0.0176136910 0 0
-0.0033319910 -0.0163300810 0 0
-0.0031272730 -0.0148945330 0 0
-0.0028772240 -0.0134619390 0 0
-0.0026366780 -0.0121893340 0 0
-0.0024499230 -0.0112184760 0 0
-0.0023445150 -0.0106593290 0 0
-0.0023296260 -0.0105776060 0 0
-0.0023980350 -0.0109885860 0 0
-0.0025303150 -0.0118572640 0 0
-0.0027001990 -0.0131035910 0 0
-0.0028798350 -0.0146121470 0 0
-0.0030429370 -0.0162456740 0 0
-0.0031638290 -0.0178598670 0 0
-0.0032122260 -0.0193152960 0 0
-0.0031470640 -0.0204848660 0 0
-0.0029165010 -0.0212594710 0 0
-0.0024704790 -0.0215555890 0 0
-0.0017819260 -0.0213257190 0 0
-0.0008628300 -0.0205683190 0 0
0.0002333350 -0.0193323700 0 0
0.0014188650 -0.0177141060 0 0
0.0025823830 -0.0158470190 0 0
0.0036023500 -0.0138877320 0 0
0.0043656000 -0.0119997980 0 0
0.0047883140 -0.0103369950 0 0
0.0048319420 -0.0090283190 0 0
0.0045075240 -0.0081667670 0 0
0.0038674330 -0.0078027310 0 0
0.0029896980 -0.0079420090 0 0
0.0019633870 -0.0085474360 0 0
0.0008806850 -0.0095425710 0 0
-0.0001662050 -0.0108176430 0 0
-0.0010893030 -0.0122399190 0 0
-0.0018126610 -0.0136689760 0 0
-0.0022806790 -0.0149736760 0 0
-0.0024639290 -0.0160464650 0 0
-0.0023623160 -0.0168122650 0 0
-0.0020047140 -0.0172313410 0 0
-0.0014434080 -0.0172970810 0 0
-0.0007444480 -0.0170312920 0 0
0.0000221757 -0.0164798950 0 0
0.0007893900 -0.0157096460 0 0
0.0014961270 -0.0148044760 0 0
0.0020877230 -0.0138602810 0 0
0.0025157910 -0.0129781650 0 0
0.0027404600 -0.0122558850 0 0
0.0027359060 -0.0117765800 0 0
0.0024960810 -0.0115955780 0 0
0.0020366300 -0.0117297330 0 0
0.0013919720 -0.0121541910 0 0
0.0006091290 -0.0128073570 0 0
-0.0002595330 -0.0136006380 0 0
-0.0011618670 -0.0144290190 0 0
-0.0020473460 -0.0151809860 0 0
-0.0028649970 -0.0157483760 0 0
-0.0035621110 -0.0160367750 0 0
-0.0040873400 -0.0159760040 0 0
-0.0043980970 -0.0155295260 0 0
-0.0044688640 -0.0147014120 0 0
-0.0042969940 -0.0135395810 0 0
-0.0039048690 -0.0121334900 0 0
-0.0033382980 -0.0106046810 0 0
-0.0026614770 -0.0090916670 0 0
-0.0019500580 -0.0077338240 0 0
-0.0012829180 -0.0066580150 0 0
-0.0007315630 -0.0059680970 0 0
-0.0003493590 -0.0057358950 0 0
-0.0001664490 -0.0059939720 0 0
-0.0001924190 -0.0067322830 0 0
-0.0004213650 -0.0078996110 0 0
-0.0008333090 -0.0094078800 0 0
-0.0013922000 -0.0111374540 0 0
-0.0020456740 -0.0129444320 0 0
-0.0027306940 -0.0146720790 0 0
-0.0033831840 -0.0161663350 0 0
-0.0039455710 -0.0172925910 0 0
-0.0043692860 -0.0179505120 0 0
-0.0046147580 -0.0180851520 0 0
-0.0046523050 -0.0176931420 0 0
-0.0044646920 -0.0168226200 0 0
-0.0040497880 -0.0155667400 0 0
-0.0034218010 -0.0140521830 0 0
-0.0026120740 -0.0124247160 0 0
-0.0016718320 -0.0108337890 0 0
-0.0006757500 -0.0094181630 0 0
0.0002789190 -0.0082936390 0 0
0.0010811760 -0.0075428030 0 0
0.0016217690 -0.0072070900 0 0
0.0018117400 -0.0072833760 0 0
0.0015998850 -0.0077274700 0 0
0.0009842890 -0.0084638880 0 0
0.0000141629 -0.0093976350 0 0
-0.0012182360 -0.0104233580 0 0
-0.0025922990 -0.0114306410 0 0
-0.0039759350 -0.0123085560 0 0
-0.0052419410 -0.0129536430 0 0
-0.0062833800 -0.0132820400 0 0
-0.0070265340 -0.0132424380 0 0
-0.0074378470 -0.0128256960 0 0
-0.0075228570 -0.0120684750 0 0
-0.0073195970 -0.0110500690 0 0
-0.0068915580 -0.0098834730 0 0
-0.0063234850 -0.0087025440 0 0
-0.0057178170 -0.0076464930 0 0
-0.0051863130 -0.0068433840 0 0
-0.0048347180 -0.0063962800 0 0
-0.0047442700 -0.0063754420 0 0
-0.0049570050 -0.0068161040 0 0
-0.0054698330 -0.0077179920 0 0
-0.0062372720 -0.0090436900 0 0
-0.0071794250 -0.0107169090 0 0
-0.0081929920 -0.0126242230 0 0
-0.0091647840 -0.0146232330 0 0
-0.0099866340 -0.0165571500 0 0
-0.0105694060 -0.0182728000 0 0
-0.0108538530 -0.0196380000 0 0
-0.0108168110 -0.0205549080 0 0
-0.0104724180 -0.0209676890 0 0
-0.0098685100 -0.0208652920 0 0
-0.0090776080 -0.0202814170 0 0
-0.0081826440 -0.0192923720 0 0
-0.0072613700 -0.0180108840 0 0
-0.0063755680 -0.0165737500 0 0
-0.0055677120 -0.0151243170 0 0
-0.0048625620 -0.0137942120 0 0
-0.0042701870 -0.0126891140 0 0
-0.0037884840 -0.0118809660 0 0
-0.0034040960 -0.0114062210 0 0
-0.0030921000 -0.0112685980 0 0
-0.0028169550 -0.0114443780 0 0
-0.0025361330 -0.0118875050 0 0
-0.0022051360 -0.0125325930 0 0
-0.0017833730 -0.0132972530 0 0
-0.0012421050 -0.0140866680 0 0
-0.0005727360 -0.0148016080 0 0
0.0002098690 -0.0153494170 0 0
0.0010722010 -0.0156567400 0 0
0.0019716220 -0.0156809440 0 0
0.0028644550 -0.0154160460 0 0
0.0037105660 -0.0148908590 0 0
0.0044763630 -0.0141611120 0 0
0.0051377640 -0.0132996450 0 0
0.0056829550 -0.0123878570 0 0
0.0061130180 -0.0115096720 0 0
0.0064372040 -0.0107477130 0 0
0.0066627160 -0.0101799520 0 0
0.0067860340 -0.0098744480 0 0
0.0067937210 -0.0098811980 0 0
0.0066722210 -0.0102229730 0 0
0.0064181990 -0.0108883470 0 0
0.0060416270 -0.0118291340 0 0
0.0055615260 -0.0129629100 0 0
0.0050017090 -0.0141806100 0 0
0.0043926100 -0.0153583840 0 0
0.0037765190 -0.0163718970 0 0
0.0032080890 -0.0171109020 0 0
0.0027465430 -0.0174921940 0 0
0.0024440680 -0.0174690250 0 0
0.0023360070 -0.0170350950 0 0
0.0024340680 -0.0162231450 0 0
0.0027219390 -0.0151009460 0 0
0.0031545180 -0.0137672870 0 0
0.0036626070 -0.0123467690 0 0
0.0041624890 -0.0109797120 0 0
0.0045672150 -0.0098057320 0 0
0.0047969000 -0.0089440890 0 0
0.0047875100 -0.0084763840 0 0
0.0044979800 -0.0084360860 0 0
0.0039151700 -0.0088063330 0 0
0.0030572500 -0.0095252170 0 0
0.0019757720 -0.0104966660 0 0
0.0007535980 -0.0116042220 0 0
-0.0005049350 -0.0127251440 0 0
-0.0016911610 -0.0137428930 0 0
-0.0027119310 -0.0145564760 0 0
-0.0035061710 -0.0150865050 0 0
-0.0040521480 -0.0152795280 0 0
-0.0043621740 -0.0151120760 0 0
-0.0044687740 -0.0145936450 0 0
-0.0044118120 -0.0137666470 0 0
-0.0042331860 -0.0127025660 0 0
-0.0039783070 -0.0114950590 0 0
-0.0036995570 -0.0102513660 0 0
-0.0034570920 -0.0090835150 0 0
-0.0033140520 -0.0081001510 0 0
-0.0033263910 -0.0073984430 0 0
-0.0035313930 -0.0070549040 0 0
-0.0039400770 -0.0071155750 0 0
-0.0045357030 -0.0075877780 0 0
-0.0052772570 -0.0084357420 0 0
-0.0061060160 -0.0095817490 0 0
-0.0069532200 -0.0109139360 0 0
-0.0077470450 -0.0122998070 0 0
-0.0084185520 -0.0136020200 0 0
-0.0089076330 -0.0146926080 0 0
-0.0091691470 -0.0154637050 0 0
-0.0091782460 -0.0158353070 0 0
-0.0089347210 -0.0157619900 0 0
-0.0084673240 -0.0152392850 0 0
-0.0078370530 -0.0143074910 0 0
-0.0071342490 -0.0130492560 0 0
-0.0064647270 -0.0115793090 0 0
-0.0059269570 -0.0100286130 0 0
-0.0055887060 -0.0085274840 0 0
-0.0054721870 -0.0071910930 0 0
-0.0055528400 -0.0061086890 0 0
-0.0057707080 -0.0053373060 0 0
-0.0060472540 -0.0049007180 0 0
-0.0062990470 -0.0047927480 0 0
-0.0064447590 -0.0049822190 0 0
-0.0064096490 -0.0054175360 0 0
-0.0061337680 -0.0060314360 0 0
-0.0055836840 -0.0067470990 0 0
-0.0047612670 -0.0074850510 0 0
-0.0037049420 -0.0081694230 0 0
-0.0024833790 -0.0087333460 0 0
-0.0011827700 -0.0091239100 0 0
0.0001107710 -0.0093063040 0 0
0.0013294310 -0.0092661390 0 0
0.0024354270 -0.0090092270 0 0
0.0034204000 -0.0085590950 0 0
0.0042933930 -0.0079538040 0 0
0.0050651030 -0.0072437750 0 0
0.0057361170 -0.0064908060 0 0
0.0062924020 -0.0057664930 0 0
0.0067073270 -0.0051480570 0 0
0.0069473180 -0.0047110600 0 0
0.0069792950 -0.0045194330 0 0
0.0067810930 -0.0046137910 0 0
0.0063540380 -0.0050005800 0 0
0.0057312180 -0.0056460490 0 0
0.0049753710 -0.0064781210 0 0
0.0041676950 -0.0073961250 0 0
0.0033935500 -0.0082854310 0 0
0.0027290350 -0.0090334420 0 0
0.0022305570 -0.0095442270 0 0
0.0019310430 -0.0097499710 0 0
0.0018446550 -0.0096181040 0 0
0.0019749240 -0.0091536120 0 0
0.0023179350 -0.0083969420 0 0
0.0028577480 -0.0074191200 0 0
0.0035593970 -0.0063156180 0 0
0.0043668640 -0.0051988360 0 0
0.0052084770 -0.0041879110 0 0
0.0060070730 -0.0033955850 0 0
0.0066910170 -0.0029143330 0 0
0.0072029730 -0.0028053760 0 0
0.0075048940 -0.0030931040 0 0
0.0075804250 -0.0037649210 0 0
0.0074374510 -0.0047745830 0 0
0.0071102250 -0.0060467510 0 0
0.0066565440 -0.0074813790 0 0
0.0061483290 -0.0089583950 0 0
0.0056591150 -0.0103450740 0 0
0.0052520310 -0.0115081040 0 0
0.0049695740 -0.0123290330 0 0
0.0048264330 -0.0127190650 0 0
0.0048075730 -0.0126291990 0 0
0.0048735030 -0.0120543270 0 0
0.0049724520 -0.0110327260 0 0
0.0050546210 -0.0096424010 0 0
0.0050807740 -0.0079939780 0 0
0.0050226400 -0.0062197830 0 0
0.0048608360 -0.0044605490 0 0
0.0045854260 -0.0028522840 0 0
0.0041970750 -0.0015148240 0 0
0.0037046500 -0.0005422150 0 0
0.0031197960 0.0000052039 0 0
0.0024527390 0.0001063720 0 0
0.0017122590 -0.0002184630 0 0
0.0009101390 -0.0009097670 0 0
0.0000703826 -0.0018740570 0 0
-0.0007582360 -0.0029918870 0 0
-0.0014954080 -0.0041292240 0 0
-0.0020400700 -0.0051530470 0 0
-0.0022978930 -0.0059491940 0 0
-0.0022103720 -0.0064377590 0 0
-0.0017707450 -0.0065821700 0 0
-0.0010217730 -0.0063911000 0 0
-0.0000397892 -0.0059145050 0 0
0.0010845330 -0.0052352760 0 0
0.0022582920 -0.0044573550 0 0
0.0033887040 -0.0036917400 0 0
0.0043826310 -0.0030433950 0 0
0.0051513560 -0.0026016870 0 0
0.0056209850 -0.0024343080 0 0
0.0057434350 -0.0025830790 0 0
0.0055034460 -0.0030606910 0 0
0.0049193000 -0.0038486810 0 0
0.0040380290 -0.0048982870 0 0
0.0029285570 -0.0061352360 0 0
0.0016750990 -0.0074667290 0 0
0.0003695940 -0.0087880730 0 0
-0.0008988510 -0.0099891040 0 0
-0.0020560410 -0.0109624340 0 0
-0.0030512750 -0.0116138330 0 0
-0.0038587400 -0.0118728870 0 0
-0.0044730840 -0.0117023940 0 0
-0.0049032830 -0.0111054080 0 0
-0.0051668310 -0.0101274230 0 0
-0.0052840600 -0.0088508580 0 0
-0.0052736240 -0.0073822990 0 0
-0.0051515680 -0.0058367520 0 0
-0.0049340860 -0.0043242010 0 0
-0.0046410890 -0.0029416210 0 0
-0.0042982490 -0.0017698970 0 0
-0.0039373370 -0.0008723820 0 0
-0.0035952310 -0.0002926850 0 0
-0.0033103850 -0.0000518422 0 0
-0.0031153090 -0.0001461860 0 0
-0.0030267430 -0.0005462690 0 0
-0.0030375820 -0.0011966550 0 0
-0.0031132500 -0.0020175740 0 0
-0.0031940100 -0.0029103060 0 0
-0.0032048140 -0.0037666460 0 0
-0.0030714710 -0.0044808740 0 0
-0.0027379630 -0.0049621970 0 0
-0.0021795010 -0.0051459570 0 0
-0.0014081400 -0.0050019490 0 0
-0.0004698360 -0.0045381800 0 0
0.0005656730 -0.0037992060 0 0
0.0016191040 -0.0028599310 0 0
0.0026163190 -0.0018168740 0 0
0.0034992830 -0.0007780600 0 0
0.0042311320 0.0001486110 0 0
0.0047968420 0.0008679230 0 0
0.0052003300 0.0013086550 0 0
0.0054573690 0.0014313290 0 0
0.0055870250 0.0012314830 0 0
0.0056071230 0.0007389000 0 0
0.0055359580 0.0000137899 0 0
0.0053969170 -0.0008591050 0 0
0.0052213410 -0.0017786040 0 0
0.0050483110 -0.0026383740 0 0
0.0049223730 -0.0033408290 0 0
0.0048894060 -0.0038103750 0 0
0.0049903050 -0.0040022160 0 0
0.0052532980 -0.0039052320 0 0
0.0056874740 -0.0035399270 0 0
0.0062808750 -0.0029538390 0 0
0.0070046150 -0.0022168040 0 0
0.0078208740 -0.0014167590 0 0
0.0086902430 -0.0006545240 0 0
0.0095754760 -0.0000357790 0 0
0.0104427220 0.0003402240 0 0
0.0112625300 0.0003938800 0 0
0.0120103200 0.0000775411 0 0
0.0126651440 -0.0006166910 0 0
0.0132085390 -0.0016566820 0 0
0.0136276980 -0.0029772820 0 0
0.0139236660 -0.0044903210 0 0
0.0141184010 -0.0060927580 0 0
0.0142525560 -0.0076715240 0 0
0.0143720370 -0.0091074090 0 0
0.0145103380 -0.0102818780 0 0
0.0146769500 -0.0110888030 0 0
0.0148558720 -0.0114492890 0 0
0.0150099760 -0.0113256540 0 0
0.0150866990 -0.0107305870 0 0
0.0150263490 -0.0097284880 0 0
0.0147757990 -0.0084286190 0 0
0.0143048180 -0.0069726890 0 0
0.0136170530 -0.0055197240 0 0
0.0127495700 -0.0042292910 0 0
0.0117617340 -0.0032442040 0 0
0.0107189920 -0.0026752110 0 0
0.0096773580 -0.0025897790 0 0
0.0086732510 -0.0030054790 0 0
0.0077226740 -0.0038880110 0 0
0.0068298500 -0.0051544320 0 0
0.0059978970 -0.0066821540 0 0
0.0052329090 -0.0083230930 0 0
0.0045420200 -0.0099207320 0 0
0.0039330270 -0.0113268720 0 0
0.0034188790 -0.0124150280 0 0
0.0030225690 -0.0130895980 0 0
0.0027753520 -0.0132922630 0 0
0.0027054880 -0.0130070610 0 0
0.0028232590 -0.0122631900 0 0
0.0031125900 -0.0111329150 0 0
0.0035334980 -0.0097231670 0 0
0.0040299750 -0.0081627120 0 0
0.0045366060 -0.0065884200 0 0
0.0049833650 -0.0051329660 0 0
0.0053014960 -0.0039146200 0 0
0.0054315320 -0.0030282270 0 0
0.0053319450 -0.0025362010 0 0
0.0049865600 -0.0024607950 0 0
0.0044084240 -0.0027814520 0 0
0.0036381190 -0.0034391390 0 0
0.0027373800 -0.0043448930 0 0
0.0017810830 -0.0053884800 0 0
0.0008489860 -0.0064468100 0 0
0.0000164642 -0.0073946940 0 0
-0.0006549900 -0.0081182650 0 0
-0.0011250350 -0.0085279140 0 0
-0.0013794280 -0.0085677200 0 0
-0.0014334940 -0.0082204040 0 0
-0.0013306470 -0.0075079480 0 0
-0.0011311800 -0.0064885120 0 0
-0.0008935100 -0.0052508060 0 0
-0.0006574380 -0.0039067830 0 0
-0.0004385020 -0.0025822720 0 0
-0.0002347350 -0.0014049970 0 0
-0.0000395484 -0.0004911780 0 0
0.0001476190 0.0000666659 0 0
0.0003181700 0.0002084390 0 0
0.0004588330 -0.0000889161 0 0
0.0005599640 -0.0008102180 0 0
0.0006227190 -0.0019032290 0 0
0.0006610680 -0.0032820040 0 0
0.0006982820 -0.0048329970 0 0
0.0007616470 -0.0064240530 0 0
0.0008777790 -0.0079153570 0 0
0.0010672350 -0.0091714160 0 0
0.0013396250 -0.0100740110 0 0
0.0016944160 -0.0105355820 0 0
0.0021279380 -0.0105104430 0 0
0.0026385150 -0.0100005900 0 0
0.0032223080 -0.0090550510 0 0
0.0038620310 -0.0077638920 0 0
0.0045182450 -0.0062482320 0 0
0.0051310440 -0.0046473760 0 0
0.0056317030 -0.0031048680 0 0
0.0059588260 -0.0017557560 0 0
0.0060732670 -0.0007165430 0 0
0.0059655730 -0.0000772987 0 0
0.0056519680 0.0001058120 0 0
0.0051631790 -0.0001819640 0 0
0.0045357980 -0.0009087060 0 0
0.0038105150 -0.0019959720 0 0
0.0030331430 -0.0033262090 0 0
0.0022531030 -0.0047569680 0 0
0.0015191450 -0.0061385960 0 0
0.0008758040 -0.0073308830 0 0
0.0003620070 -0.0082162740 0 0
0.0000097231 -0.0087099700 0 0
-0.0001583150 -0.0087671390 0 0
-0.0001299990 -0.0083867620 0 0
0.0000961414 -0.0076118280 0 0
0.0005108170 -0.0065254930 0 0
0.0010935660 -0.0052427260 0 0
0.0018130570 -0.0038979650 0 0
0.0026276570 -0.0026304930 0 0
0.0034847210 -0.0015695490 0 0
0.0043198290 -0.0008205630 0 0
0.0050608840 -0.0004534040 0 0
0.0056403300 -0.0004939650 0 0
0.0060118610 -0.0009207120 0 0
0.0061629870 -0.0016671490 0 0
0.0061161300 -0.0026303790 0 0
0.0059183490 -0.0036846400 0 0
0.0056276710 -0.0046971990 0 0
0.0053037350 -0.0055438360 0 0
0.0050031250 -0.0061219950 0 0
0.0047758300 -0.0063601520 0 0
0.0046615700 -0.0062230710 0 0
0.0046869920 -0.0057140450 0 0
0.0048638040 -0.0048742990 0 0
0.0051866860 -0.0037777830 0 0
0.0056309340 -0.0025207040 0 0
0.0061524150 -0.0012088890 0 0
0.0066929080 0.0000527058 0 0
0.0071907360 0.0011668800 0 0
0.0075931210 0.0020491770 0 0
0.0078651620 0.0026329340 0 0
0.0079914250 0.0028742860 0 0
0.0079713810 0.0027557170 0 0
0.0078148090 0.0022874260 0 0
0.0075408160 0.0015070330 0 0
0.0071780550 0.0004781210 0 0
0.0067627490 -0.0007126020 0 0
0.0063348470 -0.0019600930 0 0
0.0059340660 -0.0031487910 0 0
0.0055966200 -0.0041641440 0 0
0.0053537600 -0.0049061550 0 0
0.0052327790 -0.0053015350 0 0
0.0052577390 -0.0053123470 0 0
0.0054460410 -0.0049408540 0 0
0.0058012840 -0.0042306650 0 0
0.0063083520 -0.0032635910 0 0
0.0069359530 -0.0021508920 0 0
0.0076443730 -0.0010186370 0 0
0.0083905030 0.0000099273 0 0
0.0091262290 0.0008298320 0 0
0.0097957650 0.0013637380 0 0
0.0103390300 0.0015654660 0 0
0.0107000930 0.0014207990 0 0
0.0108355880 0.0009473730 0 0
0.0107214720 0.0001928700 0 0
0.0103586450 -0.0007695820 0 0
0.0097761080 -0.0018484670 0 0
0.0090292920 -0.0029421100 0 0
0.0081927480 -0.0039471240 0 0
0.0073490460 -0.0047672550 0 0
0.0065775020 -0.0053224740 0 0
0.0059455040 -0.0055567980 0 0
0.0055017640 -0.0054432660 0 0
0.0052691910 -0.0049861750 0 0
0.0052382050 -0.0042217380 0 0
0.0053664170 -0.0032171280 0 0
0.0055900950 -0.0020661580 0 0
0.0058434400 -0.0008803780 0 0
0.0060733890 0.0002231640 0 0
0.0062422980 0.0011346090 0 0
0.0063230160 0.0017619430 0 0
0.0062949590 0.0020386710 0 0
0.0061448530 0.0019289390 0 0
0.0058709190 0.0014306290 0 0
0.0054868410 0.0005756830 0 0
0.0050213840 -0.0005728880 0 0
0.0045129660 -0.0019256880 0 0
0.0040028840 -0.0033720620 0 0
0.0035310850 -0.0047875510 0 0
0.0031345060 -0.0060458940 0 0
0.0028454900 -0.0070338770 0 0
0.0026887230 -0.0076646290 0 0
0.0026779130 -0.0078863320 0 0
0.0028146800 -0.0076863190 0 0
0.0030898500 -0.0070918880 0 0
0.0034850510 -0.0061681220 0 0
0.0039737090 -0.0050115190 0 0
0.0045212920 -0.0037393110 0 0
0.0050835700 -0.0024771750 0 0
0.0056038150 -0.0013482120 0 0
0.0060139790 -0.0004631260 0 0
0.0062430580 0.0000898810 0 0
0.0062293610 0.0002550930 0 0
0.0059318160 0.0000165403 0 0
0.0053387600 -0.0005995170 0 0
0.0044735130 -0.0015267050 0 0
0.0033946950 -0.0026643700 0 0
0.0021905840 -0.0038876400 0 0
0.0009694230 -0.0050620690 0 0
-0.0001522760 -0.0060605240 0 0
-0.0010634060 -0.0067782320 0 0
-0.0016746550 -0.0071433820 0 0
-0.0019351310 -0.0071228260 0 0
-0.0018424960 -0.0067233280 0 0
-0.0014400170 -0.0059886300 0 0
-0.0008002380 -0.0049929250 0 0
-0.0000036040 -0.0038322540 0 0
0.0008759770 -0.0026152040 0 0
0.0017727610 -0.0014534460 0 0
0.0026231610 -0.0004529060 0 0
0.0033636020 0.0002941020 0 0
0.0039394280 0.0007168550 0 0
0.0043205910 0.0007746370 0 0
0.0045121160 0.0004633530 0 0
0.0045506210 -0.0001824110 0 0
0.0044885900 -0.0010931680 0 0
0.0043762570 -0.0021736480 0 0
0.0042504240 -0.0033151220 0 0
0.0041317390 -0.0044081640 0 0
0.0040261250 -0.0053539260 0 0
0.0039271350 -0.0060729120 0 0
0.0038198220 -0.0065107950 0 0
0.0036881460 -0.0066412200 0 0
0.0035252730 -0.0064658750 0 0
0.0033413210 -0.0060127910 0 0
0.0031630810 -0.0053345130 0 0
0.0030260860 -0.0045070470 0 0
0.0029634950 -0.0036280870 0 0
0.0029957410 -0.0028113800 0 0
0.0031233800 -0.0021760340 0 0
0.0033246750 -0.0018327030 0 0
0.0035584580 -0.0018691900 0 0
0.0037723030 -0.0023369800 0 0
0.0039152970 -0.0032407540 0 0
0.0039522710 -0.0045340420 0 0
0.0038741310 -0.0061237760 0 0
0.0037002510 -0.0078835180 0 0
0.0034738390 -0.0096709440 0 0
0.0032539810 -0.0113440960 0 0
0.0031060650 -0.0127738480 0 0
0.0030904570 -0.0138533360 0 0
0.0032502430 -0.0145060790 0 0
0.0036006670 -0.0146929410 0 0
0.0041237670 -0.0144157760 0 0
0.0047697680 -0.0137164230 0 0
0.0054635780 -0.0126721720 0 0
0.0061150060 -0.0113892490 0 0
0.0066332090 -0.0099942490 0 0
0.0069440600 -0.0086229020 0 0
0.0070043500 -0.0074066780 0 0
0.0068065290 -0.0064592060 0 0
0.0063740840 -0.0058648140 0 0
0.0057527190 -0.0056710250 0 0
0.0050010440 -0.0058857460 0 0
0.0041821770 -0.0064781520 0 0
0.0033578920 -0.0073811920 0 0
0.0025861390 -0.0084949220 0 0
0.0019203980 -0.0096922310 0 0
0.0014083830 -0.0108294360 0 0
0.0010882830 -0.0117628350 0 0
0.0009825540 -0.0123689480 0 0
0.0010914080 -0.0125630070 0 0
0.0013891010 -0.0123103170 0 0
0.0018256270 -0.0116285100 0 0
0.0023348360 -0.0105824140 0 0
0.0028472270 -0.0092742680 0 0
0.0033028480 -0.0078308430 0 0
0.0036591290 -0.0063892560 0 0
0.0038919230 -0.0050840950 0 0
0.0039935550 -0.0040373320 0 0
0.0039728470 -0.0033499830 0 0
0.0038563630 -0.0030939780 0 0
0.0036844040 -0.0033041250 0 0
0.0034978830 -0.0039717270 0 0
0.0033212730 -0.0050427610 0 0
0.0031530780 -0.0064234240 0 0
0.0029714810 -0.0079921840 0 0
0.0027513360 -0.0096138160 0 0
0.0024813740 -0.0111521450 0 0
0.0021727760 -0.0124817490 0 0
0.0018563790 -0.0134991800 0 0
0.0015721930 -0.0141323260 0 0
0.0013590990 -0.0143463600 0 0
0.0012495490 -0.0141460720 0 0
0.0012672250 -0.0135750770 0 0
0.0014239690 -0.0127123030 0 0
0.0017155040 -0.0116659970 0 0
0.0021179310 -0.0105648120 0 0
0.0025875360 -0.0095450870 0 0
0.0030660830 -0.0087347400 0 0
0.0034913990 -0.0082368120 0 0
0.0038093260 -0.0081164260 0 0
0.0039821990 -0.0083932330 0 0
0.0039925130 -0.0090394680 0 0
0.0038442690 -0.0099834280 0 0
0.0035645320 -0.0111183980 0 0
0.0032045570 -0.0123155310 0 0
0.0028369820 -0.0134378710 0 0
0.0025469200 -0.0143540120 0 0
0.0024189270 -0.0149516450 0 0
0.0025232510 -0.0151506430 0 0
0.0029034280 -0.0149138870 0 0
0.0035678700 -0.0142534720 0 0
0.0044880810 -0.0132301360 0 0
0.0056021480 -0.0119451870 0 0
0.0068203380 -0.0105265150 0 0
0.0080333340 -0.0091117790 0 0
0.0091251400 -0.0078319310 0 0
0.0099888770 -0.0067979250 0 0
0.0105408610 -0.0060923750 0 0
0.0107304340 -0.0057662060 0 0
0.0105461380 -0.0058388120 0 0
0.0100190280 -0.0062992150 0 0
0.0092217520 -0.0071065480 0 0
0.0082605410 -0.0081910670 0 0
0.0072596830 -0.0094583590 0 0
0.0063430660 -0.0107978070 0 0
0.0056182770 -0.0120939890 0 0
0.0051647060 -0.0132385830 0 0
0.0050245400 -0.0141404770 0 0
0.0051973970 -0.0147325290 0 0
0.0056419570 -0.0149746070 0 0
0.0062870620 -0.0148542440 0 0
0.0070494560 -0.0143869430 0 0
0.0078500100 -0.0136169580 0 0
0.0086217260 -0.0126172540 0 0
0.0093106940 -0.0114863820 0 0
0.0098767470 -0.0103407100 0 0
0.0102975130 -0.0093022730 0 0
0.0105719130 -0.0084845340 0 0
0.0107156770 -0.0079787470 0 0
0.0107471380 -0.0078424510 0 0
0.0106714640 -0.0080912760 0 0
0.0104749110 -0.0086962680 0 0
0.0101335730 -0.0095884670 0 0
0.0096306190 -0.0106696630 0 0
0.0089713030 -0.0118261040 0 0
0.0081889110 -0.0129420770 0 0
0.0073417890 -0.0139115100 0 0
0.0065042070 -0.0146468480 0 0
0.0057528420 -0.0150853310 0 0
0.0051516750 -0.0151927840 0 0
0.0047409990 -0.0149646210 0 0
0.0045350020 -0.0144240840 0 0
0.0045264280 -0.0136180690 0 0
0.0046921680 -0.0126109350 0 0
0.0049942780 -0.0114773810 0 0
0.0053760650 -0.0102966110 0 0
0.0057590720 -0.0091494750 0 0
0.0060479250 -0.0081178070 0 0
0.0061450470 -0.0072830450 0 0
0.0059708800 -0.0067213580 0 0
0.0054812010 -0.0064944740 0 0
0.0046756500 -0.0066384430 0 0
0.0035987040 -0.0071548210 0 0
0.0023357550 -0.0080079520 0 0
0.0010023550 -0.0091287480 0 0
-0.0002755710 -0.0104228360 0 0
-0.0013860540 -0.0117805810 0 0
-0.0022501910 -0.0130870510 0 0
-0.0028287460 -0.0142308970 0 0
-0.0031163270 -0.0151122230 0 0
-0.0031291210 -0.0156497960 0 0
-0.0028941000 -0.0157874050 0 0
-0.0024450330 -0.0154993530 0 0
-0.0018248470 -0.0147955320 0 0
-0.0010894530 -0.0137256160 0 0
-0.0003081680 -0.0123803310 0 0
0.0004412260 -0.0108873620 0 0
0.0010817350 -0.0094006590 0 0
0.0015483570 -0.0080832680 0 0
0.0017988080 -0.0070859220 0 0
0.0018205010 -0.0065258500 0 0
0.0016308330 -0.0064700740 0 0
0.0012716230 -0.0069255380 0 0
0.0008015240 -0.0078375260 0 0
0.0002891880 -0.0090970390 0 0
-0.0001929380 -0.0105561900 0 0
-0.0005758800 -0.0120489710 0 0
-0.0008034390 -0.0134132280 0 0
-0.0008414350 -0.0145095080 0 0
-0.0006828190 -0.0152342340 0 0
-0.0003473090 -0.0155269430 0 0
0.0001221860 -0.0153728730 0 0
0.0006656450 -0.0148021370 0 0
0.0012157660 -0.0138855080 0 0
0.0017093930 -0.0127261420 0 0
0.0020949470 -0.0114478290 0 0
0.0023336740 -0.0101817810 0 0
0.0023987440 -0.0090536340 0 0
0.0022774980 -0.0081719780 0 0
0.0019775760 -0.0076195690 0 0
0.0015321050 -0.0074470080 0 0
0.0009980480 -0.0076679850 0 0
0.0004461380 -0.0082563480 0 0
-0.0000534561 -0.0091461900 0 0
-0.0004418060 -0.0102356040 0 0
-0.0006714780 -0.0113943090 0 0
-0.0006992050 -0.0124761070 0 0
-0.0004837080 -0.0133370330 0 0
0.0000029055 -0.0138569180 0 0
0.0007570520 -0.0139588920 0 0
0.0017327630 -0.0136216110 0 0
0.0028442060 -0.0128810680 0 0
0.0039791530 -0.0118214540 0 0
0.0050195820 -0.0105581310 0 0
0.0058643690 -0.0092191010 0 0
0.0064447470 -0.0079305680 0 0
0.0067255960 -0.0068075930 0 0
0.0066970380 -0.0059473690 0 0
0.0063685260 -0.0054230460 0 0
0.0057719090 -0.0052779220 0 0
0.0049675580 -0.0055213330 0 0
0.0040428140 -0.0061279420 0 0
0.0030989020 -0.0070411450 0 0
0.0022311400 -0.0081798640 0 0
0.0015097210 -0.0094474260 0 0
0.0009681070 -0.0107407410 0 0
0.0006052120 -0.0119581100 0 0
0.0004006670 -0.0130058200 0 0
0.0003331430 -0.0138050770 0 0
0.0003909730 -0.0142995280 0 0
0.0005715200 -0.0144612810 0 0
0.0008725350 -0.0142934250 0 0
0.0012821880 -0.0138288830 0 0
0.0017737580 -0.0131262570 0 0
0.0023064220 -0.0122630780 0 0
0.0028308660 -0.0113275860 0 0
0.0032983990 -0.0104110490 0 0
0.0036703850 -0.0096014650 0 0
0.0039231860 -0.0089775220 0 0
0.0040466190 -0.0086020650 0 0
0.0040390890 -0.0085161810 0 0
0.0039045400 -0.0087356140 0 0
0.0036535950 -0.0092497030 0 0
0.0033062020 -0.0100217340 0 0
0.0028912260 -0.0109902240 0 0
0.0024426670 -0.0120720680 0 0
0.0019965820 -0.0131682580 0 0
0.0015901020 -0.0141713140 0 0
0.0012586700 -0.0149732800 0 0
0.0010288540 -0.0154748400 0 0
0.0009101710 -0.0155969860 0 0
0.0008914340 -0.0152943150 0 0
0.0009429610 -0.0145660450 0 0
0.0010220870 -0.0134606790 0 0
0.0010801590 -0.0120724680 0 0
0.0010707360 -0.0105306280 0 0
0.0009571500 -0.0089838760 0 0
0.0007158830 -0.0075828080 0 0
0.0003353390 -0.0064622820 0 0
-0.0001852880 -0.0057263130 0 0
-0.0008319670 -0.0054375970 0 0
-0.0015665040 -0.0056122740 0 0
-0.0023171870 -0.0062188120 0 0
-0.0029772770 -0.0071797970 0 0
-0.0034188600 -0.0083778360 0 0
-0.0035227360 -0.0096681910 0 0
-0.0032120860 -0.0108978260 0 0
-0.0024723600 -0.0119261050 0 0
-0.0013503560 -0.0126414600 0 0
0.0000610793 -0.0129710930 0 0
0.0016435500 -0.0128842680 0 0
0.0032729610 -0.0123914670 0 0
0.0048345500 -0.0115412200 0 0
0.0062306390 -0.0104151590 0 0
0.0073830920 -0.0091208390 0 0
0.0082342520 -0.0077816690 0 0
0.0087468350 -0.0065246300 0 0
0.0089016050 -0.0054677260 0 0
0.0086943160 -0.0047090710 0 0
0.0081351910 -0.0043189470 0 0
0.0072520310 -0.0043352960 0 0
0.0060948790 -0.0047620720 0 0
0.0047385880 -0.0055696580 0 0
0.0032798630 -0.0066968550 0 0
0.0018275420 -0.0080544170 0 0
0.0004885610 -0.0095305570 0 0
-0.0006455160 -0.0109988950 0 0
-0.0015077430 -0.0123290210 0 0
-0.0020596890 -0.0133991010 0 0
-0.0022900860 -0.0141090710 0 0
-0.0022098810 -0.0143925530 0 0
-0.0018475410 -0.0142253990 0 0
-0.0012478260 -0.0136290000 0 0
-0.0004727580 -0.0126678370 0 0
0.0003993220 -0.0114420900 0 0
0.0012785940 -0.0100762940 0 0
0.0020717160 -0.0087049830 0 0
0.0026914580 -0.0074569870 0 0
0.0030658120 -0.0064410060 0 0
0.0031446070 -0.0057347080 0 0
0.0029049370 -0.0053781890 0 0
0.0023581170 -0.0053718270 0 0
0.0015564150 -0.0056783290 0 0
0.0005933950 -0.0062282300 0 0
-0.0004067830 -0.0069279650 0 0
-0.0013097290 -0.0076704170 0 0
-0.0019941690 -0.0083476810 0 0
-0.0023707560 -0.0088639110 0 0
-0.0023924100 -0.0091453800 0 0
-0.0020556590 -0.0091460940 0 0
-0.0013934120 -0.0088488960 0 0
-0.0004608880 -0.0082626320 0 0
0.0006799720 -0.0074169350 0 0
0.0019701220 -0.0063580120 0 0
0.0033529610 -0.0051484090 0 0
0.0047669880 -0.0038700590 0 0
0.0061394960 -0.0026263430 0 0
0.0073874330 -0.0015379880 0 0
0.0084258180 -0.0007299150 0 0
0.0091800760 -0.0003108030 0 0
0.0095987160 -0.0003517100 0 0
0.0096645150 -0.0008712770 0 0
0.0094021470 -0.0018318940 0 0
0.0088778230 -0.0031461920 0 0
0.0081873540 -0.0046903590 0 0
0.0074349040 -0.0063208280 0 0
0.0067107480 -0.0078918800 0 0
0.0060775400 -0.0092721960 0 0
0.0055688050 -0.0103584270 0 0
0.0051945820 -0.0110841820 0 0
0.0049471230 -0.0114235150 0 0
0.0048054330 -0.0113892590 0 0
0.0047408240 -0.0110277600 0 0
0.0047226190 -0.0104117420 0 0
0.0047212620 -0.0096322940 0 0
0.0047086210 -0.0087907420 0 0
0.0046569240 -0.0079910120 0 0
0.0045373730 -0.0073325170 0 0
0.0043201930 -0.0069030490 0 0
0.0039794960 -0.0067709460 0 0
0.0035039730 -0.0069766640 0 0
0.0029069610 -0.0075256860 0 0
0.0022262460 -0.0083850330 0 0
0.0015125910 -0.0094845050 0 0
0.0008167630 -0.0107224960 0 0
0.0001836640 -0.0119752570 0 0
-0.0003474160 -0.0131086500 0 0
-0.0007424630 -0.0139925750 0 0
-0.0009761980 -0.0145179830 0 0
-0.0010376910 -0.0146139610 0 0
-0.0009327340 -0.0142600340 0 0
-0.0006803590 -0.0134895830 0 0
-0.0003061160 -0.0123837880 0 0
0.0001649620 -0.0110580520 0 0
0.0007137700 -0.0096439670 0 0
0.0013274150 -0.0082716710 0 0
0.0019925050 -0.0070575940 0 0
0.0026869960 -0.0060982640 0 0
0.0033797880 -0.0054664140 0 0
0.0040392080 -0.0052062640 0 0
0.0046407670 -0.0053286510 0 0
0.0051658020 -0.0058084220 0 0
0.0055933800 -0.0065858500 0 0
0.0058934820 -0.0075729960 0 0
0.0060273620 -0.0086644540 0 0
0.0059568840 -0.0097498400 0 0
0.0056597710 -0.0107250740 0 0
0.0051436500 -0.0115014510 0 0
0.0044519160 -0.0120128320 0 0
0.0036583310 -0.0122211640 0 0
0.0028529100 -0.0121198250 0 0
0.0021259160 -0.0117337080 0 0
0.0015556150 -0.0111157430 0 0
0.0012006250 -0.0103409370 0 0
0.0010943930 -0.0094987670 0 0
0.0012402030 -0.0086838910 0 0
0.0016086280 -0.0079856090 0 0
0.0021413650 -0.0074776420 0 0
0.0027634500 -0.0072102440 0 0
0.0034008360 -0.0072058590 0 0
0.0039961410 -0.0074584330 0 0
0.0045167700 -0.0079362690 0 0
0.0049553170 -0.0085879840 0 0
0.0053250430 -0.0093500740 0 0
0.0056520440 -0.0101545270 0 0
0.0059656920 -0.0109356900 0 0
0.0062900250 -0.0116355030 0 0
0.0066377560 -0.0122060740 0 0
0.0070071320 -0.0126096030 0 0
0.0073824560 -0.0128172200 0 0
0.0077389910 -0.0128088540 0 0
0.0080505070 -0.0125752220 0 0
0.0082961070 -0.0121216220 0 0
0.0084645110 -0.0114720530 0 0
0.0085555560 -0.0106714020 0 0
0.0085778030 -0.0097840530 0 0
0.0085413010 -0.0088891800 0 0
0.0084489690 -0.0080739090 0 0
0.0082935820 -0.0074251060 0 0
0.0080641390 -0.0070204670 0 0
0.0077582390 -0.0069194930 0 0
0.0073916460 -0.0071541040 0 0
0.0069961850 -0.0077191080 0 0
0.0066058790 -0.0085652270 0 0
0.0062423340 -0.0095993050 0 0
0.0059101470 -0.0106945970 0 0
0.0056028000 -0.0117090730 0 0
0.0053118590 -0.0125062380 0 0
0.0050321300 -0.0129734400 0 0
0.0047597770 -0.0130347240 0 0
0.0044868670 -0.0126570670 0 0
0.0041987520 -0.0118505990 0 0
0.0038767170 -0.0106650230 0 0
0.0035032540 -0.0091846460 0 0
0.0030669360 -0.0075225080 0 0
0.0025656450 -0.0058118040 0 0
0.0020075910 -0.0041927660 0 0
0.0014096650 -0.0027963380 0 0
0.0007938160 -0.0017291470 0 0
0.0001834840 -0.0010637620 0 0
-0.0003984740 -0.0008350120 0 0
-0.0009301380 -0.0010402000 0 0
-0.0013891290 -0.0016407710 0 0
-0.0017505740 -0.0025651260 0 0
-0.0019872270 -0.0037138860 0 0
-0.0020734130 -0.0049683290 0 0
-0.0019911750 -0.0062013570 0 0
-0.0017349410 -0.0072897380 0 0
-0.0013122250 -0.0081263200 0 0
-0.0007409300 -0.0086310200 0 0
-0.0000454466 -0.0087589760 0 0
0.0007462990 -0.0085045950 0 0
0.0016028830 -0.0079016230 0 0
0.0024866250 -0.0070202510 0 0
0.0033516020 -0.0059615660 0 0
0.0041456130 -0.0048487370 0 0
0.0048158700 -0.0038144610 0 0
0.0053177090 -0.0029856700 0 0
0.0056257550 -0.0024682150 0 0
0.0057436720 -0.0023348840 0 0
0.0057060860 -0.0026187510 0 0
0.0055694640 -0.0033111910 0 0
0.0053955730 -0.0043628940 0 0
0.0052357910 -0.0056878160 0 0
0.0051231660 -0.0071707340 0 0
0.0050728750 -0.0086776370 0 0
0.0050874110 -0.0100675710 0 0
0.0051634780 -0.0112058030 0 0
0.0052986430 -0.0119781930 0 0
0.0054944730 -0.0123046590 0 0
0.0057537750 -0.0121485550 0 0
0.0060742620 -0.0115199780 0 0
0.0064436350 -0.0104730730 0 0
0.0068389750 -0.0090984800 0 0
0.0072298790 -0.0075124270 0 0
0.0075827010 -0.0058440090 0 0
0.0078634880 -0.0042221230 0 0
0.0080396460 -0.0027635760 0 0
0.0080823700 -0.0015636920 0 0
0.0079705900 -0.0006897630 0 0
0.0076948840 -0.0001770780 0 0
0.0072599090 -0.0000273030 0 0
0.0066853890 -0.0002087850 0 0
0.0060060890 -0.0006589900 0 0
0.0052714610 -0.0012902830 0 0
0.0045455260 -0.0019996350 0 0
0.0039041370 -0.0026811250 0 0
0.0034239360 -0.0032388840 0 0
0.0031633970 -0.0035978440 0 0
0.0031465090 -0.0037105640 0 0
0.0033595410 -0.0035600650 0 0
0.0037609330 -0.0031594580 0 0
0.0042954270 -0.0025493750 0 0
0.0049038590 -0.0017943350 0 0
0.0055272820 -0.0009782120 0 0
0.0061094880 -0.0001971410 0 0
0.0066003170 0.0004512730 0 0
0.0069585580 0.0008803600 0 0
0.0071528690 0.0010245050 0 0
0.0071608450 0.0008446950 0 0
0.0069681790 0.0003303450 0 0
0.0065697700 -0.0004999870 0 0
0.0059728540 -0.0015976890 0 0
0.0052012950 -0.0028847290 0 0
0.0042995840 -0.0042583800 0 0
0.0033329200 -0.0056008560 0 0
0.0023796890 -0.0067924530 0 0
0.0015178670 -0.0077253770 0 0
0.0008118210 -0.0083152980 0 0
0.0003053350 -0.0085091090 0 0
0.0000209167 -0.0082891640 0 0
-0.0000400042 -0.0076749690 0 0
0.0001010580 -0.0067224400 0 0
0.0004000980 -0.0055192550 0 0
0.0007984100 -0.0041753790 0 0
0.0012357840 -0.0028110490 0 0
0.0016620320 -0.0015457020 0 0
0.0020417170 -0.0004888810 0 0
0.0023541550 0.0002676550 0 0
0.0025947650 0.0006568700 0 0
0.0027783790 0.0006424460 0 0
0.0029380820 0.0002240830 0 0
0.0031159440 -0.0005587460 0 0
0.0033503630 -0.0016266500 0 0
0.0036666820 -0.0028653830 0 0
0.0040731630 -0.0041369770 0 0
0.0045618660 -0.0052969700 0 0
0.0051141980 -0.0062147840 0 0
0.0057095820 -0.0067915230 0 0
0.0063334950 -0.0069709410 0 0
0.0069807990 -0.0067430050 0 0
0.0076520200 -0.0061412600 0 0
0.0083442090 -0.0052354600 0 0
0.0090430100 -0.0041213200 0 0
0.0097224900 -0.0029092000 0 0
0.0103517340 -0.0017131420 0 0
0.0109007680 -0.0006412860 0 0
0.0113404880 0.0002119950 0 0
0.0116383220 0.0007724910 0 0
0.0117559060 0.0009912760 0 0
0.0116533140 0.0008487190 0 0
0.0112989880 0.0003575750 0 0
0.0106813550 -0.0004355590 0 0
0.0098187410 -0.0014520400 0 0
0.0087662740 -0.0025873700 0 0
0.0076186760 -0.0037210150 0 0
0.0065047970 -0.0047284700 0 0
0.0055683920 -0.0054946750 0 0
0.0049370300 -0.0059276500 0 0
0.0046919720 -0.0059702150 0 0
0.0048524470 -0.0056073380 0 0
0.0053772200 -0.0048669440 0 0
0.0061781090 -0.0038138230 0 0
0.0071392090 -0.0025391130 0 0
0.0081362420 -0.0011495130 0 0
0.0090527480 0.0002404650 0 0
0.0097942880 0.0015133290 0 0
0.0103020630 0.0025545990 0 0
0.0105604220 0.0032635330 0 0
0.0105897450 0.0035665600 0 0
0.0104265990 0.0034276190 0 0
0.0101044610 0.0028521300 0 0
0.0096462740 0.0018857630 0 0
0.0090707730 0.0006098240 0 0
0.0084071380 -0.0008670070 0 0
0.0077078830 -0.0024207310 0 0
0.0070493160 -0.0039256450 0 0
0.0065162890 -0.0052668580 0 0
0.0061785170 -0.0063502860 0 0
0.0060703790 -0.0071096720 0 0
0.0061828410 -0.0075104150 0 0
0.0064690620 -0.0075500820 0 0
0.0068590120 -0.0072562810 0 0
0.0072765100 -0.0066837930 0 0
0.0076534660 -0.0059121470 0 0
0.0079385800 -0.0050423440 0 0
0.0080999920 -0.0041900810 0 0
0.0081220120 -0.0034743090 0 0
0.0079972540 -0.0030023790 0 0
0.0077186580 -0.0028545600 0 0
0.0072764070 -0.0030712580 0 0
0.0066609980 -0.0036459360 0 0
0.0058702240 -0.0045255340 0 0
0.0049168410 -0.0056180760 0 0
0.0038336840 -0.0068049980 0 0
0.0026730140 -0.0079558370 0 0
0.0014990370 -0.0089439810 0 0
0.0003766240 -0.0096613860 0 0
-0.0006390490 -0.0100293090 0 0
-0.0015086790 -0.0100038240 0 0
-0.0022100330 -0.0095773590 0 0
-0.0027352350 -0.0087778790 0 0
-0.0030865970 -0.0076659430 0 0
-0.0032742580 -0.0063289870 0 0
-0.0033175320 -0.0048726750 0 0
-0.0032468530 -0.0034105340 0 0
-0.0031007280 -0.0020541830 0 0
-0.0029167290 -0.0009058730 0 0
-0.0027220860 -0.0000532289 0 0
-0.0025294610 0.0004358320 0 0
-0.0023373730 0.0005206240 0 0
-0.0021324010 0.0001976100 0 0
-0.0018946990 -0.0004919290 0 0
-0.0016080130 -0.0014624980 0 0
-0.0012680900 -0.0025954690 0 0
-0.0008830530 -0.0037574540 0 0
-0.0004689220 -0.0048200690 0 0
-0.0000472527 -0.0056756440 0 0
0.0003557460 -0.0062460280 0 0
0.0007144750 -0.0064852430 0 0
0.0010134380 -0.0063787390 0 0
0.0012541440 -0.0059410360 0 0
0.0014549360 -0.0052122730 0 0
0.0016442950 -0.0042542160 0 0
0.0018498430 -0.0031461970 0 0
0.0020866090 -0.0019807460 0 0
0.0023494610 -0.0008582820 0 0
0.0026126310 0.0001197650 0 0
0.0028353650 0.0008596200 0 0
0.0029706520 0.0012853390 0 0
0.0029751030 0.0013494820 0 0
0.0028193940 0.0010424340 0 0
0.0024971460 0.0003973630 0 0
0.0020288600 -0.0005122020 0 0
0.0014589370 -0.0015825270 0 0
0.0008467380 -0.0026945180 0 0
0.0002559370 -0.0037285600 0 0
-0.0002534590 -0.0045759380 0 0
-0.0006300010 -0.0051466210 0 0
-0.0008345450 -0.0053752470 0 0
-0.0008430230 -0.0052262170 0 0
-0.0006474760 -0.0046971960 0 0
-0.0002558030 -0.0038204250 0 0
0.0003087300 -0.0026616340 0 0
0.0010073540 -0.0013160180 0 0
0.0017856690 0.0000992880 0 0
0.0025768700 0.0014559110 0 0
0.0033109970 0.0026268510 0 0
0.0039269100 0.0034995120 0 0
0.0043805670 0.0039881720 0 0
0.0046477100 0.0040451490 0 0
0.0047243050 0.0036687680 0 0
0.0046269610 0.0029051040 0 0
0.0043909980 0.0018417540 0 0
0.0040637280 0.0005954600 0 0
0.0036952160 -0.0007020730 0 0
0.0033306020 -0.0019165760 0 0
0.0030050460 -0.0029213140 0 0
0.0027414010 -0.0036071430 0 0
0.0025520820 -0.0038939130 0 0
0.0024438600 -0.0037410070 0 0
0.0024199500 -0.0031534880 0 0
0.0024752210 -0.0021818570 0 0
0.0025871520 -0.0009151830 0 0
0.0027101280 0.0005304940 0 0
0.0027785300 0.0020248390 0 0
0.0027174390 0.0034349370 0 0
0.0024573130 0.0046371770 0 0
0.0019498880 0.0055301730 0 0
0.0011800680 0.0060460620 0 0
0.0001669640 0.0061561470 0 0
-0.0010447050 0.0058694930 0 0
-0.0023929010 0.0052265970 0 0
-0.0038011930 0.0042917720 0 0
-0.0051820140 0.0031467210 0 0
-0.0064459960 0.0018855330 0 0
-0.0075146480 0.0006100770 0 0
-0.0083300790 -0.0005756350 0 0
-0.0088588510 -0.0015733110 0 0
-0.0090903540 -0.0022998870 0 0
-0.0090316440 -0.0026963520 0 0
-0.0087034100 -0.0027344760 0 0
-0.0081412980 -0.0024219610 0 0
-0.0073999690 -0.0018057990 0 0
-0.0065525850 -0.0009715370 0 0
-0.0056825790 -0.0000362413 0 0
-0.0048709960 0.0008646840 0 0
-0.0041846060 0.0015943210 0 0
-0.0036680420 0.0020314610 0 0
-0.0033400900 0.0020858050 0 0
-0.0031931270 0.0017097700 0 0
-0.0031953750 0.0009057060 0 0
-0.0032955300 -0.0002729030 0 0
-0.0034289420 -0.0017273560 0 0
-0.0035257470 -0.0033265110 0 0
-0.0035217440 -0.0049239960 0 0
-0.0033700620 -0.0063756460 0 0
-0.0030485990 -0.0075537630 0 0
-0.0025596310 -0.0083578930 0 0
-0.0019231580 -0.0087233760 0 0
-0.0011696270 -0.0086272620 0 0
-0.0003364900 -0.0080895630 0 0
0.0005317550 -0.0071686580 0 0
0.0013828850 -0.0059525280 0 0
0.0021576190 -0.0045492480 0 0
0.0027929100 -0.0030786190 0 0
0.0032286870 -0.0016638550 0 0
0.0034166610 -0.0004219720 0 0
0.0033284020 0.0005466700 0 0
0.0029609050 0.0011679070 0 0
0.0023375050 0.0014005870 0 0
0.0015023010 0.0012399050 0 0
0.0005119220 0.0007180650 0 0
-0.0005671740 -0.0000967242 0 0
-0.0016537680 -0.0011036530 0 0
-0.0026477860 -0.0021770680 0 0
-0.0034374530 -0.0031792670 0 0
-0.0039191050 -0.0039766010 0 0
-0.0040211050 -0.0044561640 0 0
-0.0037212430 -0.0045404330 0 0
-0.0030511660 -0.0041971290 0 0
-0.0020869260 -0.0034419200 0 0
-0.0009314190 -0.0023339190 0 0
0.0003018530 -0.0009669650 0 0
0.0014989720 0.0005398030 0 0
0.0025535230 0.0020506220 0 0
0.0033781740 0.0034219330 0 0
0.0039192380 0.0045134760 0 0
0.0041670120 0.0052025910 0 0
0.0041563580 0.0054000370 0 0
0.0039572600 0.0050639800 0 0
0.0036572560 0.0042087540 0 0
0.0033399280 0.0029058440 0 0
0.0030678520 0.0012765320 0 0
0.0028770730 -0.0005219610 0 0
0.0027813880 -0.0023145690 0 0
0.0027792950 -0.0039287660 0 0
0.0028589790 -0.0052145520 0 0
0.0030002760 -0.0060608350 0 0
0.0031748630 -0.0064058900 0 0
0.0033486930 -0.0062411920 0 0
0.0034896360 -0.0056092480 0 0
0.0035767400 -0.0045961620 0 0
0.0036046780 -0.0033193970 0 0
0.0035817880 -0.0019121460 0 0
0.0035241320 -0.0005073990 0 0
0.0034476830 0.0007747660 0 0
0.0033610630 0.0018348920 0 0
0.0032621160 0.0025980410 0 0
0.0031396510 0.0030164370 0 0
0.0029795340 0.0030719990 0 0
0.0027734470 0.0027777190 0 0
0.0025268590 0.0021765010 0 0
0.0022621810 0.0013368290 0 0
0.0020165360 0.0003453230 0 0
0.0018361690 -0.0007028800 0 0
0.0017679450 -0.0017140880 0 0
0.0018478820 -0.0026044150 0 0
0.0020898430 -0.0033048910 0 0
0.0024795500 -0.0037630470 0 0
0.0029769100 -0.0039430960 0 0
0.0035252730 -0.0038281380 0 0
0.0040632190 -0.0034255230 0 0
0.0045348680 -0.0027727390 0 0
0.0048970100 -0.0019392150 0 0
0.0051229330 -0.0010208090 0 0
0.0052023780 -0.0001274080 0 0
0.0051368940 0.0006328500 0 0
0.0049331030 0.0011684840 0 0
0.0045985770 0.0014151810 0 0
0.0041418140 0.0013405150 0 0
0.0035744900 0.0009442310 0 0
0.0029143070 0.0002562680 0 0
0.0021869430 -0.0006662160 0 0
0.0014255680 -0.0017425090 0 0
0.0006687950 -0.0028736190 0 0
-0.0000408909 -0.0039497120 0 0
-0.0006584750 -0.0048587620 0 0
-0.0011383760 -0.0054963870 0 0
-0.0014364040 -0.0057778730 0 0
-0.0015123280 -0.0056510940 0 0
-0.0013353610 -0.0051069340 0 0
-0.0008931880 -0.0041843400 0 0
-0.0002030650 -0.0029688160 0 0
0.0006787050 -0.0015845310 0 0
0.0016554860 -0.0001810860 0 0
0.0026020920 0.0010833930 0 0
0.0033872030 0.0020605580 0 0
0.0038982060 0.0026292340 0 0
0.0040604750 0.0027097050 0 0
0.0038469450 0.0022728750 0 0
0.0032785550 0.0013431450 0 0
0.0024193440 -0.0000052290 0 0
0.0013685160 -0.0016575780 0 0
0.0002485200 -0.0034719390 0 0
-0.0008100390 -0.0052931070 0 0
-0.0016833540 -0.0069662140 0 0
-0.0022691170 -0.0083495840 0 0
-0.0025020950 -0.0093265750 0 0
-0.0023658610 -0.0098158880 0 0
-0.0018931050 -0.0097794400 0 0
-0.0011539430 -0.0092262150 0 0
-0.0002394610 -0.0082110000 0 0
0.0007528700 -0.0068287630 0 0
0.0017306140 -0.0052058760 0 0
0.0026161810 -0.0034884410 0 0
0.0033552050 -0.0018283700 0 0
0.0039209940 -0.0003693790 0 0
0.0043122270 0.0007649410 0 0
0.0045441590 0.0014804200 0 0
0.0046372340 0.0017196680 0 0
0.0046089810 0.0014677300 0 0
0.0044730440 0.0007545450 0 0
0.0042436370 -0.0003477570 0 0
0.0039397450 -0.0017329750 0 0
0.0035854440 -0.0032724520 0 0
0.0032079630 -0.0048277550 0 0
0.0028372560 -0.0062632340 0 0
0.0025086270 -0.0074581970 0 0
0.0022660500 -0.0083181330 0 0
0.0021606290 -0.0087837030 0 0
0.0022401860 -0.0088361990 0 0
0.0025340150 -0.0084990440 0 0
0.0030428470 -0.0078354430 0 0
0.0037393580 -0.0069420230 0 0
0.0045751450 -0.0059383060 0 0
0.0054874290 -0.0049529170 0 0
0.0064030360 -0.0041087840 0 0
0.0072417910 -0.0035104500 0 0
0.0079229790 -0.0032358320 0 0
0.0083761580 -0.0033316160 0 0
0.0085534840 -0.0038093980 0 0
0.0084394720 -0.0046419110 0 0
0.0080554530 -0.0057618830 0 0
0.0074576500 -0.0070657550 0 0
0.0067299370 -0.0084221560 0 0
0.0059742790 -0.0096843600 0 0
0.0053012540 -0.0107066540 0 0
0.0048204470 -0.0113637930 0 0
0.0046296670 -0.0115704000 0 0
0.0048020070 -0.0112957270 0 0
0.0053690800 -0.0105697760 0 0
0.0063033000 -0.0094786880 0 0
0.0075100940 -0.0081497420 0 0
0.0088389430 -0.0067293400 0 0
0.0101103080 -0.0053598940 0 0
0.0111479360 -0.0041616880 0 0
0.0118068420 -0.0032229740 0 0
0.0119914900 -0.0025971890 0 0
0.0116634920 -0.0023039470 0 0
0.0108408140 -0.0023318280 0 0
0.0095905700 -0.0026428590 0 0
0.0080179670 -0.0031787990 0 0
0.0062545330 -0.0038686580 0 0
0.0044469220 -0.0046359860 0 0
0.0027440730 -0.0054043840 0 0
0.0012801440 -0.0061012080 0 0
0.0001559400 -0.0066608420 0 0
-0.0005735040 -0.0070288830 0 0
-0.0008998710 -0.0071672800 0 0
-0.0008527990 -0.0070594060 0 0
-0.0004877350 -0.0067139680 0 0
0.0001242290 -0.0061668370 0 0
0.0009027430 -0.0054799710 0 0
0.0017611140 -0.0047367660 0 0
0.0026078770 -0.0040333280 0 0
0.0033509570 -0.0034661480 0 0
0.0039064080 -0.0031190830 0 0
0.0042096490 -0.0030538330 0 0
0.0042260850 -0.0033055950 0 0
0.0039583070 -0.0038816870 0 0
0.0034472310 -0.0047602980 0 0
0.0027667200 -0.0058891610 0 0
0.0020140060 -0.0071861440 0 0
0.0012975580 -0.0085437790 0 0
0.0007228660 -0.0098384720 0 0
0.0003785700 -0.0109436810 0 0
0.0003265090 -0.0117449630 0 0
0.0005968020 -0.0121540330 0 0
0.0011872220 -0.0121192550 0 0
0.0020664180 -0.0116313410 0 0
0.0031798110 -0.0107239970 0 0
0.0044560100 -0.0094696620 0 0
0.0058127300 -0.0079712530 0 0
0.0071630030 -0.0063518510 0 0
0.0084225560 -0.0047441610 0 0
0.0095174380 -0.0032805490 0 0
0.0103890080 -0.0020836730 0 0
0.0109947840 -0.0012573580 0 0
0.0113080480 -0.0008774730 0 0
0.0113190300 -0.0009836120 0 0
0.0110349960 -0.0015734910 0 0
0.0104760730 -0.0026023350 0 0
0.0096706340 -0.0039880260 0 0
0.0086569700 -0.0056200320 0 0
0.0074908540 -0.0073691590 0 0
0.0062505090 -0.0090968840 0 0
0.0050318850 -0.0106651130 0 0
0.0039359380 -0.0119472750 0 0
0.0030551430 -0.0128403170 0 0
0.0024629680 -0.0132759760 0 0
0.0022034360 -0.0132291980 0 0
0.0022785280 -0.0127218170 0 0
0.0026404440 -0.0118208090 0 0
0.0031989420 -0.0106317490 0 0
0.0038434130 -0.0092883420 0 0
0.0044691010 -0.0079385130 0 0
0.0049974060 -0.0067279560 0 0
0.0053851440 -0.0057838270 0 0
0.0056217810 -0.0052024560 0 0
0.0057187940 -0.0050429610 0 0
0.0056991730 -0.0053250000 0 0
0.0055923610 -0.0060278830 0 0
0.0054330300 -0.0070904570 0 0
0.0052588700 -0.0084130800 0 0
0.0051057690 -0.0098638950 0 0
0.0050031460 -0.0112912610 0 0
0.0049724550 -0.0125414100 0 0
0.0050283930 -0.0134777510 0 0
0.0051796450 -0.0139983890 0 0
0.0054266750 -0.0140493060 0 0
0.0057574930 -0.0136309430 0 0
0.0061445980 -0.0127971800 0 0
0.0065450220 -0.0116475600 0 0
0.0069040900 -0.0103143850 0 0
0.0071638580 -0.0089465650 0 0
0.0072757900 -0.0076925040 0 0
0.0072125350 -0.0066841460 0 0
0.0069713320 -0.0060233670 0 0
0.0065673270 -0.0057718500 0 0
0.0060238780 -0.0059461090 0 0
0.0053677630 -0.0065181760 0 0
0.0046307450 -0.0074205350 0 0
0.0038542270 -0.0085535630 0 0
0.0030932370 -0.0097943400 0 0
0.0024164840 -0.0110065100 0 0
0.0019010600 -0.0120515260 0 0
0.0016235090 -0.0128015390 0 0
0.0016495760 -0.0131529800 0 0
0.0020225790 -0.0130386300 0 0
0.0027507840 -0.0124358770 0 0
0.0037981000 -0.0113702350 0 0
0.0050836080 -0.0099144590 0 0
0.0064918690 -0.0081833780 0 0
0.0078914490 -0.0063240890 0 0
0.0091559150 -0.0045017950 0 0
0.0101805720 -0.0028824290 0 0
0.0108916580 -0.0016141210 0 0
0.0112498740 -0.0008102130 0 0
0.0112510640 -0.0005363590 0 0
0.0109243400 -0.0008035620 0 0
0.0103271220 -0.0015684040 0 0
0.0095369720 -0.0027402590 0 0
0.0086399270 -0.0041931130 0 0
0.0077169710 -0.0057787400 0 0
0.0068340600 -0.0073398510 0 0
0.0060396760 -0.0087246020 0 0
0.0053674490 -0.0098028930 0 0
0.0048397080 -0.0104809060 0 0
0.0044716290 -0.0107093170 0 0
0.0042754890 -0.0104842120 0 0
0.0042595510 -0.0098426070 0 0
0.0044179090 -0.0088546110 0 0
0.0047182960 -0.0076141540 0 0
0.0050992840 -0.0062302220 0 0
0.0054794400 -0.0048188310 0 0
0.0057726370 -0.0034946240 0 0
0.0059042550 -0.0023622310 0 0
0.0058249670 -0.0015089350 0 0
0.0055181880 -0.0009992420 0 0
0.0049976410 -0.0008706800 0 0
0.0042960510 -0.0011304370 0 0
0.0034522820 -0.0017528660 0 0
0.0025054400 -0.0026784160 0 0
0.0014982540 -0.0038158430 0 0
0.0004845270 -0.0050494610 0 0
-0.0004676290 -0.0062508530 0 0
-0.0012822630 -0.0072925720 0 0
-0.0018899340 -0.0080613850 0 0
-0.0022424200 -0.0084698300 0 0
-0.0023218430 -0.0084656150 0 0
-0.0021435270 -0.0080377870 0 0
-0.0017540120 -0.0072181150 0 0
-0.0012249130 -0.0060775670 0 0
-0.0006430010 -0.0047195690 0 0
-0.0000975100 -0.0032712020 0 0
0.0003332820 -0.0018721810 0 0
0.0005935260 -0.0006612810 0 0
0.0006564910 0.0002392430 0 0
0.0005244180 0.0007392410 0 0
0.0002217880 0.0007926350 0 0
-0.0002138810 0.0004020120 0 0
-0.0007376010 -0.0003845700 0 0
-0.0012969180 -0.0014810150 0 0
-0.0018305920 -0.0027713670 0 0
-0.0022703290 -0.0041188310 0 0
-0.0025462180 -0.0053779940 0 0
-0.0025960530 -0.0064110290 0 0
-0.0023793650 -0.0071054940 0 0
-0.0018925100 -0.0073894700 0 0
-0.0011749940 -0.0072403490 0 0
-0.0002994080 -0.0066858720 0 0
0.0006508190 -0.0057986260 0 0
0.0016014160 -0.0046857220 0 0
0.0024937190 -0.0034751130 0 0
0.0032794200 -0.0023007250 0 0
0.0039133130 -0.0012888190 0 0
0.0043502430 -0.0005464260 0 0
0.0045462010 -0.0001519080 0 0
0.0044627550 -0.0001484790 0 0
0.0040749740 -0.0005413180 0 0
0.0033812940 -0.0012979270 0 0
0.0024121660 -0.0023514130 0 0
0.0012343770 -0.0036067810 0 0
-0.0000517951 -0.0049496140 0 0
-0.0013242930 -0.0062558740 0 0
-0.0024575470 -0.0074018130 0 0
-0.0033406920 -0.0082738630 0 0
-0.0038899140 -0.0087788840 0 0
-0.0040546700 -0.0088542910 0 0
-0.0038212210 -0.0084766800 0 0
-0.0032152840 -0.0076673490 0 0
-0.0023007770 -0.0064929880 0 0
-0.0011706340 -0.0050601730 0 0
0.0000686537 -0.0035036600 0 0
0.0013138660 -0.0019703200 0 0
0.0024814530 -0.0006023720 0 0
0.0035206540 0.0004766630 0 0
0.0044150100 0.0011721710 0 0
0.0051683710 0.0014253150 0 0
0.0057851860 0.0012164870 0 0
0.0062592870 0.0005650990 0 0
0.0065765690 -0.0004734500 0 0
0.0067276880 -0.0018123930 0 0
0.0067223450 -0.0033393260 0 0
0.0065962600 -0.0049232280 0 0
0.0064078640 -0.0064235410 0 0
0.0062293950 -0.0077021480 0 0
0.0061378660 -0.0086376830 0 0
0.0062070530 -0.0091397580 0 0
0.0064996860 -0.0091605420 0 0
0.0070595460 -0.0087020860 0 0
0.0079030060 -0.0078180670 0 0
0.0090107570 -0.0066090130 0 0
0.0103240670 -0.0052113690 0 0
0.0117499270 -0.0037820620 0 0
0.0131742700 -0.0024805710 0 0
0.0144791530 -0.0014503280 0 0
0.0155608430 -0.0008013630 0 0
0.0163459850 -0.0005969070 0 0
0.0168014440 -0.0008468490 0 0
0.0169351100 -0.0015094430 0 0
0.0167889370 -0.0025003120 0 0
0.0164270610 -0.0037052160 0 0
0.0159217790 -0.0049927790 0 0
0.0153407390 -0.0062264200 0 0
0.0147387690 -0.0072765740 0 0
0.0141557900 -0.0080324020 0 0
0.0136194030 -0.0084110720 0 0
0.0131491100 -0.0083645270 0 0
0.0127588470 -0.0078846470 0 0
0.0124559170 -0.0070059410 0 0
0.0122380390 -0.0058034960 0 0
0.0120925920 -0.0043855030 0 0
0.0119992610 -0.0028818080 0 0
0.0119337350 -0.0014303110 0 0
0.0118708060 -0.0001628020 0 0
0.0117867010 0.0008083750 0 0
0.0116592540 0.0014016020 0 0
0.0114656470 0.0015738690 0 0
0.0111819090 0.0013240760 0 0
0.0107881050 0.0006910980 0 0
0.0102774870 -0.0002528670 0 0
0.0096645330 -0.0014115560 0 0
0.0089873660 -0.0026742570 0 0
0.0083024610 -0.0039249370 0 0
0.0076739880 -0.0050508020 0 0
0.0071630350 -0.0059499950 0 0
0.0068195900 -0.0065384940 0 0
0.0066772560 -0.0067567160 0 0
0.0067516910 -0.0065758900 0 0
0.0070437150 -0.0060039360 0 0
0.0075432680 -0.0050901670 0 0
0.0082278710 -0.0039264710 0 0
0.0090555230 -0.0026415470 0 0
0.0099599450 -0.0013866990 0 0
0.0108541600 -0.0003156520 0 0
0.0116404530 0.0004363030 0 0
0.0122223040 0.0007690410 0 0
0.0125167990 0.0006285470 0 0
0.0124675480 0.0000123999 0 0
0.0120561960 -0.0010305880 0 0
0.0113084390 -0.0024073280 0 0
0.0102914280 -0.0039926440 0 0
0.0091036250 -0.0056439920 0 0
0.0078619040 -0.0072170680 0 0
0.0066909310 -0.0085805430 0 0
0.0057145930 -0.0096272130 0 0
0.0050434370 -0.0102809590 0 0
0.0047549000 -0.0105013820 0 0
0.0048737360 -0.0102866350 0 0
0.0053649250 -0.0096731910 0 0
0.0061429600 -0.0087325090 0 0
0.0070902000 -0.0075655790 0 0
0.0080766520 -0.0062953900 0 0
0.0089800160 -0.0050565250 0 0
0.0097051340 -0.0039815950 0 0
0.0101970260 -0.0031858080 0 0
0.0104414660 -0.0027527800 0 0
0.0104537310 -0.0027255000 0 0
0.0102633000 -0.0031048820 0 0
0.0099035520 -0.0038547300 0 0
0.0094097720 -0.0049088900 0 0
0.0088212850 -0.0061768800 0 0
0.0081812380 -0.0075483320 0 0
0.0075321660 -0.0088995620 0 0
0.0069113580 -0.0101043530 0 0
0.0063501990 -0.0110471950 0 0
0.0058754090 -0.0116359020 0 0
0.0055066760 -0.0118122900 0 0
0.0052503130 -0.0115604260 0 0
0.0050947070 -0.0109106040 0 0
0.0050122630 -0.0099367800 0 0
0.0049670800 -0.0087472530 0 0
0.0049241210 -0.0074708090 0 0
0.0048560360 -0.0062415540 0 0
0.0047456350 -0.0051852420 0 0
0.0045840530 -0.0044088440 0 0
0.0043672290 -0.0039931860 0 0
0.0040944660 -0.0039868000 0 0
0.0037699740 -0.0044002640 0 0
0.0034045280 -0.0052032510 0 0
0.0030146140 -0.0063269850 0 0
0.0026200130 -0.0076715750 0 0
0.0022416830 -0.0091156470 0 0
0.0018991960 -0.0105271430 0 0
0.0016066140 -0.0117752570 0 0
0.0013683160 -0.0127419950 0 0
0.0011779250 -0.0133313110 0 0
0.0010223930 -0.0134760150 0 0
0.0008903830 -0.0131439650 0 0
0.0007804250 -0.0123435270 0 0
0.0007035120 -0.0111260790 0 0
0.0006791160 -0.0095832610 0 0
0.0007283010 -0.0078385460 0 0
0.0008668890 -0.0060346660 0 0
0.0010983950 -0.0043191990 0 0
0.0014069880 -0.0028303260 0 0
0.0017549810 -0.0016840750 0 0
0.0020904150 -0.0009642890 0 0
0.0023635790 -0.0007162890 0 0
0.0025437970 -0.0009441450 0 0
0.0026281330 -0.0016109020 0 0
0.0026401170 -0.0026419130 0 0
0.0026229850 -0.0039316150 0 0
0.0026328200 -0.0053529450 0 0
0.0027316460 -0.0067682430 0 0
0.0029771060 -0.0080416030 0 0
0.0034098420 -0.0090526520 0 0
0.0040449720 -0.0097101100 0 0
0.0048711610 -0.0099627980 0 0
0.0058544410 -0.0098060810 0 0
0.0069431500 -0.0092821700 0 0
0.0080728980 -0.0084739760 0 0
0.0091710010 -0.0074937930 0 0
0.0101610350 -0.0064687670 0 0
0.0109699480 -0.0055249870 0 0
0.0115383410 -0.0047717930 0 0
0.0118309090 -0.0042882320 0 0
0.0118427690 -0.0041147150 0 0
0.0115987580 -0.0042527070 0 0
0.0111459750 -0.0046715910 0 0
0.0105424230 -0.0053174660 0 0
0.0098454180 -0.0061195040 0 0
0.0091037710 -0.0069944680 0 0
0.0083566000 -0.0078520700 0 0
0.0076381080 -0.0086018530 0 0
0.0069846000 -0.0091602940 0 0
0.0064384310 -0.0094568690 0 0
0.0060440160 -0.0094388150 0 0
0.0058360230 -0.0090748270 0 0
0.0058275020 -0.0083578370 0 0
0.0060080760 -0.0073072970 0 0
0.0063549430 -0.0059711120 0 0
0.0068475050 -0.0044257910 0 0
0.0074712740 -0.0027729750 0 0
0.0082054300 -0.0011326040 0 0
0.0090038010 0.0003660160 0 0
0.0097856350 0.0015960720 0 0
0.0104449160 0.0024499030 0 0
0.0108742200 0.0028584260 0 0
0.0109911540 0.0028063820 0 0
0.0107562560 0.0023362620 0 0
0.0101779010 0.0015390710 0 0
0.0093063010 0.0005368570 0 0
0.0082215250 -0.0005353870 0 0
0.0070207320 -0.0015436520 0 0
0.0058065200 -0.0023646180 0 0
0.0046736800 -0.0028940720 0 0
0.0036940370 -0.0030566010 0 0
0.0029066410 -0.0028160270 0 0
0.0023198590 -0.0021832260 0 0
0.0019222770 -0.0012177980 0 0
0.0016935460 -0.0000219563 0 0
0.0016094880 0.0012726630 0 0
0.0016418470 0.0025228520 0 0
0.0017562710 0.0035928120 0 0
0.0019118820 0.0043701220 0 0
0.0020642760 0.0047756050 0 0
0.0021718010 0.0047672060 0 0
0.0022026520 0.0043406150 0 0
0.0021399330 0.0035286800 0 0
0.0019837830 0.0023989120 0 0
0.0017508400 0.0010474250 0 0
0.0014703020 -0.0004106360 0 0
0.0011772010 -0.0018522460 0 0
0.0009066630 -0.0031573950 0 0
0.0006924990 -0.0042187200 0 0
0.0005695230 -0.0049493170 0 0
0.0005752250 -0.0052890390 0 0
0.0007455000 -0.0052100070 0 0
0.0011038900 -0.0047208520 0 0
0.0016508530 -0.0038681870 0 0
0.0023599460 -0.0027343100 0 0
0.0031826620 -0.0014307780 0 0
0.0040607840 -0.0000879301 0 0
0.0049438040 0.0011582160 0 0
0.0058042770 0.0021789940 0 0
0.0066412330 0.0028642230 0 0
0.0074693510 0.0031314790 0 0
0.0083039620 0.0029339040 0 0
0.0091540370 0.0022657580 0 0
0.0100250420 0.0011642820 0 0
0.0109256960 -0.0002927710 0 0
0.0118742330 -0.0019936370 0 0
0.0129022790 -0.0038027630 0 0
0.0140537900 -0.0055746600 0 0
0.0153786190 -0.0071703270 0 0
0.0169248960 -0.0084732060 0 0
0.0187345530 -0.0094012130 0 0
0.0208414750 -0.0099136310 0 0
0.0232684630 -0.0100136220 0 0
0.0260216350 -0.0097468510 0 0
0.0290849180 -0.0091959250 0 0
0.0324168970 -0.0084705630 1 0
0.0359490380 -0.0076947380 1 0
0.0395852630 -0.0069930250 1 0
0.0432075310 -0.0064782510 1 0
0.0466922630 -0.0062418340 1 0
0.0499351700 -0.0063479160 1 0
0.0528739900 -0.0068315910 1 0
0.0554972090 -0.0076997680 1 0
0.0578345230 -0.0089319700 1 0
0.0599373780 -0.0104795700 1 0
0.0618634430 -0.0122649460 1 0
0.0636706540 -0.0141840660 1 0
0.0654166100 -0.0161152340 1 0
0.0671585130 -0.0179337290 1 0
0.0689517010 -0.0195288230 1 0
0.0708449970 -0.0208189390 1 0
0.0728716690 -0.0217622990 1 0
0.0750386960 -0.0223620050 1 0
0.0773205950 -0.0226652690 1 0
0.0796621980 -0.0227572610 1 0
0.0819890970 -0.0227505090 1 0
0.0842213240 -0.0227709530 1 0
0.0862865870 -0.0229419870 1 0
0.0881307370 -0.0233689710 1 0
0.0897242430 -0.0241280670 1 0
0.0910651150 -0.0252614570 1 0
0.0921793820 -0.0267768980 1 0
0.0931183110 -0.0286484910 1 0
0.0939508680 -0.0308180760 1 -1
0.0947534530 -0.0331988510 1 -1
0.0956013270 -0.0356825740 1 -1
0.0965620250 -0.0381500880 1 -1
0.0976879470 -0.0404832060 1 -1
0.0990091100 -0.0425760480 1 -1
0.1005300880 -0.0443451150 1 -1
0.1022318640 -0.0457379270 1 -1
0.1040760670 -0.0467394150 1 -1
0.1060102790 -0.0473747690 1 -1
0.1079749860 -0.0477072150 1 -1
0.1099116020 -0.0478297000 1 -1
0.1117688190 -0.0478520340 1 -1
0.1135049430 -0.0478878670 1 -1
0.1150876120 -0.0480447820 1 -1
0.1164946170 -0.0484168360 1 -1
0.1177164580 -0.0490769340 1 -1
0.1187566020 -0.0500688060 1 -1
0.1196256740 -0.0514011630 1 -1
0.1203327470 -0.0530458880 1 -1
0.1208825600 -0.0549395040 1 -1
0.1212826910 -0.0569870710 1 -1
0.1215540370 -0.0590694300 1 -1
0.1217340310 -0.0610547650 1 -1
0.1218687580 -0.0628135280 1 -1
0.1220007130 -0.0642339510 1 -1
0.1221623460 -0.0652348820 1 -1
0.1223771960 -0.0657741560 1 -1
0.1226602760 -0.0658527060 1 -1
0.1230112830 -0.0655150180 1 -1
0.1234057300 -0.0648457100 1 -1
0.1237937760 -0.0639615740 1 -1
0.1241097370 -0.0629991350 1 -1
0.1242878110 -0.0620998490 1 -1
0.1242776550 -0.0613960770 1 -1
0.1240548250 -0.0609994850 1 -1
0.1236240590 -0.0609920800 1 -1
0.1230168370 -0.0614201150 1 -1
0.1222855330 -0.0622910010 1 -1
0.1214950360 -0.0635724970 1 -1
0.1207132650 -0.0651939610 1 -1
0.1200044540 -0.0670508790 1 -1
0.1194276580 -0.0690135320 1 -1
0.1190371770 -0.0709391320 1 -1
0.1188783290 -0.0726860510 1 -1
0.1189766080 -0.0741282590 1 -1
0.1193269820 -0.0751670310 1 -1
0.1198914290 -0.0757380290 1 -1
0.1206048850 -0.0758153330 1 -1
0.1213848290 -0.0754150230 1 -1
0.1221429790 -0.0745979340 1 -1
0.1227999160 -0.0734683780 1 -1
0.1232992750 -0.0721659060 1 -1
0.1236147970 -0.0708495170 1 -1
0.1237476300 -0.0696766290 1 -1
0.1237170100 -0.0687818970 1 -1
0.1235486650 -0.0682616730 1 -1
0.1232649300 -0.0681668720 1 -1
0.1228815230 -0.0685031080 1 -1
0.1224139830 -0.0692357110 1 -1
0.1218895470 -0.0702979620 1 -1
0.1213553060 -0.0716008260 1 -1
0.1208774600 -0.0730415000 1 -1
0.1205335580 -0.0745087290 1 -1
0.1204009140 -0.0758861630 1 -1
0.1205430030 -0.0770573890 1 -1
0.1209965760 -0.0779153570 1 -1
0.1217636160 -0.0783763110 1 -1
0.1228105470 -0.0783950210 1 -1
0.1240737440 -0.0779753890 1 -1
0.1254691490 -0.0771717680 1 -1
0.1269044290 -0.0760814010 1 -1
0.1282909810 -0.0748320870 1 -1
0.1295521940 -0.0735682420 1 -1
0.1306273280 -0.0724360470 1 -1
0.1314729770 -0.0715680150 1 -1
0.1320633180 -0.0710681700 1 -1
0.1323896640 -0.0709995800 1 -1
0.1324605750 -0.0713769850 1 -1
0.1323020790 -0.0721669880 1 -1
0.1319548370 -0.0732952510 1 -1
0.1314667450 -0.0746577290 1 -1
0.1308842110 -0.0761333380 1 -1
0.1302464680 -0.0775964240 1 -1
0.1295844910 -0.0789275880 1 -1
0.1289232440 -0.0800219060 1 -1
0.1282852910 -0.0807948690 1 -1
0.1276935520 -0.0811873850 1 -1
0.1271702670 -0.0811706310 1 -1
0.1267300830 -0.0807501690 1 -1
0.1263694770 -0.0799683390 1 -1
0.1260589450 -0.0789034740 1 -1
0.1257434520 -0.0776635660 1 -1
0.1253524630 -0.0763735780 1 -1
0.1248171880 -0.0751595590 1 -1
0.1240894980 -0.0741347040 1 -1
0.1231548910 -0.0733902330 1 -1
0.1220336430 -0.0729902220 1 -1
0.1207705370 -0.0729678480 1 -1
0.1194208860 -0.0733215400 1 -1
0.1180423330 -0.0740119420 1 -1
0.1166951320 -0.0749623610 1 -1
0.1154442170 -0.0760651720 1 -1
0.1143541670 -0.0771942180 1 -1
0.1134756230 -0.0782202750 1 -1
0.1128305170 -0.0790262530 1 -1
0.1124044980 -0.0795206040 1 -1
0.1121495100 -0.0796481450 1 -1
0.1119943150 -0.0793966760 1 -1
0.1118586450 -0.0787975930 1 -1
0.1116670230 -0.0779206420 1 -1
0.1113596160 -0.0768650750 1 -1
0.1108984360 -0.0757491730 1 -1
0.1102678210 -0.0746982660 1 -1
0.1094691180 -0.0738314480 1 -1
0.1085122360 -0.0732484630 1 -1
0.1074098620 -0.0730187070 1 -1
0.1061783910 -0.0731743780 1 -1
0.1048437470 -0.0737089000 1 -1
0.1034471750 -0.0745797950 1 -1
0.1020473840 -0.0757139710 1 -1
0.1007178300 -0.0770139350 1 -1
0.0995395700 -0.0783651480 1 -1
0.0985913230 -0.0796454270 1 -1
0.0979388690 -0.0807360990 1 -1
0.0976253470 -0.0815329660 1 -1
0.0976644940 -0.0819551040 1 -1
0.0980398640 -0.0819513160 1 -1
0.0987103240 -0.0815055490 1 -1
0.0996183700 -0.0806417750 1 -1
0.1006988200 -0.0794263260 1 -1
0.1018878470 -0.0779646440 1 -1
0.1031310970 -0.0763915900 1 -1
0.1043873590 -0.0748573270 1 -1
0.1056256800 -0.0735117110 1 -1
0.1068183090 -0.0724892150 1 -1
0.1079349450 -0.0718953520 1 -1
0.1089427980 -0.0717952200 1 -1
0.1098129600 -0.0722055740 1 -1
0.1105285540 -0.0730924760 1 -1
0.1110890010 -0.0743754760 1 -1
0.1115094660 -0.0759369390 1 -1
0.1118178160 -0.0776338650 1 -1
0.1120503670 -0.0793107410 1 -1
0.1122472400 -0.0808136740 1 -1
0.1124491120 -0.0820054170 1 -1
0.1126952470 -0.0827792210 1 -1
0.1130201570 -0.0830693990 1 -1
0.1134477220 -0.0828572070 1 -1
0.1139850190 -0.0821709530 1 -1
0.1146185190 -0.0810802150 1 -1
0.1153135740 -0.0796861740 1 -1
0.1160176040 -0.0781114080 1 -1
0.1166668720 -0.0764913120 1 -1
0.1171955710 -0.0749665060 1 -1
0.1175459560 -0.0736736880 1 -1
0.1176780480 -0.0727334330 1 -1
0.1175764530 -0.0722363030 1 -1
0.1172524070 -0.0722307170 1 -1
0.1167402650 -0.0727156440 1 -1
0.1160892210 -0.0736393890 1 -1
0.1153537130 -0.0749043050 1 -1
0.1145860580 -0.0763766550 1 -1
0.1138310670 -0.0779006080 1 -1
0.1131212390 -0.0793152710 1 -1
0.1124743250 -0.0804733860 1 -1
0.1118959300 -0.0812585890 1 -1
0.1113866010 -0.0815971730 1 -1
0.1109497800 -0.0814628680 1 -1
0.1105965980 -0.0808763850 1 -1
0.1103454110 -0.0799014610 1 -1
0.1102168500 -0.0786375070 1 -1
0.1102257030 -0.0772091150 1 -1
0.1103699330 -0.0757536710 1 -1
0.1106186780 -0.0744087130 1 -1
0.1109057110 -0.0733005440 1 -1
0.1111358510 -0.0725344150 1 -1
0.1112049050 -0.0721851480 1 -1
0.1110251410 -0.0722883200 1 -1
0.1105469100 -0.0728349440 1 -1
0.1097707250 -0.0737723640 1 -1
0.1087472060 -0.0750104700 1 -1
0.1075662930 -0.0764297410 1 -1
0.1063416960 -0.0778894920 1 -1
0.1051956220 -0.0792385880 1 -1
0.1042441440 -0.0803308030 1 -1
0.1035831680 -0.0810427200 1 -1
0.1032774910 -0.0812892550 1 -1
0.1033548330 -0.0810327890 1 -1
0.1038047440 -0.0802851840 1 -1
0.1045824470 -0.0791048200 1 -1
0.1056170440 -0.0775907040 1 -1
0.1068218960 -0.0758740150 1 -1
0.1081057510 -0.0741071180 1 -1
0.1093836490 -0.0724505570 1 -1
0.1105847880 -0.0710585170 1 -1
0.1116557520 -0.0700632570 1 -1
0.1125607940 -0.0695600020 1 -1
0.1132807970 -0.0695949560 1 -1
0.1138114880 -0.0701586590 1 -1
0.1141625980 -0.0711861240 1 -1
0.1143590400 -0.0725651180 1 -1
0.1144415380 -0.0741518070 1 -1
0.1144632890 -0.0757891220 1 -1
0.1144830550 -0.0773227420 1 -1
0.1145575050 -0.0786137410 1 -1
0.1147338720 -0.0795499890 1 -1
0.1150428060 -0.0800571850 1 -1
0.1154930110 -0.0801075080 1 -1
0.1160701120 -0.0797229830 1 -1
0.1167399540 -0.0789722630 1 -1
0.1174546680 -0.0779616590 1 -1
0.1181596870 -0.0768216370 1 -1
0.1187996240 -0.0756898270 1 -1
0.1193216260 -0.0746932640 1 -1
0.1196779740 -0.0739338760 1 -1
0.1198320880 -0.0734797050 1 -1
0.1197687390 -0.0733615870 1 -1
0.1195016530 -0.0735739870 1 -1
0.1190692970 -0.0740789750 1 -1
0.1185183320 -0.0748122550 1 -1
0.1178852510 -0.0756905730 1 -1
0.1171871640 -0.0766212850 1 -1
0.1164238060 -0.0775139590 1 -1
0.1155862120 -0.0782902010 1 -1
0.1146663950 -0.0788874660 1 -1
0.1136633120 -0.0792577190 1 -1
0.1125831580 -0.0793663180 1 -1
0.1114360020 -0.0791949500 1 -1
0.1102317640 -0.0787477010 1 -1
0.1089769640 -0.0780564240 1 -1
0.1076729830 -0.0771817500 1 -1
0.1063163900 -0.0762079140 1 -1
0.1049000710 -0.0752325300 1 -1
0.1034134940 -0.0743547750 1 -1
0.1018439750 -0.0736652550 1 -1
0.1001831160 -0.0732386630 1 -1
0.0984385640 -0.0731285430 1 -1
0.0966444700 -0.0733628000 1 -1
0.0948630210 -0.0739390800 1 -1
0.0931757800 -0.0748207180 1 -1
0.0916702020 -0.0759358420 1 -1
0.0904270190 -0.0771827570 1 -1
0.0895103060 -0.0784426880 1 -1
0.0889602350 -0.0795972750 1 -1
0.0887893810 -0.0805455430 1 -1
0.0889829970 -0.0812156760 1 -1
0.0895017390 -0.0815696330 1 -1
0.0902853680 -0.0816014690 1 -1
0.0912577740 -0.0813326760 1 -1
0.0923341930 -0.0808081290 1 -1
0.0934302830 -0.0800933010 1 -1
0.0944715710 -0.0792707180 1 -1
0.0954014400 -0.0784344230 1 -1
0.0961855130 -0.0776827190 1 -1
0.0968112920 -0.0771091740 1 -1
0.0972856310 -0.0767921380 1 -1
0.0976339280 -0.0767848270 1 -1
0.0978992890 -0.0771088900 1 -1
0.0981355000 -0.0777531560 1 -1
0.0983932720 -0.0786770720 1 -1
0.0987073290 -0.0798166760 1 -1
0.0990902880 -0.0810908690 1 -1
0.0995331010 -0.0824073000 1 -1
0.1000112570 -0.0836683710 1 -1
0.1004956000 -0.0847778470 1 -1
0.1009623250 -0.0856480280 1 -1
0.1013960010 -0.0862071440 1 -1
0.1017848680 -0.0864071740 1 -1
0.1021134510 -0.0862323310 1 -1
0.1023592580 -0.0857063150 1 -1
0.1024964140 -0.0848945210 1 -1
0.1025030710 -0.0838986070 1 -1
0.1023681930 -0.0828442990 1 -1
0.1020964010 -0.0818656160 1 -1
0.1017090450 -0.0810879640 1 -1
0.1012369250 -0.0806117950 1 -1
0.1007055560 -0.0804999070 1 -1
0.1001232650 -0.0807713050 1 -1
0.0994810140 -0.0814011770 1 -1
0.0987629480 -0.0823246470 1 -1
0.0979604930 -0.0834434340 1 -1
0.0970834530 -0.0846360620 1 -1
0.0961644290 -0.0857715060 1 -1
0.0952552600 -0.0867238160 1 -1
0.0944169930 -0.0873843400 1 -1
0.0937079190 -0.0876700420 1 -1
0.0931743660 -0.0875290900 1 -1
0.0928453060 -0.0869455140 1 -1
0.0927290610 -0.0859429600 1 -1
0.0928116570 -0.0845856420 1 -1
0.0930584360 -0.0829745060 1 -1
0.0934195650 -0.0812387120 1 -1
0.0938384410 -0.0795241940 1 -1
0.0942623990 -0.0779801760 1 -1
0.0946545660 -0.0767435430 1 -1
0.0950007130 -0.0759226850 1 -1
0.0953032900 -0.0755847950 1 -1
0.0955648530 -0.0757501370 1 -1
0.0957744020 -0.0763934290 1 -1
0.0959068540 -0.0774493830 1 -1
0.0959335120 -0.0788195320 1 -1
0.0958346760 -0.0803798540 1 -1
0.0956077250 -0.0819900800 1 -1
0.0952692320 -0.0835050680 1 -1
0.0948524720 -0.0847880250 1 -1
0.0944008330 -0.0857243550 1 -1
0.0939569710 -0.0862332430 1 -1
0.0935504500 -0.0862740450 1 -1
0.0931900060 -0.0858472500 1 -1
0.0928642730 -0.0849922090 1 -1
0.0925489310 -0.0837838070 1 -1
0.0922161380 -0.0823285790 1 -1
0.0918436810 -0.0807583710 1 -1
0.0914214660 -0.0792191720 1 -1
0.0909522120 -0.0778555490 1 -1
0.0904465450 -0.0767942530 1 -1
0.0899178630 -0.0761306720 1 -1
0.0893814620 -0.0759203250 1 -1
0.0888566520 -0.0761756880 1 -1
0.0883676480 -0.0768669490 1 -1
0.0879412600 -0.0779245740 1 -1
0.0876028650 -0.0792433240 1 -1
0.0873729320 -0.0806899600 1 -1
0.0872647650 -0.0821163560 1 -1
0.0872827060 -0.0833761180 1 -1
0.0874208540 -0.0843411710 1 -1
0.0876636860 -0.0849165410 1 -1
0.0879890610 -0.0850532550 1 -1
0.0883719580 -0.0847582580 1 -1
0.0887869770 -0.0840976230 1 -1
0.0892094180 -0.0831887280 1 -1
0.0896156160 -0.0821809940 1 -1
0.0899819130 -0.0812309180 1 -1
0.0902812580 -0.0804797740 1 -1
0.0904794470 -0.0800391460 1 -1
0.0905357460 -0.0799842790 1 -1
0.0904106190 -0.0803521880 1 -1
0.0900779180 -0.0811418570 1 -1
0.0895360770 -0.0823158010 1 -1
0.0888142560 -0.0838031660 1 -1
0.0879717690 -0.0855041840 1 -1
0.0870904220 -0.0872961250 1 -1
0.0862607730 -0.0890415880 1 -1
0.0855660920 -0.0905996170 1 -1
0.0850706870 -0.0918390680 1 -1
0.0848171630 -0.0926525430 1 -1
0.0848300620 -0.0929682650 1 -1
0.0851192580 -0.0927576990 1 -1
0.0856797500 -0.0920383490 1 -1
0.0864888730 -0.0908724610 1 -1
0.0875026330 -0.0893626300 1 -1
0.0886530570 -0.0876439900 1 -1
0.0898506250 -0.0858715450 1 -1
0.0909969940 -0.0842031590 1 -1
0.0920078020 -0.0827823190 1 -1
0.0928349370 -0.0817251870 1 -1
0.0934737070 -0.0811129890 1 -1
0.0939502900 -0.0809881190 1 -1
0.0943005630 -0.0813528710 1 -1
0.0945571640 -0.0821707190 1 -1
0.0947515570 -0.0833697800 1 -1
0.0949233400 -0.0848477890 1 -1
0.0951247160 -0.0864785110 1 -1
0.0954153580 -0.0881204380 1 -1
0.0958517670 -0.0896286710 1 -1
0.0964767010 -0.0908693410 1 -1
0.0973109400 -0.0917342480 1 -1
0.0983482370 -0.0921530490 1 -1
0.0995541940 -0.0921009000 1 -1
0.1008680470 -0.0916004210 1 -1
0.1022061770 -0.0907179790 1 -1
0.1034686310 -0.0895548950 1 -1
0.1045505890 -0.0882346880 1 -1
0.1053572350 -0.0868883980 1 -1
0.1058177580 -0.0856405080 1 -1
0.1058960120 -0.0845974920 1 -1
0.1055976290 -0.0838400170 1 -1
0.1049724290 -0.0834184840 1 -1
0.1041091040 -0.0833504950 1 -1
0.1031198070 -0.0836191610 1 -1
0.1021176120 -0.0841729080 1 -1
0.1011952770 -0.0849282690 1 -1
0.1004126570 -0.0857767730 1 -1
0.0997950070 -0.0865965370 1 -1
0.0993406140 -0.0872683990 1 -1
0.0990333590 -0.0876939080 1 -1
0.0988539320 -0.0878099030 1 -1
0.0987854640 -0.0875950110 1 -1
0.0988136730 -0.0870680010 1 -1
0.0989242650 -0.0862820180 1 -1
0.0991005490 -0.0853184780 1 -1
0.0993229700 -0.0842805850 1 -1
0.0995694080 -0.0832838470 1 -1
0.0998134960 -0.0824428530 1 -1
0.1000213300 -0.0818575400 1 -1
0.1001505910 -0.0816028200 1 -1
0.1001546930 -0.0817227460 1 -1
0.0999908460 -0.0822280990 1 -1
0.0996298890 -0.0830960190 1 -1
0.0990660880 -0.0842715630 1 -1
0.0983232170 -0.0856718340 1 -1
0.0974517630 -0.0871925680 1 -1
0.0965167130 -0.0887163700 1 -1
0.0955827830 -0.0901221580 1 -1
0.0947044170 -0.0912959530 1 -1
0.0939215010 -0.0921431600 1 -1
0.0932578230 -0.0926013720 1 -1
0.0927216800 -0.0926507220 1 -1
0.0923100850 -0.0923183640 1 -1
0.0920159070 -0.0916759470 1 -1
0.0918350490 -0.0908312270 1 -1
0.0917711450 -0.0899150480 1 -1
0.0918359550 -0.0890646700 1 -1
0.0920431320 -0.0884061780 1 -1
0.0923947760 -0.0880406430 1 -1
0.0928674980 -0.0880368820 1 -1
0.0934097520 -0.0884295620 1 -1
0.0939544080 -0.0892195880 1 -1
0.0944377280 -0.0903748500 1 -1
0.0948124980 -0.0918313580 1 -1
0.0950507910 -0.0934958630 1 -1
0.0951405040 -0.0952508620 1 -1
0.0950817260 -0.0969621120 1 -1
0.0948848340 -0.0984884560 1 -1
0.0945682650 -0.0996944130 1 -1
0.0941544420 -0.1004657230 1 -1
0.0936654320 -0.1007260920 1 -1
0.0931209280 -0.1004504900 1 -1
0.0925392620 -0.0996696720 1 -1
0.0919395570 -0.0984644770 1 -1
0.0913423000 -0.0969534040 1 -1
0.0907674220 -0.0952776530 1 -1
0.0902308290 -0.0935852870 1 -1
0.0897408160 -0.0920151610 1 -1
0.0892967400 -0.0906824130 1 -1
0.0888920330 -0.0896681400 1 -1
0.0885204580 -0.0890153140 1 -1
0.0881810130 -0.0887311820 1 -1
0.0878777420 -0.0887935420 1 -1
0.0876158390 -0.0891571680 1 -1
0.0873992340 -0.0897586370 1 -1
0.0872330830 -0.0905206990 1 -1
0.0871290550 -0.0913583300 1 -1
0.0871071820 -0.0921870070 1 -1
0.0871898470 -0.0929312100 1 -1
0.0873906720 -0.0935303410 1 -1
0.0877053610 -0.0939412530 1 -1
0.0881087260 -0.0941392580 1 -1
0.0885583970 -0.0941193350 1 -1
0.0890044770 -0.0938974130 1 -1
0.0894017170 -0.0935111280 1 -1
0.0897179580 -0.0930190230 1 -1
0.0899350160 -0.0924962260 1 -1
0.0900438630 -0.0920255470 1 -1
0.0900389560 -0.0916856780 1 -1
0.0899160520 -0.0915391980 1 -1
0.0896746290 -0.0916224900 1 -1
0.0893216480 -0.0919396970 1 -1
0.0888727910 -0.0924624500 1 -1
0.0883505070 -0.0931347300 1 -1
0.0877802810 -0.0938802240 1 -1
0.0871873310 -0.0946106700 1 -1
0.0865959920 -0.0952358480 1 -1
0.0860312890 -0.0956750450 1 -1
0.0855195340 -0.0958672040 1 -1
0.0850864880 -0.0957764410 1 -1
0.0847542920 -0.0953917530 1 -1
0.0845385930 -0.0947231140 1 -1
0.0844473160 -0.0937979950 1 -1
0.0844823970 -0.0926599520 1 -1
0.0846430430 -0.0913674490 1 -1
0.0849258960 -0.0899911020 1 -1
0.0853185420 -0.0886097580 1 -1
0.0857892840 -0.0873065300 1 -1
0.0862825460 -0.0861649070 1 -1
0.0867262670 -0.0852637730 1 -1
0.0870457160 -0.0846704280 1 -1
0.0871739610 -0.0844323340 1 -1
0.0870597300 -0.0845691990 1 -1
0.0866797210 -0.0850669820 1 -1
0.0860524660 -0.0858757970 1 -1
0.0852421710 -0.0869130670 1 -1
0.0843473990 -0.0880709640 1 -1
0.0834803020 -0.0892256060 1 -1
0.0827447250 -0.0902467660 1 -1
0.0822181610 -0.0910091380 1 -1
0.0819403600 -0.0914063630 1 -1
0.0819106820 -0.0913667090 1 -1
0.0820940600 -0.0908669910 1 -1
0.0824325110 -0.0899405570 1 -1
0.0828580500 -0.0886758170 1 -1
0.0833035460 -0.0872042290 1 -1
0.0837098840 -0.0856809690 1 -1
0.0840301090 -0.0842640050 1 -1
0.0842322050 -0.0830955310 1 -1
0.0843007950 -0.0822868140 1 -1
0.0842370940 -0.0819069190 1 -1
0.0840571730 -0.0819762660 1 -1
0.0837896740 -0.0824657300 1 -1
0.0834737560 -0.0833013620 1 -1
0.0831567280 -0.0843740840 1 -1
0.0828901290 -0.0855528390 1 -1
0.0827242890 -0.0866988990 1 -1
0.0827026940 -0.0876796410 1 -1
0.0828567010 -0.0883816510 1 -1
0.0831991950 -0.0887231530 1 -1
0.0837174290 -0.0886642720 1 -1
0.0843698720 -0.0882124230 1 -1
0.0850914020 -0.0874205190 1 -1
0.0858044680 -0.0863776440 1 -1
0.0864303970 -0.0851945480 1 -1
0.0868990910 -0.0839881670 1 -1
0.0871589610 -0.0828690140 1 -1
0.0871858720 -0.0819329160 1 -1
0.0869860880 -0.0812557750 1 -1
0.0865903450 -0.0808884910 1 -1
0.0860426200 -0.0808512120 1 -1
0.0853912390 -0.0811301110 1 -1
0.0846869220 -0.0816806130 1 -1
0.0839849350 -0.0824368090 1 -1
0.0833448730 -0.0833226040 1 -1
0.0828255150 -0.0842603850 1 -1
0.0824774840 -0.0851763720 1 -1
0.0823370240 -0.0860044220 1 -1
0.0824220330 -0.0866897660 1 -1
0.0827296560 -0.0871927000 1 -1
0.0832343510 -0.0874919370 1 -1
0.0838871470 -0.0875874090 1 -1
0.0846189950 -0.0875015040 1 -1
0.0853506250 -0.0872769680 1 -1
0.0860073920 -0.0869709570 1 -1
0.0865321210 -0.0866473470 1 -1
0.0868873500 -0.0863705600 1 -1
0.0870466700 -0.0862019420 1 -1
0.0869865590 -0.0861967770 1 -1
0.0866892730 -0.0863999080 1 -1
0.0861542360 -0.0868401410 1 -1
0.0854074250 -0.0875245780 1 -1
0.0845027450 -0.0884335300 1 -1
0.0835170990 -0.0895170600 1 -1
0.0825429420 -0.0906953900 1 -1
0.0816780670 -0.0918647310 1 -1
0.0810098600 -0.0929075370 1 -1
0.0805967180 -0.0937051940 1 -1
0.0804554910 -0.0941525170 1 -1
0.0805612370 -0.0941736290 1 -1
0.0808581090 -0.0937362180 1 -1
0.0812755720 -0.0928594750 1 -1
0.0817435990 -0.0916128980 1 -1
0.0822029960 -0.0901065320 1 -1
0.0826106010 -0.0884754510 1 -1
0.0829404170 -0.0868625410 1 -1
0.0831810270 -0.0854037890 1 -1
0.0833303310 -0.0842180920 1 -1
0.0833895780 -0.0834004400 1 -1
0.0833578150 -0.0830163680 1 -1
0.0832283070 -0.0830968490 1 -1
0.0829903800 -0.0836339910 1 -1
0.0826384580 -0.0845787060 1 -1
0.0821837700 -0.0858421920 1 -1
0.0816603750 -0.0873026750 1 -1
0.0811207600 -0.0888173140 1 -1
0.0806239470 -0.0902379230 1 -1
0.0802233770 -0.0914279740 1 -1
0.0799590040 -0.0922775310 1 -1
0.0798526600 -0.0927137500 1 -1
0.0799054670 -0.0927065420 1 -1
0.0800985910 -0.0922699450 1 -1
0.0803975030 -0.0914593670 1 -1
0.0807576160 -0.0903645350 1 -1
0.0811307040 -0.0890987600 1 -1
0.0814732490 -0.0877867960 1 -1
0.0817553720 -0.0865537890 1 -1
0.0819661420 -0.0855157450 1 -1
0.0821124510 -0.0847708840 1 -1
0.0822125270 -0.0843919020 1 -1
0.0822873490 -0.0844198200 1 -1
0.0823530000 -0.0848601760 1 -1
0.0824163520 -0.0856821230 1 -1
0.0824753960 -0.0868206260 1 -1
0.0825229880 -0.0881813590 1 -1
0.0825508550 -0.0896478750 1 -1
0.0825517730 -0.0910912010 1 -1
0.0825210750 -0.0923822370 1 -1
0.0824623670 -0.0934057390 1 -1
0.0823997620 -0.0940726890 1 -1
0.0823881810 -0.0943277020 1 -1
0.0825071030 -0.0941508660 1 -1
0.0828334590 -0.0935568560 1 -1
0.0834071730 -0.0925942950 1 -1
0.0842088280 -0.0913449630 1 -1
0.0851589740 -0.0899201420 1 -1
0.0861363240 -0.0884520760 1 -1
0.0870061440 -0.0870803400 1 -1
0.0876484510 -0.0859347030 1 -1
0.0879776930 -0.0851180780 1 -1
0.0879519210 -0.0846942050 1 -1
0.0875745650 -0.0846831850 1 -1
0.0868916820 -0.0850642780 1 -1
0.0859849460 -0.0857823260 1 -1
0.0849610820 -0.0867545720 1 -1
0.0839395120 -0.0878776900 1 -1
0.0830382490 -0.0890358870 1 -1
0.0823578040 -0.0901094010 1 -1
0.0819666680 -0.0909828130 1 -1
0.0818935890 -0.0915547880 1 -1
0.0821293750 -0.0917507340 1 -1
0.0826366900 -0.0915362040 1 -1
0.0833623080 -0.0909257760 1 -1
0.0842467440 -0.0899834950 1 -1
0.0852310660 -0.0888146060 1 -1
0.0862615260 -0.0875507110 1 -1
0.0872894730 -0.0863322100 1 -1
0.0882661820 -0.0852925930 1 -1
0.0891380190 -0.0845466490 1 -1
0.0898478240 -0.0841813340 1 -1
0.0903431000 -0.0842481380 1 -1
0.0905857430 -0.0847580470 1 -1
0.0905566580 -0.0856803000 1 -1
0.0902536370 -0.0869440770 1 -1
0.0896873040 -0.0884420680 1 -1
0.0888800230 -0.0900372660 1 -1
0.0878674820 -0.0915750090 1 -1
0.0867001920 -0.0929000100 1 -1
0.0854439040 -0.0938753340 1 -1
0.0841787890 -0.0943991910 1 -1
0.0829954650 -0.0944160310 1 -1
0.0819845580 -0.0939206230 1 -1
0.0812192890 -0.0929563770 1 -1
0.0807376140 -0.0916099100 1 -1
0.0805340790 -0.0900024490 1 -1
0.0805659150 -0.0882775140 1 -1
0.0807688490 -0.0865853570 1 -1
0.0810741550 -0.0850668580 1 -1
0.0814202960 -0.0838404310 1 -1
0.0817580270 -0.0829935950 1 -1
0.0820533530 -0.0825780850 1 -1
0.0822922460 -0.0826071250 1 -1
0.0824846900 -0.0830549330 1 -1
0.0826610570 -0.0838589440 1 -1
0.0828577640 -0.0849252400 1 -1
0.0830988330 -0.0861378850 1 -1
0.0833842140 -0.0873718440 1 -1
0.0836906820 -0.0885067920 1 -1
0.0839831510 -0.0894381230 1 -1
0.0842290640 -0.0900836870 1 -1
0.0844084870 -0.0903878350 1 -1
0.0845159750 -0.0903250510 1 -1
0.0845545250 -0.0899031040 1 -1
0.0845267150 -0.0891631610 1 -1
0.0844294280 -0.0881748130 1 -1
0.0842532920 -0.0870270670 1 -1
0.0839839440 -0.0858185770 1 -1
0.0836037370 -0.0846495290 1 -1
0.0830940980 -0.0836154110 1 -1
0.0824387240 -0.0828018280 1 -1
0.0816281370 -0.0822795720 1 -1
0.0806661440 -0.0820986570 1 -1
0.0795764360 -0.0822804550 1 -1
0.0784050440 -0.0828103680 1 -1
0.0772162140 -0.0836354930 1 -1
0.0760846270 -0.0846691590 1 -1
0.0750885300 -0.0858001140 1 -1
0.0743043260 -0.0869034770 1 -1
0.0737998660 -0.0878531680 1 -1
0.0736257470 -0.0885365710 1 -1
0.0738068700 -0.0888700050 1 -1
0.0743363270 -0.0888113200 1 -1
0.0751730070 -0.0883658600 1 -1
0.0762439350 -0.0875842410 1 -1
0.0774512840 -0.0865536730 1 -1
0.0786836410 -0.0853859700 1 -1
0.0798305340 -0.0842045120 1 -1
0.0807973390 -0.0831314800 1 -1
0.0815170950 -0.0822762050 1 -1
0.0819568320 -0.0817248110 1 -1
0.0821170200 -0.0815317170 1 -1
0.0820253700 -0.0817138390 1 -1
0.0817292930 -0.0822476890 1 -1
0.0812902560 -0.0830698630 1 -1
0.0807788580 -0.0840824170 1 -1
0.0802670150 -0.0851636480 1 -1
0.0798162930 -0.0861825920 1 -1
0.0794669570 -0.0870147760 1 -1
0.0792341440 -0.0875571230 1 -1
0.0791125900 -0.0877397790 1 -1
0.0790857740 -0.0875329320 1 -1
0.0791346420 -0.0869483530 1 -1
0.0792429920 -0.0860369740 1 -1
0.0793983020 -0.0848839710 1 -1
0.0795883740 -0.0836018840 1 -1
0.0797959270 -0.0823210850 1 -1
0.0799948080 -0.0811767630 1 -1
0.0801510970 -0.0802936170 1 -1
0.0802300140 -0.0797710240 1 -1
0.0802071900 -0.0796710490 1 -1
0.0800794470 -0.0800107200 1 -1
0.0798680570 -0.0807595720 1 -1
0.0796121170 -0.0818430950 1 -1
0.0793564840 -0.0831524220 1 -1
0.0791389370 -0.0845593070 1 -1
0.0789800140 -0.0859327320 1 -1
0.0788806400 -0.0871527640 1 -1
0.0788295760 -0.0881199080 1 -1
0.0788152130 -0.0887606850 1 -1
0.0788334670 -0.0890303610 1 -1
0.0788872630 -0.0889133790 1 -1
0.0789782070 -0.0884222410 1 -1
0.0790944240 -0.0875954910 1 -1
0.0792008400 -0.0864949560 1 -1
0.0792388650 -0.0852024760 1 -1
0.0791373070 -0.0838162390 1 -1
0.0788290620 -0.0824458210 1 -1
0.0782666070 -0.0812048280 1 -1
0.0774329830 -0.0802012640 1 -1
0.0763470350 -0.0795270390 1 -1
0.0750607740 -0.0792485000 1 -1
0.0736482880 -0.0793994110 1 -1
0.0721906160 -0.0799763980 1 -1
0.0707630610 -0.0809363760 1 -1
0.0694285590 -0.0821969300 1 -1
0.0682375400 -0.0836418270 1 -1
0.0672322840 -0.0851325640 1 -1
0.0664507880 -0.0865243270 1 -1
0.0659252670 -0.0876833310 1 -1
0.0656757570 -0.0885028130 1 -1
0.0657043020 -0.0889151420 1 -1
0.0659939660 -0.0888972270 1 -1
0.0665115240 -0.0884681630 1 -1
0.0672096260 -0.0876816370 1 -1
0.0680272310 -0.0866169440 1 -1
0.0688907610 -0.0853708320 1 -1
0.0697171140 -0.0840507290 1 -1
0.0704184880 -0.0827687490 1 -1
0.0709117580 -0.0816347550 1 -1
0.0711341020 -0.0807471370 1 -1
0.0710589320 -0.0801820580 1 -1
0.0707028930 -0.0799834130 1 -1
0.0701208520 -0.0801558140 1 -1
0.0693932080 -0.0806626540 1 -1
0.0686119440 -0.0814302020 1 -1
0.0678699250 -0.0823560640 1 -1
0.0672544770 -0.0833193900 1 -1
0.0668426520 -0.0841927720 1 -1
0.0666950380 -0.0848571990 1 -1
0.0668480840 -0.0852185140 1 -1
0.0673079030 -0.0852203370 1 -1
0.0680488770 -0.0848493850 1 -1
0.0690189170 -0.0841333470 1 -1
0.0701497830 -0.0831340550 1 -1
0.0713666470 -0.0819383300 1 -1
0.0725911330 -0.0806481080 1 -1
0.0737393940 -0.0793713140 1 -1
0.0747233930 -0.0782139840 1 -1
0.0754598280 -0.0772725820 1 -1
0.0758830550 -0.0766258020 1 -1
0.0759566910 -0.0763269410 1 -1
0.0756807430 -0.0763978580 1 -1
0.0750918800 -0.0768243680 1 -1
0.0742562030 -0.0775534910 1 -1
0.0732574970 -0.0784943110 1 -1
0.0721859870 -0.0795239500 1 -1
