-0.0092906370 -0.0195508430 0 0
-0.0119984760 -0.0222122120 0 0
-0.0139185030 -0.0242440290 0 0
-0.0144600780 -0.0256027530 0 0
-0.0130813220 -0.0262742010 0 0
-0.0094580350 -0.0262646140 0 0
-0.0036119030 -0.0256123990 0 0
0.0040368980 -0.0243950310 0 0
0.0127505770 -0.0227165160 0 0
0.0216905630 -0.0206889390 0 0
0.0301419830 -0.0184337370 1 0
0.0376060440 -0.0161048800 1 0
0.0437662780 -0.0139028580 1 0
0.0484361170 -0.0120529860 1 0
0.0515363470 -0.0107586020 1 0
0.0530638450 -0.0101587390 1 0
0.0530367860 -0.0103043900 1 0
0.0514662880 -0.0111497700 1 0
0.0483883090 -0.0125575570 1 0
0.0439176460 -0.0143224020 1 0
0.0382709410 -0.0162106170 1 0
0.0317702210 -0.0180036570 1 0
0.0248628570 -0.0195270420 0 0
0.0181179280 -0.0206522480 0 0
0.0121229990 -0.0212795710 0 0
0.0073044940 -0.0213277030 0 0
0.0037819560 -0.0207472920 0 0
0.0013122500 -0.0195468580 0 0
-0.0006919420 -0.0178094490 0 0
-0.0030344120 -0.0156990540 0 0
-0.0064324260 -0.0134617320 0 0
-0.0111455760 -0.0114029440 0 0
-0.0168057350 -0.0098239950 0 0
-0.0225567980 -0.0089448470 0 0
-0.0273369260 -0.0088628290 0 0
-0.0301273420 -0.0095592410 -1 0
-0.0301526270 -0.0109230680 -1 0
-0.0270522230 -0.0127670190 0 0
-0.0209754200 -0.0148429200 0 0
-0.0125468950 -0.0168753650 0 0
-0.0027096690 -0.0186176040 0 0
0.0074894450 -0.0199089870 0 0
0.0170767550 -0.0206993350 0 0
0.0252227810 -0.0210245460 0 0
0.0312359020 -0.0209592580 1 0
0.0345854490 -0.0205820660 1 0
0.0350076950 -0.0199595060 1 0
0.0326239750 -0.0191408480 1 0
0.0279665330 -0.0181626430 0 0
0.0218813590 -0.0170599870 0 0
0.0153595020 -0.0158799430 0 0
0.0093706740 -0.0146986780 0 0
0.0047315840 -0.0136378710 0 0
0.0019948070 -0.0128642130 0 0
0.0013490210 -0.0125608740 0 0
0.0025509320 -0.0128771130 0 0
0.0049180990 -0.0138762940 0 0
0.0074320470 -0.0155080210 0 0
0.0090004260 -0.0176211540 0 0
0.0088079900 -0.0200112430 0 0
0.0065681880 -0.0224756000 0 0
0.0025606390 -0.0248519000 0 0
-0.0024971400 -0.0270344770 0 0
-0.0076444130 -0.0289724680 0 0
-0.0118895570 -0.0306551960 0 -1
-0.0144186870 -0.0320923840 0 -1
-0.0147485770 -0.0332951340 0 -1
-0.0127597340 -0.0342586160 0 -1
-0.0086209480 -0.0349488170 0 -1
-0.0027069390 -0.0353009120 0 -1
0.0044247450 -0.0352370150 0 -1
0.0120548470 -0.0347029220 0 -1
0.0194041970 -0.0337075160 0 -1
0.0257897240 -0.0323406000 0 -1
0.0307358800 -0.0307631690 1 -1
0.0340105830 -0.0291863500 1 0
0.0356335110 -0.0278492530 1 0
0.0358733930 -0.0269885420 1 0
0.0352000880 -0.0267954660 1 0
0.0341722380 -0.0273718710 1 0
0.0332776250 -0.0287039180 1 0
0.0327776950 -0.0306660130 1 -1
0.0326313280 -0.0330534360 1 -1
0.0325411360 -0.0356319730 1 -1
0.0320973200 -0.0381910300 1 -1
0.0309588410 -0.0405852010 1 -1
0.0290090860 -0.0427482270 0 -1
0.0264143180 -0.0446735730 0 -1
0.0235355540 -0.0463752490 0 -1
0.0207398050 -0.0478512530 0 -1
0.0182301650 -0.0490631840 0 -1
0.0159812280 -0.0499361170 0 -1
0.0137926570 -0.0503788500 0 -1
0.0114145540 -0.0503168420 0 -1
0.0086641530 -0.0497237800 0 -1
0.0054849200 -0.0486405870 0 -1
0.0019567650 -0.0471767890 0 -1
-0.0017311660 -0.0454951810 0 -1
-0.0053438240 -0.0437867160 0 -1
-0.0086699800 -0.0422445080 0 -1
-0.0115570930 -0.0410420650 0 -1
-0.0139029150 -0.0403153890 0 -1
-0.0156209230 -0.0401476910 0 -1
-0.0165937830 -0.0405593040 0 -1
-0.0166321070 -0.0415051550 0 -1
-0.0154820880 -0.0428777060 0 -1
-0.0129244900 -0.0445151310 0 -1
-0.0089281530 -0.0462194600 0 -1
-0.0037401610 -0.0477856480 0 -1
0.0021644430 -0.0490366960 0 -1
0.0082248870 -0.0498608430 0 -1
0.0139238840 -0.0502436770 0 -1
0.0188527570 -0.0502791520 0 -1
0.0227274760 -0.0501488680 0 -1
0.0253866950 -0.0500754930 0 -1
0.0267945840 -0.0502637180 0 -1
0.0270610780 -0.0508450630 0 -1
0.0264641750 -0.0518472160 0 -1
0.0254208220 -0.0531998520 0 -1
0.0243731550 -0.0547686560 0 -1
0.0236415110 -0.0563959690 0 -1
0.0233304340 -0.0579271290 0 -1
0.0233192220 -0.0592166660 0 -1
0.0233167200 -0.0601274030 0 -1
0.0229504440 -0.0605373940 0 -1
0.0218589830 -0.0603563100 0 -1
0.0197609860 -0.0595443150 0 -1
0.0164927100 -0.0581276090 0 -1
0.0120271810 -0.0562060860 0 -1
0.0064932390 -0.0539464790 0 -1
0.0001926110 -0.0515572970 0 -1
-0.0064109050 -0.0492517210 0 -1
-0.0127551830 -0.0472116960 0 -1
-0.0182938270 -0.0455676960 0 -1
-0.0226200170 -0.0444034540 0 -1
-0.0255450430 -0.0437773440 0 -1
-0.0271036630 -0.0437344650 0 -1
-0.0274999830 -0.0442914930 0 -1
-0.0270328430 -0.0454060220 0 -1
-0.0260356030 -0.0469589680 0 -1
-0.0248360150 -0.0487651790 0 -1
-0.0237218230 -0.0506039690 0 -1
-0.0229072530 -0.0522534020 0 -1
-0.0225115150 -0.0535195200 0 -1
-0.0225570690 -0.0542589040 0 -1
-0.0229786330 -0.0543932180 0 -1
-0.0236288410 -0.0539133100 0 -1
-0.0242809400 -0.0528731850 0 -1
-0.0246448120 -0.0513780560 0 -1
-0.0244161310 -0.0495705750 0 -1
-0.0233586310 -0.0476163620 0 -1
-0.0213767720 -0.0456878660 0 -1
-0.0185250980 -0.0439462920 0 -1
-0.0149587020 -0.0425246480 0 -1
-0.0108827790 -0.0415162010 0 -1
-0.0065391870 -0.0409683770 0 -1
-0.0022177620 -0.0408796330 0 -1
0.0017412610 -0.0412004350 0 -1
0.0049770400 -0.0418415890 0 -1
0.0071697980 -0.0426896680 0 -1
0.0081140950 -0.0436261550 0 -1
0.0077749180 -0.0445467500 0 -1
0.0063073140 -0.0453766290 0 -1
0.0040439380 -0.0460776970 0 -1
0.0014594580 -0.0466475400 0 -1
-0.0009020470 -0.0471126880 0 -1
-0.0025515480 -0.0475163440 0 -1
-0.0031989110 -0.0478984000 0 -1
-0.0028412560 -0.0482713440 0 -1
-0.0017460260 -0.0486037550 0 -1
-0.0003486950 -0.0488220040 0 -1
0.0008738290 -0.0488307080 0 -1
0.0015035790 -0.0485428650 0 -1
0.0012387150 -0.0479076610 0 -1
-0.0000800139 -0.0469271750 0 -1
-0.0024548050 -0.0456582540 0 -1
-0.0057277530 -0.0441994590 0 -1
-0.0096007990 -0.0426671620 0 -1
-0.0136792190 -0.0411692950 0 -1
-0.0175254480 -0.0397848020 0 -1
-0.0207140390 -0.0385519530 0 -1
-0.0228938410 -0.0374659120 0 -1
-0.0238527890 -0.0364864660 0 -1
-0.0235399420 -0.0355550250 0 -1
-0.0220136430 -0.0346152310 0 -1
-0.0193717550 -0.0336296560 0 -1
-0.0157463710 -0.0325884570 0 -1
-0.0113592940 -0.0315106400 0 -1
-0.0065613440 -0.0304405800 0 -1
-0.0018037860 -0.0294408010 0 0
0.0024440810 -0.0285808880 0 0
0.0057857360 -0.0279244060 0 0
0.0079617500 -0.0275174270 0 0
0.0088788010 -0.0273822170 0 0
0.0086112830 -0.0275181350 0 0
0.0073786460 -0.0279072660 0 0
0.0054929550 -0.0285182490 0 0
0.0032823690 -0.0293050620 0 0
0.0010160820 -0.0302049620 0 -1
-0.0011390590 -0.0311411490 0 -1
-0.0031109770 -0.0320301630 0 -1
-0.0048710520 -0.0327902830 0 -1
-0.0063809850 -0.0333502010 0 -1
-0.0075822430 -0.0336603360 0 -1
-0.0084276400 -0.0337045350 0 -1
-0.0089137980 -0.0335040570 0 -1
-0.0090842090 -0.0331090770 0 -1
-0.0090118030 -0.0325813250 0 -1
-0.0087847900 -0.0319757660 0 -1
-0.0085022650 -0.0313289010 0 -1
-0.0082678040 -0.0306586590 0 -1
-0.0081702920 -0.0299745480 0 0
-0.0082564620 -0.0292896090 0 0
-0.0085123440 -0.0286254340 0 0
-0.0088660120 -0.0280088380 0 0
-0.0092083320 -0.0274654650 0 0
-0.0094237160 -0.0270163350 0 0
-0.0094266310 -0.0266786910 0 0
-0.0091959230 -0.0264674880 0 0
-0.0087913830 -0.0263927320 0 0
-0.0083376160 -0.0264520860 0 0
-0.0079774830 -0.0266237160 0 0
-0.0078214810 -0.0268647650 0 0
-0.0079206100 -0.0271154210 0 0
-0.0082641120 -0.0273052890 0 0
-0.0087827680 -0.0273613450 0 0
-0.0093476410 -0.0272182000 0 0
-0.0097802500 -0.0268286550 0 0
-0.0098947630 -0.0261716960 0 0
-0.0095625350 -0.0252582630 0 0
-0.0087625610 -0.0241359520 0 0
-0.0075936560 -0.0228896500 0 0
-0.0062533010 -0.0216326170 0 0
-0.0049973930 -0.0204869420 0 0
-0.0040890440 -0.0195597080 0 0
-0.0037451020 -0.0189242080 0 0
-0.0040946280 -0.0186118000 0 0
-0.0051586810 -0.0186130580 0 0
-0.0068490930 -0.0188833190 0 0
-0.0089814410 -0.0193500450 0 0
-0.0113029740 -0.0199226960 0 0
-0.0135362490 -0.0205051540 0 0
-0.0154285960 -0.0210078990 0 0
-0.0167889280 -0.0213566550 0 0
-0.0175029310 -0.0214970640 0 0
-0.0175358600 -0.0213973640 0 0
-0.0169329180 -0.0210501630 0 0
-0.0158126380 -0.0204724230 0 0
-0.0143441570 -0.0197025260 0 0
-0.0127119330 -0.0187948130 0 0
-0.0110836230 -0.0178135990 0 0
-0.0095923270 -0.0168279150 0 0
-0.0083307780 -0.0159058790 0 0
-0.0073511090 -0.0151082170 0 0
-0.0066701400 -0.0144830610 0 0
-0.0062831310 -0.0140634930 0 0
-0.0061817340 -0.0138665710 0 0
-0.0063615880 -0.0138923220 0 0
-0.0068086560 -0.0141229000 0 0
-0.0074732040 -0.0145224970 0 0
-0.0082550700 -0.0150378180 0 0
-0.0090160100 -0.0155995040 0 0
-0.0096144550 -0.0161269030 0 0
-0.0099469540 -0.0165379960 0 0
-0.0099796990 -0.0167622810 0 0
-0.0097551800 -0.0167515920 0 0
-0.0093702180 -0.0164856040 0 0
-0.0089395130 -0.0159724550 0 0
-0.0085644560 -0.0152459660 0 0
-0.0083169720 -0.0143603020 0 0
-0.0082347310 -0.0133837200 0 0
-0.0083196610 -0.0123940140 0 0
-0.0085426870 -0.0114756930 0 0
-0.0088643700 -0.0107154250 0 0
-0.0092611240 -0.0101930750 0 0
-0.0097282480 -0.0099697820 0 0
-0.0102535500 -0.0100769430 0 0
-0.0107899990 -0.0105094970 0 0
-0.0112526620 -0.0112250540 0 0
-0.0115373110 -0.0121486790 0 0
-0.0115462840 -0.0131826510 0 0
-0.0112116800 -0.0142195520 0 0
-0.0105089920 -0.0151551790 0 0
-0.0094568520 -0.0158981590 0 0
-0.0081070730 -0.0163763490 0 0
-0.0065364680 -0.0165416410 0 0
-0.0048457630 -0.0163729520 0 0
-0.0031588940 -0.0158760710 0 0
-0.0016151470 -0.0150809530 0 0
-0.0003528520 -0.0140387420 0 0
0.0005138360 -0.0128193640 0 0
0.0009176750 -0.0115081140 0 0
0.0008471420 -0.0101996990 0 0
0.0003369490 -0.0089902270 0 0
-0.0005484760 -0.0079686680 0 0
-0.0017261520 -0.0072080950 0 0
-0.0030989810 -0.0067566780 0 0
-0.0045595790 -0.0066303800 0 0
-0.0059977190 -0.0068100440 0 0
-0.0073100500 -0.0072437610 0 0
-0.0084092700 -0.0078537390 0 0
-0.0092330100 -0.0085462720 0 0
-0.0097520110 -0.0092232730 0 0
-0.0099705140 -0.0097933300 0 0
-0.0099120910 -0.0101798960 0 0
-0.0095981830 -0.0103256470 0 0
-0.0090362940 -0.0101946920 0 0
-0.0082250020 -0.0097749510 0 0
-0.0071683250 -0.0090807930 0 0
-0.0058904430 -0.0081535680 0 0
-0.0044467580 -0.0070582500 0 0
-0.0029274360 -0.0058772000 0 0
-0.0014502210 -0.0047031160 0 0
-0.0001443490 -0.0036311940 0 0
0.0008700050 -0.0027496050 0 0
0.0015027530 -0.0021293090 0 0
0.0017110750 -0.0018157240 0 0
0.0015086930 -0.0018238130 0 0
0.0009647610 -0.0021365290 0 0
0.0001917070 -0.0027059070 0 0
-0.0006763900 -0.0034561840 0 0
-0.0015099850 -0.0042893060 0 0
-0.0022064560 -0.0050945140 0 0
-0.0027016290 -0.0057623100 0 0
-0.0029702330 -0.0061993220 0 0
-0.0030186830 -0.0063395590 0 0
-0.0028727900 -0.0061501520 0 0
-0.0025649150 -0.0056321270 0 0
-0.0021252400 -0.0048179570 0 0
-0.0015774190 -0.0037676280 0 0
-0.0009389470 -0.0025634700 0 0
-0.0002296050 -0.0013031900 0 0
0.0005139150 -0.0000911363 0 0
0.0012290150 0.0009719350 0 0
0.0018346260 0.0018003610 0 0
0.0022529810 0.0023345710 0 0
0.0024325860 0.0025480860 0 0
0.0023590320 0.0024481330 0 0
0.0020505020 0.0020708290 0 0
0.0015466690 0.0014743490 0 0
0.0009007460 0.0007332230 0 0
0.0001755830 -0.0000656457 0 0
-0.0005603680 -0.0008275070 0 0
-0.0012372420 -0.0014578830 0 0
-0.0017850730 -0.0018744460 0 0
-0.0021350050 -0.0020190160 0 0
-0.0022267970 -0.0018654680 0 0
-0.0020216500 -0.0014214620 0 0
-0.0015120580 -0.0007239870 0 0
-0.0007227810 0.0001695390 0 0
0.0002950940 0.0011910220 0 0
0.0014700190 0.0022690040 0 0
0.0027133160 0.0033338240 0 0
0.0039256110 0.0043239910 0 0
0.0050083410 0.0051943870 0 0
0.0058732470 0.0059211940 0 0
0.0064472840 0.0064986330 0 0
0.0066788650 0.0069299630 0 0
0.0065472700 0.0072199650 0 0
0.0060701380 0.0073731950 0 0
0.0053052660 0.0073969200 0 0
0.0043457020 0.0073055750 0 0
0.0033078500 0.0071243680 0 0
0.0023151340 0.0068907940 0 0
0.0014837950 0.0066535100 0 0
0.0009154100 0.0064678290 0 0
0.0006919200 0.0063874610 0 0
0.0008638070 0.0064539750 0 0
0.0014312760 0.0066875340 0 0
0.0023313830 0.0070822180 0 0
0.0034418430 0.0076070200 0 0
0.0046005320 0.0082116610 0 0
0.0056344580 0.0088355070 0 0
0.0063897290 0.0094173110 0 0
0.0067525870 0.0099027860 0 0
0.0066575550 0.0102479170 0 0
0.0060872660 0.0104191890 0 0
0.0050703310 0.0103944430 0 0
0.0036785230 0.0101657340 0 0
0.0020191080 0.0097418720 0 0
0.0002198000 0.0091487220 0 0
-0.0015895810 0.0084277550 0 0
-0.0032907440 0.0076330300 0 0
-0.0047798320 0.0068257650 0 0
-0.0059619850 0.0060668720 0 0
-0.0067489190 0.0054092720 0 0
-0.0070675590 0.0048918890 0 0
-0.0068745910 0.0045365360 0 0
-0.0061659890 0.0043481560 0 0
-0.0049781820 0.0043176780 0 0
-0.0033857250 0.0044257170 0 0
-0.0014986930 0.0046454200 0 0
0.0005437410 0.0049441480 0 0
0.0025879980 0.0052847400 0 0
0.0044873500 0.0056266680 0 0
0.0061234000 0.0059271540 0 0
0.0074213380 0.0061432640 0 0
0.0083540180 0.0062363420 0 0
0.0089353160 0.0061786720 0 0
0.0092109340 0.0059608720 0 0
0.0092518770 0.0055980760 0 0
0.0091460150 0.0051324030 0 0
0.0089847450 0.0046296140 0 0
0.0088500440 0.0041704020 0 0
0.0088057440 0.0038385080 0 0
0.0088921570 0.0037079270 0 0
0.0091252020 0.0038315070 0 0
0.0095033520 0.0042330420 0 0
0.0100195800 0.0049038470 0 0
0.0106669220 0.0058037980 0 0
0.0114300460 0.0068663650 0 0
0.0122699840 0.0080064270 0 0
0.0131151850 0.0091287790 0 0
0.0138652720 0.0101359610 0 0
0.0144075620 0.0109360790 0 0
0.0146427920 0.0114518610 0 0
0.0145115450 0.0116302760 0 0
0.0140103470 0.0114504500 0 0
0.0131910460 0.0109277730 0 0
0.0121464740 0.0101132790 0 0
0.0109924350 0.0090885460 0 0
0.0098539200 0.0079567550 0 0
0.0088545800 0.0068306290 0 0
0.0081047790 0.0058187240 0 0
0.0076881870 0.0050126540 0 0
0.0076503850 0.0044779130 0 0
0.0079927230 0.0042497980 0 0
0.0086746720 0.0043340390 0 0
0.0096252700 0.0047100260 0 0
0.0107591490 0.0053344180 0 0
0.0119912410 0.0061451490 0 0
0.0132463020 0.0070671880 0 0
0.0144604990 0.0080199780 0 0
0.0155757660 0.0089249860 0 0
0.0165343980 0.0097121750 0 0
0.0172800070 0.0103256090 0 0
0.0177622830 0.0107286650 0 0
0.0179417720 0.0109082710 0 0
0.0177952780 0.0108768130 0 0
0.0173222010 0.0106708960 0 0
0.0165503170 0.0103472250 0 0
0.0155401980 0.0099760200 0 0
0.0143871740 0.0096325090 0 0
0.0132174610 0.0093880460 0 0
0.0121752240 0.0093025130 0 0
0.0114010670 0.0094185800 0 0
0.0110062940 0.0097580700 0 0
0.0110503340 0.0103207180 0 0
0.0115306500 0.0110847970 0 0
0.0123896110 0.0120086820 0 0
0.0135330550 0.0130328880 0 0
0.0148511150 0.0140828690 0 0
0.0162342850 0.0150738670 0 0
0.0175818550 0.0159188620 0 0
0.0188037560 0.0165382760 0 0
0.0198198070 0.0168686870 0 0
0.0205618260 0.0168688230 0 0
0.0209815190 0.0165231640 0 0
0.0210613110 0.0158447270 0 0
0.0208215120 0.0148772620 0 0
0.0203176550 0.0136945100 0 0
0.0196276520 0.0123940190 0 0
0.0188377000 0.0110858900 0 0
0.0180358920 0.0098800660 0 0
0.0173106490 0.0088763240 0 0
0.0167444230 0.0081572780 0 0
0.0163998260 0.0077810560 0 0
0.0163048910 0.0077725120 0 0
0.0164466470 0.0081167110 0 0
0.0167768150 0.0087590740 0 0
0.0172259950 0.0096129270 0 0
0.0177191510 0.0105721120 0 0
0.0181883050 0.0115251980 0 0
0.0185819490 0.0123678280 0 0
0.0188695190 0.0130116160 0 0
0.0190391830 0.0133904830 0 0
0.0190918130 0.0134660220 0 0
0.0190361140 0.0132320380 0 0
0.0188863760 0.0127161930 0 0
0.0186608440 0.0119763440 0 0
0.0183795880 0.0110917630 0 0
0.0180632140 0.0101520770 0 0
0.0177335310 0.0092469110 0 0
0.0174151090 0.0084579950 0 0
0.0171355000 0.0078542750 0 0
0.0169220480 0.0074889140 0 0
0.0167957260 0.0073964660 0 0
0.0167658570 0.0075901510 0 0
0.0168283220 0.0080601940 0 0
0.0169656130 0.0087733370 0 0
0.0171475610 0.0096734280 0 0
0.0173347620 0.0106844040 0 0
0.0174856530 0.0117169950 0 0
0.0175643910 0.0126781920 0 0
0.0175458250 0.0134815020 0 0
0.0174171170 0.0140568550 0 0
0.0171784230 0.0143592500 0 0
0.0168439560 0.0143746550 0 0
0.0164420630 0.0141220110 0 0
0.0160134370 0.0136512720 0 0
0.0156092730 0.0130379070 0 0
0.0152893050 0.0123736830 0 0
0.0151157440 0.0117539200 0 0
0.0151428650 0.0112638470 0 0
0.0154080590 0.0109681600 0 0
0.0159281510 0.0109059410 0 0
0.0166995870 0.0110904180 0 0
0.0176994300 0.0115121320 0 0
0.0188846910 0.0121442560 0 0
0.0201899040 0.0129484610 0 0
0.0215265690 0.0138790540 0 0
0.0227889190 0.0148841840 0 0
0.0238667050 0.0159054950 0 0
0.0246610740 0.0168788100 0 0
0.0250983540 0.0177376300 0 0
0.0251388980 0.0184195940 0 0
0.0247814200 0.0188744220 0 0
0.0240635830 0.0190711630 0 0
0.0230579750 0.0190036000 0 0
0.0218631590 0.0186933020 0 0
0.0205916300 0.0181890590 0 0
0.0193567260 0.0175612010 0 0
0.0182591540 0.0168913470 0 0
0.0173744270 0.0162609030 0 0
0.0167463850 0.0157423340 0 0
0.0163912550 0.0153948320 0 0
0.0163071060 0.0152625820 0 0
0.0164784270 0.0153729000 0 0
0.0168740550 0.0157335480 0 0
0.0174449000 0.0163303300 0 0
0.0181255860 0.0171260870 0 0
0.0188393280 0.0180623950 0 0
0.0195052390 0.0190651010 0 0
0.0200479670 0.0200527920 0 0
0.0204080210 0.0209456490 0 0
0.0205496340 0.0216733850 0 0
0.0204631050 0.0221825460 0 0
0.0201608010 0.0224429810 0 0
0.0196698410 0.0224520970 0 0
0.0190260000 0.0222354440 0 0
0.0182704400 0.0218436040 0 0
0.0174475250 0.0213464010 0 0
0.0166025170 0.0208249280 0 0
0.0157799320 0.0203613850 0 0
0.0150230740 0.0200280080 0 0
0.0143734390 0.0198777420 0 0
0.0138679920 0.0199388280 0 0
0.0135342780 0.0202140170 0 0
0.0133861860 0.0206840990 0 0
0.0134226000 0.0213145540 0 0
0.0136275830 0.0220630800 0 0
0.0139706090 0.0228856220 0 0
0.0144083050 0.0237395790 0 0
0.0148887710 0.0245840840 0 0
0.0153572270 0.0253785280 0 0
0.0157617310 0.0260818560 0 0
0.0160584850 0.0266542000 0 0
0.0162160130 0.0270596880 0 0
0.0162172050 0.0272687390 0 0
0.0160589380 0.0272603170 0 0
0.0157510860 0.0270258060 0 0
0.0153171090 0.0265746040 0 0
0.0147956990 0.0259390710 0 0
0.0142401580 0.0251754510 0 0
0.0137122920 0.0243588580 0 0
0.0132710310 0.0235734820 0 0
0.0129603230 0.0229013190 0 0
0.0128019210 0.0224119930 0 0
0.0127952150 0.0221545600 0 0
0.0129214960 0.0221519580 0 0
0.0131479780 0.0223987960 0 0
0.0134294530 0.0228618480 0 0
0.0137095860 0.0234825230 0 0
0.0139248060 0.0241825620 0 0
0.0140111860 0.0248744440 0 0
0.0139136030 0.0254750410 0 0
0.0135974300 0.0259185070 0 0
0.0130604580 0.0261649120 0 0
0.0123378620 0.0262035190 0 0
0.0114952630 0.0260516520 0 0
0.0106140250 0.0257507120 0 0
0.0097769910 0.0253605410 0 0
0.0090591150 0.0249525640 0 0
0.0085222930 0.0246018670 0 0
0.0082112880 0.0243790460 0 0
0.0081493010 0.0243430940 0 0
0.0083358420 0.0245357480 0 0
0.0087497840 0.0249769070 0 0
0.0093553650 0.0256609530 0 0
0.0101062370 0.0265549550 0 0
0.0109458810 0.0276003510 0 0
0.0118066680 0.0287186060 0 0
0.0126112590 0.0298198910 0 0
0.0132787930 0.0308131440 0 1
0.0137343910 0.0316156440 0 1
0.0139177580 0.0321608440 0 1
0.0137884710 0.0324041450 0 1
0.0133291980 0.0323264260 0 1
0.0125491950 0.0319353240 0 1
0.0114879590 0.0312651900 0 1
0.0102164170 0.0303766250 0 1
0.0088335690 0.0293551380 0 0
0.0074581550 0.0283070650 0 0
0.0062150650 0.0273512660 0 0
0.0052176300 0.0266067990 0 0
0.0045505960 0.0261783250 0 0
0.0042594300 0.0261415780 0 0
0.0043482540 0.0265312930 0 0
0.0047847630 0.0273338820 0 0
0.0055085610 0.0284869900 0 0
0.0064402160 0.0298871170 0 0
0.0074903920 0.0314043740 0 1
0.0085686590 0.0329009370 0 1
0.0095904970 0.0342488110 0 1
0.0104810710 0.0353436630 0 1
0.0111767410 0.0361136090 0 1
0.0116279150 0.0365229320 0 1
0.0118058400 0.0365710160 0 1
0.0117115470 0.0362878530 0 1
0.0113825590 0.0357282000 0 1
0.0108930770 0.0349654700 0 1
0.0103445870 0.0340855970 0 1
0.0098482000 0.0331806310 0 1
0.0095049130 0.0323414650 0 1
0.0093901570 0.0316496500 0 1
0.0095455910 0.0311691530 0 1
0.0099780830 0.0309392320 0 1
0.0106631330 0.0309698350 0 1
0.0115489650 0.0312405600 0 1
0.0125608400 0.0317031150 0 1
0.0136089710 0.0322870140 0 1
0.0146021000 0.0329084570 0 1
0.0154627260 0.0334813710 0 1
0.0161355810 0.0339286030 0 1
0.0165861890 0.0341913700 0 1
0.0167957960 0.0342358040 0 1
0.0167591670 0.0340559210 0 1
0.0164846970 0.0336724400 0 1
0.0159936300 0.0331274410 0 1
0.0153181160 0.0324766650 0 1
0.0145003430 0.0317828150 0 1
0.0135946210 0.0311119760 0 1
0.0126703190 0.0305319720 0 1
0.0118100480 0.0301093490 0 1
0.0111005960 0.0299024990 0 0
0.0106208980 0.0299518480 0 0
0.0104318830 0.0302710990 0 1
0.0105682960 0.0308438040 0 1
0.0110316030 0.0316268360 0 1
0.0117863010 0.0325582670 0 1
0.0127628210 0.0335654220 0 1
0.0138667910 0.0345711440 0 1
0.0149896160 0.0354988960 0 1
0.0160150020 0.0362772250 0 1
0.0168231120 0.0368434500 0 1
0.0172995270 0.0371473810 0 1
0.0173515160 0.0371567450 0 1
0.0169257370 0.0368643940 0 1
0.0160187900 0.0362939660 0 1
0.0146759870 0.0355001580 0 1
0.0129815420 0.0345633840 0 1
0.0110487550 0.0335815380 0 1
0.0090140520 0.0326609950 0 1
0.0070291970 0.0319069230 0 1
0.0052455420 0.0314121250 0 1
0.0037930000 0.0312448050 0 1
0.0027618520 0.0314376860 0 1
0.0021932930 0.0319817420 0 1
0.0020799510 0.0328269170 0 1
0.0023743660 0.0338900470 0 1
0.0030016850 0.0350678130 0 1
0.0038714810 0.0362510120 0 1
0.0048844820 0.0373371680 0 1
0.0059353520 0.0382407350 0 1
0.0069164500 0.0389012560 0 1
0.0077248800 0.0392891050 0 1
0.0082716380 0.0394073360 0 1
0.0084913940 0.0392883920 0 1
0.0083516690 0.0389862540 0 1
0.0078596040 0.0385671930 0 1
0.0070643080 0.0381024640 0 1
0.0060538580 0.0376631770 0 1
0.0049470770 0.0373155130 0 1
0.0038801890 0.0371159740 0 1
0.0029885890 0.0371076320 0 1
0.0023859780 0.0373174450 0 1
0.0021458730 0.0377542150 0 1
0.0022911310 0.0384073900 0 1
0.0027932550 0.0392466070 0 1
0.0035793300 0.0402214060 0 1
0.0045451930 0.0412617340 0 1
0.0055732700 0.0422813860 0 1
0.0065492390 0.0431856990 0 1
0.0073721400 0.0438825220 0 1
0.0079586090 0.0442938980 0 1
0.0082439200 0.0443659400 0 1
0.0081816860 0.0440758940 0 1
0.0077459540 0.0434364690 0 1
0.0069382970 0.0424965700 0 1
0.0057957480 0.0413370480 0 1
0.0043921250 0.0400617000 0 1
0.0028297160 0.0387854710 0 1
0.0012245280 0.0376218850 0 1
-0.0003080050 0.0366711280 0 1
-0.0016613930 0.0360099550 0 1
-0.0027419350 0.0356847190 0 1
-0.0034739340 0.0357084990 0 1
-0.0038087330 0.0360619170 0 1
-0.0037339740 0.0366963400 0 1
-0.0032782620 0.0375392820 0 1
-0.0025096680 0.0385025770 0 1
-0.0015284820 0.0394922600 0 1
-0.0004543040 0.0404176710 0 1
0.0005905160 0.0411978340 0 1
0.0014966710 0.0417649360 0 1
0.0021799390 0.0420664850 0 1
0.0025882710 0.0420681220 0 1
0.0027022670 0.0417570550 0 1
0.0025295970 0.0411442640 0 1
0.0020986030 0.0402645760 0 1
0.0014560000 0.0391752380 0 1
0.0006670250 0.0379530360 0 1
-0.0001877720 0.0366893490 0 1
-0.0010212150 0.0354835250 0 1
-0.0017497850 0.0344350200 0 1
-0.0023004790 0.0336336460 0 1
-0.0026133850 0.0331483760 0 1
-0.0026439970 0.0330174730 0 1
-0.0023708270 0.0332424840 0 1
-0.0018081880 0.0337871570 0 1
-0.0010147540 0.0345816910 0 1
-0.0000880421 0.0355313810 0 1
0.0008543800 0.0365272220 0 1
0.0016976650 0.0374566910 0 1
0.0023488230 0.0382146490 0 1
0.0027492740 0.0387144020 0 1
0.0028791490 0.0388971850 0 1
0.0027526340 0.0387370900 0 1
0.0024078410 0.0382401630 0 1
0.0018980030 0.0374400330 0 1
0.0012876320 0.0363929890 0 1
0.0006510030 0.0351728180 0 1
0.0000690203 0.0338648240 0 1
-0.0003766260 0.0325594790 0 1
-0.0006114520 0.0313464550 0 1
-0.0005781140 0.0303086710 0 1
-0.0002469730 0.0295153610 0 0
0.0003771090 0.0290142110 0 0
0.0012555860 0.0288244610 0 0
0.0023226520 0.0289332570 0 0
0.0034925860 0.0292961920 0 0
0.0046681390 0.0298417550 0 0
0.0057520760 0.0304791190 0 1
0.0066587370 0.0311081830 0 1
0.0073198780 0.0316306970 0 1
0.0076846100 0.0319616610 0 1
0.0077190650 0.0320393330 0 1
0.0074102530 0.0318313930 0 1
0.0067733800 0.0313366260 0 1
0.0058584550 0.0305838500 0 1
0.0047513720 0.0296291800 0 0
0.0035660320 0.0285510920 0 0
0.0024280050 0.0274427040 0 0
0.0014546840 0.0264015310 0 0
0.0007386320 0.0255179890 0 0
0.0003394250 0.0248650730 0 0
0.0002847740 0.0244914550 0 0
0.0005747260 0.0244182470 0 0
0.0011813400 0.0246380140 0 0
0.0020450700 0.0251150400 0 0
0.0030763920 0.0257878770 0 0
0.0041669100 0.0265756310 0 0
0.0052060840 0.0273869070 0 0
0.0060970640 0.0281289140 0 0
0.0067671920 0.0287159830 0 0
0.0071720060 0.0290778590 0 0
0.0072938290 0.0291672500 0 0
0.0071367110 0.0289656250 0 0
0.0067209190 0.0284863740 0 0
0.0060812710 0.0277745700 0 0
0.0052699570 0.0269031190 0 0
0.0043595120 0.0259654120 0 0
0.0034410070 0.0250643120 0 0
0.0026150000 0.0242982270 0 0
0.0019768860 0.0237472430 0 0
0.0016022350 0.0234634420 0 0
0.0015366710 0.0234674610 0 0
0.0017915410 0.0237500720 0 0
0.0023456740 0.0242766280 0 0
0.0031516080 0.0249933850 0 0
0.0041415840 0.0258348490 0 0
0.0052307460 0.0267304000 0 0
0.0063204970 0.0276085630 0 0
0.0073054570 0.0283992560 0 0
0.0080830870 0.0290360470 0 0
0.0085637300 0.0294603660 0 0
0.0086808820 0.0296280260 0 0
0.0084014510 0.0295166780 0 0
0.0077335430 0.0291318290 0 0
0.0067289620 0.0285093170 0 0
0.0054793850 0.0277129860 0 0
0.0041068140 0.0268273920 0 0
0.0027499550 0.0259469670 0 0
0.0015492270 0.0251642670 0 0
0.0006324650 0.0245597210 0 0
0.0001008020 0.0241944070 0 0
0.0000147437 0.0241059360 0 0
0.0003840840 0.0243062560 0 0
0.0011657270 0.0247804990 0 0
0.0022703010 0.0254873490 0 0
0.0035761270 0.0263620850 0 0
0.0049473110 0.0273232130 0 0
0.0062506830 0.0282822320 0 0
0.0073669230 0.0291535370 0 0
0.0081951310 0.0298609840 0 0
0.0086550020 0.0303414960 0 1
0.0086921470 0.0305491290 0 1
0.0082867050 0.0304608290 0 1
0.0074590820 0.0300814560 0 1
0.0062679490 0.0294456870 0 0
0.0048020700 0.0286161500 0 0
0.0031703310 0.0276776180 0 0
0.0014923940 0.0267275330 0 0
-0.0001090700 0.0258651560 0 0
-0.0015140820 0.0251821650 0 0
-0.0026104050 0.0247546650 0 0
-0.0033017740 0.0246347080 0 0
-0.0035219770 0.0248421840 0 0
-0.0032524130 0.0253609400 0 0
-0.0025366890 0.0261411890 0 0
-0.0014845650 0.0271070590 0 0
-0.0002581350 0.0281670970 0 0
0.0009602910 0.0292254430 0 0
0.0020059720 0.0301909910 0 1
0.0027574340 0.0309835560 0 1
0.0031437510 0.0315391590 0 1
0.0031413500 0.0318163580 0 1
0.0027697740 0.0318021590 0 1
0.0020876520 0.0315142110 0 1
0.0011854220 0.0309975260 0 1
0.0001741640 0.0303168460 0 1
-0.0008270440 0.0295476650 0 0
-0.0017042760 0.0287682710 0 0
-0.0023627270 0.0280528530 0 0
-0.0027387210 0.0274650540 0 0
-0.0028047100 0.0270524890 0 0
-0.0025668710 0.0268428030 0 0
-0.0020600400 0.0268411590 0 0
-0.0013435730 0.0270296280 0 0
-0.0004981300 0.0273697810 0 0
0.0003787190 0.0278083150 0 0
0.0011811840 0.0282840610 0 0
0.0018094260 0.0287350070 0 0
0.0021849680 0.0291042800 0 0
0.0022608910 0.0293445750 0 0
0.0020241990 0.0294221600 0 0
0.0014923680 0.0293214480 0 0
0.0007077950 0.0290490740 0 0
-0.0002667200 0.0286356190 0 0
-0.0013514260 0.0281335730 0 0
-0.0024550480 0.0276107450 0 0
-0.0034837100 0.0271403860 0 0
-0.0043507170 0.0267913340 0 0
-0.0049837650 0.0266205810 0 0
-0.0053290790 0.0266685620 0 0
-0.0053540660 0.0269569010 0 0
-0.0050491190 0.0274882410 0 0
-0.0044278940 0.0282470000 0 0
-0.0035260200 0.0291999900 0 0
-0.0023995410 0.0302976460 0 1
-0.0011235520 0.0314770800 0 1
0.0002109470 0.0326666910 0 1
0.0015039750 0.0337912450 0 1
0.0026570220 0.0347768040 0 1
0.0035846800 0.0355556920 0 1
0.0042242010 0.0360721220 0 1
0.0045405000 0.0362881980 0 1
0.0045265460 0.0361888110 0 1
0.0042013970 0.0357846760 0 1
0.0036088900 0.0351138280 0 1
0.0028177460 0.0342407600 0 1
0.0019203930 0.0332515890 0 1
0.0010275790 0.0322451530 0 1
0.0002588030 0.0313214020 0 1
-0.0002700870 0.0305688580 0 1
-0.0004619870 0.0300537210 0 1
-0.0002558880 0.0298130340 0 0
0.0003582990 0.0298523510 0 0
0.0013356340 0.0301476770 0 1
0.0025868950 0.0306516290 0 1
0.0039993150 0.0313027690 0 1
0.0054565150 0.0320350860 0 1
0.0068490460 0.0327840470 0 1
0.0080756390 0.0334882310 0 1
0.0090429690 0.0340891370 0 1
0.0096699760 0.0345326410 0 1
0.0098956020 0.0347734830 0 1
0.0096864470 0.0347814510 0 1
0.0090429250 0.0345466620 0 1
0.0080034780 0.0340822230 0 1
0.0066455250 0.0334243410 0 1
0.0050809700 0.0326305140 0 1
0.0034451620 0.0317757270 0 1
0.0018808330 0.0309461670 0 1
0.0005203330 0.0302308690 0 1
-0.0005302890 0.0297124680 0 0
-0.0012019570 0.0294576580 0 0
-0.0014662360 0.0295075650 0 0
-0.0013339270 0.0298696870 0 0
-0.0008521490 0.0305142620 0 1
-0.0001000550 0.0313767300 0 1
0.0008196030 0.0323656570 0 1
0.0017932250 0.0333747070 0 1
0.0027100110 0.0342967240 0 1
0.0034733760 0.0350367960 0 1
0.0040086410 0.0355216570 0 1
0.0042672730 0.0357053900 0 1
0.0042300480 0.0355725550 0 1
0.0039101330 0.0351385660 0 1
0.0033536510 0.0344461150 0 1
0.0026357880 0.0335578300 0 1
0.0018528410 0.0325478100 0 1
0.0011102500 0.0314948000 0 1
0.0005073890 0.0304778630 0 1
0.0001232980 0.0295732980 0 0
0.0000080376 0.0288501200 0 0
0.0001802480 0.0283626220 0 0
0.0006281540 0.0281424720 0 0
0.0013115940 0.0281941070 0 0
0.0021642260 0.0284943220 0 0
0.0030964680 0.0289942820 0 0
0.0040020150 0.0296224190 0 0
0.0047714070 0.0302890570 0 1
0.0053110930 0.0308952890 0 1
0.0055601290 0.0313464430 0 1
0.0054972060 0.0315660880 0 1
0.0051372430 0.0315055720 0 1
0.0045216540 0.0311471490 0 1
0.0037071870 0.0305021800 0 1
0.0027574910 0.0296074520 0 0
0.0017402660 0.0285219070 0 0
0.0007297370 0.0273234870 0 0
-0.0001901020 0.0261044720 0 0
-0.0009279020 0.0249643850 0 0
-0.0013964270 0.0240002530 0 0
-0.0015291800 0.0232946950 0 0
-0.0012930210 0.0229040530 0 0
-0.0006910760 0.0228499810 0 0
0.0002413470 0.0231170640 0 0
0.0014426330 0.0236565400 0 0
0.0028306960 0.0243936400 0 0
0.0043086860 0.0252355530 0 0
0.0057702570 0.0260791250 0 0
0.0071052050 0.0268199260 0 0
0.0082074710 0.0273639940 0 0
0.0089855560 0.0276405500 0 0
0.0093729750 0.0276120730 0 0
0.0093367570 0.0272792980 0 0
0.0088828450 0.0266807840 0 0
0.0080560750 0.0258877150 0 0
0.0069331650 0.0249951290 0 0
0.0056112480 0.0241117090 0 0
0.0041971280 0.0233497670 0 0
0.0027994870 0.0228147980 0 0
0.0015204360 0.0225935550 0 0
0.0004421500 0.0227417310 0 0
-0.0003882260 0.0232745190 0 0
-0.0009656840 0.0241634260 0 0
-0.0013206750 0.0253401870 0 0
-0.0015027810 0.0267059740 0 0
-0.0015636680 0.0281438530 0 0
-0.0015463870 0.0295327180 0 0
-0.0014842430 0.0307599340 0 1
-0.0014064870 0.0317298600 0 1
-0.0013429990 0.0323684140 0 1
-0.0013228020 0.0326270420 0 1
-0.0013689610 0.0324879590 0 1
-0.0014947880 0.0319682340 0 1
-0.0017022220 0.0311192900 0 1
-0.0019801970 0.0300214020 0 1
-0.0023019780 0.0287752260 0 0
-0.0026234990 0.0274923250 0 0
-0.0028869930 0.0262853760 0 0
-0.0030324060 0.0252581910 0 0
-0.0030127230 0.0244962350 0 0
-0.0028043080 0.0240590620 0 0
-0.0024069980 0.0239755410 0 0
-0.0018376870 0.0242416230 0 0
-0.0011247130 0.0248203760 0 0
-0.0003063140 0.0256446420 0 0
0.0005680050 0.0266223370 0 0
0.0014362930 0.0276442200 0 0
0.0022272070 0.0285942300 0 0
0.0028687200 0.0293618670 0 0
0.0032980540 0.0298547490 0 0
0.0034674180 0.0300087880 0 1
0.0033459030 0.0297944100 0 0
0.0029220270 0.0292190100 0 0
0.0022087390 0.0283263430 0 0
0.0012475930 0.0271925390 0 0
0.0001072600 0.0259178850 0 0
-0.0011236800 0.0246151680 0 0
-0.0023433090 0.0233976560 0 0
-0.0034385210 0.0223693590 0 0
-0.0042901340 0.0216172630 0 0
-0.0047904690 0.0212033790 0 0
-0.0048690270 0.0211559500 0 0
-0.0045104030 0.0214627570 0 0
-0.0037548570 0.0220708650 0 0
-0.0026859290 0.0228941930 0 0
-0.0014146530 0.0238261600 0 0
-0.0000646375 0.0247539550 0 0
0.0012431950 0.0255729460 0 0
0.0024055970 0.0261999190 0 0
0.0033465050 0.0265820460 0 0
0.0040170540 0.0266986880 0 0
0.0043891060 0.0265568400 0 0
0.0044504080 0.0261844690 0 0
0.0042070780 0.0256253650 0 0
0.0036916380 0.0249360790 0 0
0.0029690430 0.0241837590 0 0
0.0021331440 0.0234429500 0 0
0.0012921630 0.0227894810 0 0
0.0005490640 0.0222919470 0 0
-0.0000148112 0.0220038350 0 0
-0.0003474470 0.0219582520 0 0
-0.0004252440 0.0221649090 0 0
-0.0002480000 0.0226088380 0 0
0.0001649600 0.0232510120 0 0
0.0007754270 0.0240309100 0 0
0.0015257530 0.0248711270 0 0
0.0023409950 0.0256850430 0 0
0.0031360510 0.0263875200 0 0
0.0038261010 0.0269053170 0 0
0.0043366580 0.0271833670 0 0
0.0046118570 0.0271865880 0 0
0.0046215710 0.0268998350 0 0
0.0043666070 0.0263280400 0 0
0.0038797760 0.0254964260 0 0
0.0032217680 0.0244495010 0 0
0.0024729010 0.0232483930 0 0
0.0017232840 0.0219670710 0 0
0.0010639190 0.0206873850 0 0
0.0005798490 0.0194925650 0 0
0.0003446800 0.0184604470 0 0
0.0004145360 0.0176580910 0 0
0.0008193100 0.0171369340 0 0
0.0015524090 0.0169265410 0 0
0.0025656890 0.0170282180 0 0
0.0037753000 0.0174126840 0 0
0.0050756240 0.0180240810 0 0
0.0063543630 0.0187884230 0 0
0.0075064160 0.0196228460 0 0
0.0084481620 0.0204437250 0 0
0.0091309200 0.0211739830 0 0
0.0095472990 0.0217500000 0 0
0.0097249990 0.0221273470 0 0
0.0097104780 0.0222840720 0 0
0.0095513850 0.0222214480 0 0
0.0092858850 0.0219628660 0 0
0.0089421040 0.0215503800 0 0
0.0085453440 0.0210384740 0 0
0.0081271190 0.0204870700 0 0
0.0077309900 0.0199566260 0 0
0.0074125010 0.0195059450 0 0
0.0072327700 0.0191906850 0 0
0.0072489570 0.0190597680 0 0
0.0075057010 0.0191491120 0 0
0.0080278480 0.0194754370 0 0
0.0088134310 0.0200334530 0 0
0.0098286510 0.0207970300 0 0
0.0110070950 0.0217219410 0 0
0.0122529920 0.0227477210 0 0
0.0134480460 0.0237991420 0 0
0.0144631560 0.0247900510 0 0
0.0151753980 0.0256316710 0 0
0.0154864640 0.0262456890 0 0
0.0153375790 0.0265802400 0 0
0.0147191800 0.0266242150 0 0
0.0136753290 0.0264139400 0 0
0.0123007930 0.0260286140 0 0
0.0107278850 0.0255759860 0 0
0.0091039110 0.0251731240 0 0
0.0075667740 0.0249274810 0 0
0.0062292020 0.0249223320 0 0
0.0051751530 0.0252088040 0 0
0.0044612960 0.0258036800 0 0
0.0041152730 0.0266896500 0 0
0.0041313870 0.0278161550 0 0
0.0044698860 0.0291026570 0 0
0.0050619900 0.0304468740 0 1
0.0058176650 0.0317378560 0 1
0.0066342030 0.0328711870 0 1
0.0074066310 0.0337626660 0 1
0.0080399810 0.0343570000 0 1
0.0084600030 0.0346294390 0 1
0.0086183970 0.0345814680 0 1
0.0084928620 0.0342346600 0 1
0.0080856060 0.0336268120 0 1
0.0074218550 0.0328112750 0 1
0.0065479120 0.0318568790 0 1
0.0055290880 0.0308455960 0 1
0.0044473120 0.0298675710 0 0
0.0033968170 0.0290149390 0 0
0.0024768100 0.0283753650 0 0
0.0017814920 0.0280248610 0 0
0.0013894370 0.0280194560 0 0
0.0013542680 0.0283871560 0 0
0.0016962540 0.0291228470 0 0
0.0023949440 0.0301870720 0 1
0.0033865570 0.0315070940 0 1
0.0045702250 0.0329797780 0 1
0.0058226120 0.0344791730 0 1
0.0070162750 0.0358709320 0 1
0.0080363220 0.0370304730 0 1
0.0087916870 0.0378586660 0 1
0.0092204620 0.0382911280 0 1
0.0092916950 0.0383015370 0 1
0.0090067650 0.0379013300 0 1
0.0084008910 0.0371374780 0 1
0.0075417910 0.0360883190 0 1
0.0065216060 0.0348564930 0 1
0.0054418790 0.0335586650 0 1
0.0043973610 0.0323132210 0 1
0.0034659140 0.0312276570 0 1
0.0027059670 0.0303868820 0 1
0.0021571090 0.0298436960 0 0
0.0018402370 0.0296135860 0 0
0.0017573640 0.0296757280 0 0
0.0018919640 0.0299795780 0 0
0.0022096150 0.0304542280 0 1
0.0026585080 0.0310179580 0 1
0.0031700580 0.0315867770 0 1
0.0036609340 0.0320814520 0 1
0.0040398770 0.0324334400 0 1
0.0042215590 0.0325907730 0 1
0.0041440190 0.0325236520 0 1
0.0037826650 0.0322279740 0 1
0.0031553990 0.0317254650 0 1
0.0023172900 0.0310606230 0 1
0.0013486210 0.0302959390 0 1
0.0003429250 0.0295066610 0 0
-0.0006023720 0.0287741870 0 0
-0.0013953240 0.0281762030 0 0
-0.0019601200 0.0277744710 0 0
-0.0022459700 0.0276047260 0 0
-0.0022307550 0.0276728810 0 0
-0.0019189510 0.0279577480 0 0
-0.0013366760 0.0284167670 0 0
-0.0005284010 0.0289914590 0 0
0.0004436080 0.0296124750 0 0
0.0015015190 0.0302059480 0 1
0.0025592330 0.0307012360 0 1
0.0035319870 0.0310380350 0 1
0.0043436730 0.0311708680 0 1
0.0049310070 0.0310709460 0 1
0.0052469980 0.0307271600 0 1
0.0052663890 0.0301476000 0 1
0.0049931260 0.0293612010 0 0
0.0044658400 0.0284179850 0 0
0.0037560270 0.0273864700 0 0
0.0029582810 0.0263480060 0 0
0.0021774240 0.0253892050 0 0
0.0015168710 0.0245940480 0 0
0.0010691620 0.0240366510 0 0
0.0009082270 0.0237749790 0 0
0.0010814130 0.0238453300 0 0
0.0016002340 0.0242575590 0 0
0.0024341770 0.0249913330 0 0
0.0035123190 0.0259943220 0 0
0.0047320220 0.0271837130 0 0
0.0059719380 0.0284524960 0 0
0.0071072670 0.0296810480 0 0
0.0080246580 0.0307522990 0 1
0.0086337510 0.0315663630 0 1
0.0088733880 0.0320505010 0 1
0.0087134490 0.0321633120 0 1
0.0081561530 0.0318952830 0 1
0.0072389680 0.0312682170 0 1
0.0060356110 0.0303339510 0 1
0.0046504600 0.0291711040 0 0
0.0032070220 0.0278789990 0 0
0.0018346600 0.0265689390 0 0
0.0006556520 0.0253532440 0 0
-0.0002270870 0.0243330700 0 0
-0.0007398420 0.0235875690 0 0
-0.0008432620 0.0231667340 0 0
-0.0005327360 0.0230880180 0 0
0.0001640840 0.0233354740 0 0
0.0011902430 0.0238610030 0 0
0.0024621150 0.0245886860 0 0
0.0038737700 0.0254235040 0 0
0.0053055580 0.0262643910 0 0
0.0066358950 0.0270190140 0 0
0.0077525960 0.0276157110 0 0
0.0085627360 0.0280087280 0 0
0.0090018200 0.0281763690 0 0
0.0090401690 0.0281152780 0 0
0.0086844130 0.0278355190 0 0
0.0079768970 0.0273602270 0 0
0.0069961770 0.0267300060 0 0
0.0058556270 0.0260077740 0 0
0.0046941820 0.0252785040 0 0
0.0036572540 0.0246413840 0 0
0.0028726410 0.0241964910 0 0
0.0024303510 0.0240301970 0 0
0.0023722390 0.0242022540 0 0
0.0026908560 0.0247359760 0 0
0.0033344990 0.0256127850 0 0
0.0042166190 0.0267721030 0 0
0.0052283910 0.0281171360 0 0
0.0062538540 0.0295269260 0 0
0.0071856310 0.0308728370 0 1
0.0079356170 0.0320349280 0 1
0.0084366760 0.0329145200 0 1
0.0086394250 0.0334424520 0 1
0.0085122240 0.0335843240 0 1
0.0080468630 0.0333433450 0 1
0.0072636840 0.0327597030 0 1
0.0062090230 0.0319052600 0 1
0.0049469000 0.0308743440 0 1
0.0035531500 0.0297727730 0 0
0.0021148980 0.0287067380 0 0
0.0007299410 0.0277731170 0 0
-0.0005003650 0.0270529850 0 0
-0.0014849960 0.0266082030 0 0
-0.0021573640 0.0264786360 0 0
-0.0024823980 0.0266786740 0 0
-0.0024569890 0.0271943630 0 0
-0.0021100920 0.0279823380 0 0
-0.0015037170 0.0289705860 0 0
-0.0007278170 0.0300623260 0 1
0.0001141640 0.0311451060 0 1
0.0009216120 0.0321048000 0 1
0.0016069560 0.0328412200 0 1
0.0021007340 0.0332813550 0 1
0.0023566970 0.0333875510 0 1
0.0023586630 0.0331598370 0 1
0.0021262430 0.0326331210 0 1
0.0017145340 0.0318710510 0 1
0.0012050010 0.0309582900 0 1
0.0006898090 0.0299915530 0 0
0.0002551230 0.0290690350 0 0
-0.0000315784 0.0282792480 0 0
-0.0001278220 0.0276917560 0 0
-0.0000163240 0.0273516700 0 0
0.0002991720 0.0272779950 0 0
0.0007995060 0.0274645530 0 0
0.0014536430 0.0278820510 0 0
0.0022188040 0.0284808170 0 0
0.0030397370 0.0291946350 0 0
0.0038506970 0.0299457710 0 0
0.0045807830 0.0306506730 0 1
0.0051609640 0.0312260830 0 1
0.0055321950 0.0315961820 0 1
0.0056540970 0.0317015010 0 1
0.0055118760 0.0315084070 0 1
0.0051194980 0.0310161190 0 1
0.0045187270 0.0302587580 0 1
0.0037737350 0.0293019150 0 0
0.0029621360 0.0282348840 0 0
0.0021663090 0.0271605430 0 0
0.0014676090 0.0261843630 0 0
0.0009408730 0.0254028030 0 0
0.0006463280 0.0248908520 0 0
0.0006211670 0.0246897730 0 0
0.0008758030 0.0247989060 0 0
0.0013963410 0.0251764100 0 0
0.0021488070 0.0257495440 0 0
0.0030803050 0.0264296010 0 0
0.0041183730 0.0271259050 0 0
0.0051734320 0.0277560820 0 0
0.0061465940 0.0282521380 0 0
0.0069417030 0.0285631770 0 0
0.0074788840 0.0286562720 0 0
0.0077051480 0.0285168030 0 0
0.0075977400 0.0281488960 0 0
0.0071605110 0.0275757310 0 0
0.0064186630 0.0268384740 0 0
0.0054171620 0.0259927800 0 0
0.0042223340 0.0251032060 0 0
0.0029203690 0.0242370560 0 0
0.0016090000 0.0234594860 0 0
0.0003875040 0.0228313830 0 0
-0.0006490140 0.0224093900 0 0
-0.0014146630 0.0222446030 0 0
-0.0018444730 0.0223769390 0 0
-0.0019111630 0.0228263540 0 0
-0.0016355520 0.0235855940 0 0
-0.0010819640 0.0246181830 0 0
-0.0003432080 0.0258614000 0 0
0.0004740910 0.0272318940 0 0
0.0012603330 0.0286324480 0 0
0.0019128840 0.0299598360 0 0
0.0023457730 0.0311140980 0 1
0.0024968520 0.0320085070 0 1
0.0023311430 0.0325784300 0 1
0.0018415410 0.0327876920 0 1
0.0010486910 0.0326320460 0 1
0.0000002552 0.0321395030 0 1
-0.0012319430 0.0313673840 0 1
-0.0025591730 0.0303965470 0 1
-0.0038875610 0.0293240350 0 0
-0.0051294430 0.0282550300 0 0
-0.0062083720 0.0272936930 0 0
-0.0070590120 0.0265328550 0 0
-0.0076295290 0.0260438860 0 0
-0.0078902770 0.0258683470 0 0
-0.0078441950 0.0260125150 0 0
-0.0075320990 0.0264457660 0 0
-0.0070302540 0.0271037110 0 0
-0.0064412360 0.0278963090 0 0
-0.0058799160 0.0287198970 0 0
-0.0054558620 0.0294709370 0 0
-0.0052544040 0.0300586970 0 1
-0.0053222410 0.0304144020 0 1
-0.0056641270 0.0304960040 0 1
-0.0062499540 0.0302900120 0 1
-0.0070246980 0.0298127050 0 0
-0.0079162390 0.0291112660 0 0
-0.0088418970 0.0282630060 0 0
-0.0097151830 0.0273700930 0 0
-0.0104527600 0.0265486880 0 0
-0.0109813330 0.0259139400 0 0
-0.0112436870 0.0255643710 0 0
-0.0112020120 0.0255693160 0 0
-0.0108376540 0.0259610400 0 0
-0.0101498460 0.0267317070 0 0
-0.0091581160 0.0278354440 0 0
-0.0079095750 0.0291949190 0 0
-0.0064851840 0.0307103920 0 1
-0.0049967410 0.0322695730 0 1
-0.0035728390 0.0337580720 0 1
-0.0023404540 0.0350699130 0 1
-0.0014101510 0.0361165540 0 1
-0.0008671500 0.0368331560 0 1
-0.0007654140 0.0371819360 0 1
-0.0011217770 0.0371532810 0 1
-0.0019095160 0.0367659660 0 1
-0.0030548770 0.0360674980 0 1
-0.0044433050 0.0351339580 0 1
-0.0059367680 0.0340669530 0 1
-0.0073931150 0.0329857310 0 1
-0.0086784690 0.0320151770 0 1
-0.0096743050 0.0312718910 0 1
-0.0102858270 0.0308499610 0 1
-0.0104534000 0.0308078360 0 1
-0.0101638980 0.0311591270 0 1
-0.0094565780 0.0318707490 0 1
-0.0084177850 0.0328694800 0 1
-0.0071644520 0.0340541250 0 1
-0.0058245350 0.0353087390 0 1
-0.0045227180 0.0365139700 0 1
-0.0033727420 0.0375564510 0 1
-0.0024725730 0.0383376470 0 1
-0.0018983100 0.0387828570 0 1
-0.0016959520 0.0388490940 0 1
-0.0018754850 0.0385296900 0 1
-0.0024130650 0.0378546850 0 1
-0.0032596330 0.0368875980 0 1
-0.0043472650 0.0357194180 0 1
-0.0055894860 0.0344601030 0 1
-0.0068818900 0.0332281920 0 1
-0.0081096150 0.0321398160 0 1
-0.0091597510 0.0312978390 0 1
-0.0099329260 0.0307814470 0 1
-0.0103526990 0.0306372930 0 1
-0.0103751690 0.0308737660 0 1
-0.0099987370 0.0314594330 0 1
-0.0092695370 0.0323260400 0 1
-0.0082780310 0.0333760820 0 1
-0.0071461010 0.0344942000 0 1
-0.0060077660 0.0355607230 0 1
-0.0049887070 0.0364649860 0 1
-0.0041904470 0.0371161580 0 1
-0.0036825590 0.0374500200 0 1
-0.0035004120 0.0374318840 0 1
-0.0036430620 0.0370573900 0 1
-0.0040716610 0.0363524350 0 1
-0.0047142860 0.0353715790 0 1
-0.0054784570 0.0341935540 0 1
-0.0062648830 0.0329140940 0 1
-0.0069761130 0.0316380640 0 1
-0.0075197610 0.0304718140 0 1
-0.0078115600 0.0295146600 0 0
-0.0077837870 0.0288489970 0 0
-0.0073970910 0.0285307010 0 0
-0.0066473160 0.0285821540 0 0
-0.0055633350 0.0289888990 0 0
-0.0042009680 0.0296995230 0 0
-0.0026398530 0.0306288090 0 1
-0.0009837020 0.0316653210 0 1
0.0006420440 0.0326841690 0 1
0.0021002180 0.0335631810 0 1
0.0032584120 0.0341982910 0 1
0.0040069300 0.0345142930 0 1
0.0042733140 0.0344704290 0 1
0.0040304410 0.0340631600 0 1
0.0032974490 0.0333272550 0 1
0.0021337370 0.0323335190 0 1
0.0006278050 0.0311811570 0 1
-0.0011133040 0.0299851830 0 0
-0.0029686600 0.0288618130 0 0
-0.0048050030 0.0279154360 0 0
-0.0064832240 0.0272293760 0 0
-0.0078732390 0.0268604800 0 0
-0.0088725390 0.0268361550 0 0
-0.0094190980 0.0271529470 0 0
-0.0094934060 0.0277769500 0 0
-0.0091145050 0.0286464650 0 0
-0.0083380830 0.0296766430 0 0
-0.0072562850 0.0307660310 0 1
-0.0059923270 0.0318050200 0 1
-0.0046869330 0.0326857330 0 1
-0.0034798900 0.0333126150 0 1
-0.0024909360 0.0336128630 0 1
-0.0018033100 0.0335450470 0 1
-0.0014539540 0.0331037940 0 1
-0.0014335080 0.0323195920 0 1
-0.0016945080 0.0312545630 0 1
-0.0021620490 0.0299959620 0 0
-0.0027428120 0.0286486690 0 0
-0.0033335220 0.0273263480 0 0
-0.0038315990 0.0261402490 0 0
-0.0041478870 0.0251862060 0 0
-0.0042180440 0.0245325370 0 0
-0.0040091420 0.0242120170 0 0
-0.0035209950 0.0242194790 0 0
-0.0027834230 0.0245146890 0 0
-0.0018496270 0.0250299520 0 0
-0.0007866140 0.0256820720 0 0
0.0003324170 0.0263863840 0 0
0.0014285470 0.0270680290 0 0
0.0024121880 0.0276664480 0 0
0.0031820150 0.0281337420 0 0
0.0036364330 0.0284324660 0 0
0.0036960050 0.0285377310 0 0
0.0033249270 0.0284426210 0 0
0.0025410400 0.0281622570 0 0
0.0014130060 0.0277337360 0 0
0.0000487331 0.0272127280 0 0
-0.0014205290 0.0266681800 0 0
-0.0028568420 0.0261754330 0 0
-0.0041306720 0.0258077800 0 0
-0.0051333530 0.0256271400 0 0
-0.0057863030 0.0256754350 0 0
-0.0060465930 0.0259687370 0 0
-0.0059095330 0.0264953120 0 0
-0.0054087540 0.0272168290 0 0
-0.0046125660 0.0280717120 0 0
-0.0036152170 0.0289805960 0 0
-0.0025244860 0.0298542230 0 0
-0.0014491720 0.0306035260 0 1
-0.0004891030 0.0311504760 0 1
0.0002715990 0.0314375800 0 1
0.0007687730 0.0314341380 0 1
0.0009617290 0.0311385500 0 1
0.0008365090 0.0305775090 0 1
0.0004067680 0.0298028220 0 0
-0.0002891330 0.0288853760 0 0
-0.0011927630 0.0279062400 0 0
-0.0022288590 0.0269472350 0 0
-0.0033072480 0.0260837310 0 0
-0.0043265350 0.0253801110 0 0
-0.0051825700 0.0248860790 0 0
-0.0057818440 0.0246323830 0 0
-0.0060559950 0.0246264330 0 0
-0.0059723160 0.0248495840 0 0
-0.0055381290 0.0252581470 0 0
-0.0047991810 0.0257888510 0 0
-0.0038306550 0.0263669280 0 0
-0.0027211810 0.0269140310 0 0
-0.0015571860 0.0273549540 0 0
-0.0004153750 0.0276231980 0 0
0.0006370870 0.0276651290 0 0
0.0015396130 0.0274432600 0 0
0.0022359570 0.0269399490 0 0
0.0026758880 0.0261608790 0 0
0.0028231050 0.0251361040 0 0
0.0026667360 0.0239182020 0 0
0.0022298650 0.0225791590 0 0
0.0015708230 0.0212069330 0 0
0.0007780330 0.0199013290 0 0
-0.0000402081 0.0187678610 0 0
-0.0007712450 0.0179078900 0 0
-0.0013164040 0.0174052340 0 0
-0.0016060720 0.0173128340 0 0
-0.0016072870 0.0176440360 0 0
-0.0013241110 0.0183704450 0 0
-0.0007935130 0.0194259630 0 0
-0.0000797040 0.0207159610 0 0
0.0007315960 0.0221296470 0 0
0.0015396430 0.0235527670 0 0
0.0022373360 0.0248784940 0 0
0.0027222900 0.0260162500 0 0
0.0029090760 0.0268990980 0 0
0.0027411260 0.0274897900 0 0
0.0022004270 0.0277843580 0 0
0.0013120610 0.0278120270 0 0
0.0001414650 0.0276312720 0 0
-0.0012143090 0.0273227740 0 0
-0.0026378830 0.0269804770 0 0
-0.0040037630 0.0267015140 0 0
-0.0051920660 0.0265750450 0 0
-0.0061036470 0.0266708600 0 0
-0.0066735060 0.0270302860 0 0
-0.0068771390 0.0276617640 0 0
-0.0067271420 0.0285414810 0 0
-0.0062648040 0.0296178780 0 0
-0.0055550160 0.0308181990 0 1
-0.0046858010 0.0320554740 0 1
-0.0037648590 0.0332357020 0 1
-0.0029071050 0.0342660040 0 1
-0.0022162050 0.0350635020 0 1
-0.0017681590 0.0355625760 0 1
-0.0016030090 0.0357182140 0 1
-0.0017259460 0.0355065400 0 1
-0.0021148810 0.0349258680 0 1
-0.0027291300 0.0339991290 0 1
-0.0035147070 0.0327756420 0 1
-0.0044055870 0.0313304290 0 1
-0.0053232920 0.0297601920 0 0
-0.0061781330 0.0281754890 0 0
-0.0068750280 0.0266902630 0 0
-0.0073240300 0.0254116570 0 0
-0.0074519610 0.0244321270 0 0
-0.0072111960 0.0238229070 0 0
-0.0065849680 0.0236270840 0 0
-0.0055910280 0.0238530230 0 0
-0.0042848920 0.0244709900 0 0
-0.0027611650 0.0254146050 0 0
-0.0011492890 0.0265864360 0 0
0.0003985060 0.0278667190 0 0
0.0017257070 0.0291246110 0 0
0.0026939470 0.0302317640 0 1
0.0032057790 0.0310778060 0 1
0.0032212510 0.0315853790 0 1
0.0027619950 0.0317206670 0 1
0.0019025300 0.0314964510 0 1
0.0007541750 0.0309674690 0 1
-0.0005524930 0.0302201180 0 1
-0.0018833520 0.0293591790 0 0
-0.0031132570 0.0284939880 0 0
-0.0041349850 0.0277260620 0 0
-0.0048655480 0.0271394300 0 0
-0.0052515860 0.0267937600 0 0
-0.0052740900 0.0267197920 0 0
-0.0049508880 0.0269167980 0 0
-0.0043351480 0.0273524940 0 0
-0.0035083530 0.0279662490 0 0
-0.0025670490 0.0286755530 0 0
-0.0016070460 0.0293844820 0 0
-0.0007129120 0.0299930920 0 0
0.0000437434 0.0304075860 0 1
0.0006030540 0.0305508220 0 1
0.0009203900 0.0303714550 0 1
0.0009740510 0.0298498580 0 0
0.0007708570 0.0290005920 0 0
0.0003461570 0.0278723130 0 0
-0.0002405390 0.0265451680 0 0
-0.0009117930 0.0251246080 0 0
-0.0015789810 0.0237305790 0 0
-0.0021503260 0.0224830180 0 0
-0.0025408870 0.0214872840 0 0
-0.0026828680 0.0208231760 0 0
-0.0025340530 0.0205385680 0 0
-0.0020832790 0.0206469050 0 0
-0.0013518470 0.0211277660 0 0
-0.0003896450 0.0219299250 0 0
0.0007331760 0.0229762230 0 0
0.0019355850 0.0241699980 0 0
0.0031329520 0.0254036300 0 0
0.0042412120 0.0265691460 0 0
0.0051788360 0.0275691010 0 0
0.0058693170 0.0283256990 0 0
0.0062470510 0.0287868590 0 0
0.0062670740 0.0289285150 0 0
0.0059160540 0.0287533120 0 0
0.0052201150 0.0282873040 0 0
0.0042452610 0.0275767730 0 0
0.0030898350 0.0266856900 0 0
0.0018731490 0.0256922100 0 0
0.0007241510 0.0246832590 0 0
-0.0002306420 0.0237478870 0 0
-0.0008824960 0.0229694890 0 0
-0.0011579830 0.0224167380 0 0
-0.0010336210 0.0221349600 0 0
-0.0005423480 0.0221402430 0 0
0.0002319750 0.0224170160 0 0
0.0011719890 0.0229192570 0 0
0.0021500130 0.0235760160 0 0
0.0030491800 0.0243009200 0 0
0.0037788280 0.0250029900 0 0
0.0042833070 0.0255960940 0 0
0.0045431610 0.0260068330 0 0
0.0045679420 0.0261814710 0 0
0.0043827970 0.0260911630 0 0
0.0040144710 0.0257342050 0 0
0.0034831850 0.0251351160 0 0
0.0028038530 0.0243415830 0 0
0.0019953910 0.0234208110 0 0
0.0010925320 0.0224560550 0 0
0.0001528020 0.0215425550 0 0
-0.0007462270 0.0207808470 0 0
-0.0015188910 0.0202656460 0 0
-0.0020875600 0.0200710810 0 0
-0.0023969900 0.0202368120 0 0
-0.0024237740 0.0207605710 0 0
-0.0021808750 0.0215988700 0 0
-0.0017168890 0.0226732460 0 0
-0.0011087420 0.0238788660 0 0
-0.0004491930 0.0250948490 0 0
0.0001661710 0.0261968000 0 0
0.0006487110 0.0270707820 0 0
0.0009243320 0.0276265410 0 0
0.0009421980 0.0278078100 0 0
0.0006833670 0.0275978800 0 0
0.0001628210 0.0270191450 0 0
-0.0005780260 0.0261273360 0 0
-0.0014826600 0.0250034860 0 0
-0.0024883610 0.0237464380 0 0
-0.0035329360 0.0224658090 0 0
-0.0045605870 0.0212736360 0 0
-0.0055237830 0.0202742450 0 0
-0.0063794360 0.0195538650 0 0
-0.0070849040 0.0191719580 0 0
-0.0076010420 0.0191552940 0 0
-0.0079027720 0.0194951440 0 0
-0.0079905990 0.0201478950 0 0
-0.0078952620 0.0210393750 0 0
-0.0076724770 0.0220725180 0 0
-0.0073915730 0.0231373270 0 0
-0.0071234820 0.0241215090 0 0
-0.0069308880 0.0249201800 0 0
-0.0068625150 0.0254443760 0 0
-0.0069527190 0.0256291580 0 0
-0.0072232890 0.0254409240 0 0
-0.0076816900 0.0248821860 0 0
-0.0083141310 0.0239923860 0 0
-0.0090782980 0.0228443860 0 0
-0.0099022350 0.0215373100 0 0
-0.0106933850 0.0201872470 0 0
-0.0113570990 0.0189166360 0 0
-0.0118160410 0.0178420770 0 0
-0.0120197800 0.0170612740 0 0
-0.0119445610 0.0166419870 0 0
-0.0115924240 0.0166155020 0 0
-0.0109933170 0.0169744680 0 0
-0.0102049980 0.0176738010 0 0
-0.0093064910 0.0186346790 0 0
-0.0083865220 0.0197522850 0 0
-0.0075305140 0.0209070470 0 0
-0.0068091600 0.0219781430 0 0
-0.0062708590 0.0228574430 0 0
-0.0059393730 0.0234616720 0 0
-0.0058163170 0.0237409100 0 0
-0.0058863090 0.0236820530 0 0
-0.0061226170 0.0233066750 0 0
-0.0064919920 0.0226644370 0 0
-0.0069575780 0.0218242840 0 0
-0.0074798860 0.0208654040 0 0
-0.0080173500 0.0198694490 0 0
-0.0085275760 0.0189150530 0 0
-0.0089686690 0.0180742600 0 0
-0.0092998230 0.0174091060 0 0
-0.0094819640 0.0169669140 0 0
-0.0094802490 0.0167751840 0 0
-0.0092692190 0.0168381890 0 0
-0.0088391670 0.0171358000 0 0
-0.0082004890 0.0176240150 0 0
-0.0073838740 0.0182378270 0 0
-0.0064379880 0.0188973600 0 0
-0.0054268330 0.0195165220 0 0
-0.0044261080 0.0200121580 0 0
-0.0035181690 0.0203123650 0 0
-0.0027864980 0.0203633560 0 0
-0.0023085310 0.0201340140 0 0
-0.0021451290 0.0196183880 0 0
-0.0023292550 0.0188375740 0 0
-0.0028579580 0.0178413080 0 0
-0.0036888740 0.0167074270 0 0
-0.0047424920 0.0155370270 0 0
-0.0059126690 0.0144448250 0 0
-0.0070828940 0.0135463280 0 0
-0.0081410710 0.0129444330 0 0
-0.0089898330 0.0127179560 0 0
-0.0095552020 0.0129139000 0 0
-0.0097953640 0.0135435020 0 0
-0.0097069140 0.0145801790 0 0
-0.0093249100 0.0159587330 0 0
-0.0087162590 0.0175781080 0 0
-0.0079686970 0.0193099230 0 0
-0.0071775830 0.0210121270 0 0
-0.0064327970 0.0225449090 0 0
-0.0058094570 0.0237855200 0 0
-0.0053651130 0.0246396390 0 0
-0.0051417250 0.0250487680 0 0
-0.0051671850 0.0249940850 0 0
-0.0054520980 0.0244967340 0 0
-0.0059816280 0.0236148880 0 0
-0.0067060690 0.0224389400 0 0
-0.0075361700 0.0210852040 0 0
-0.0083492310 0.0196869010 0 0
-0.0090073360 0.0183817600 0 0
-0.0093819370 0.0172974820 0 0
-0.0093759840 0.0165375500 0 0
-0.0089376280 0.0161700660 0 0
-0.0080644020 0.0162211780 0 0
-0.0068000190 0.0166732860 0 0
-0.0052262640 0.0174680260 0 0
-0.0034516500 0.0185138080 0 0
-0.0015984280 0.0196962880 0 0
0.0002098150 0.0208902980 0 0
0.0018583250 0.0219732120 0 0
0.0032490330 0.0228386800 0 0
0.0043067100 0.0234077140 0 0
0.0049841710 0.0236353500 0 0
0.0052663200 0.0235135140 0 0
0.0051718710 0.0230709620 0 0
0.0047528980 0.0223705710 0 0
0.0040929130 0.0215040370 0 0
0.0033012090 0.0205830550 0 0
0.0025006730 0.0197261100 0 0
0.0018114530 0.0190428330 0 0
0.0013372660 0.0186202360 0 0
0.0011576290 0.0185138480 0 0
0.0013222380 0.0187438260 0 0
0.0018431720 0.0192953260 0 0
0.0026866110 0.0201228490 0 0
0.0037701970 0.0211571860 0 0
0.0049712650 0.0223124110 0 0
0.0061456070 0.0234917430 0 0
0.0071503390 0.0245931180 0 0
0.0078635060 0.0255159950 0 0
0.0081968010 0.0261702790 0 0
0.0081018320 0.0264867610 0 0
0.0075727400 0.0264272570 0 0
0.0066475000 0.0259923710 0 0
0.0054065310 0.0252242860 0 0
0.0039652110 0.0242023220 0 0
0.0024596740 0.0230321560 0 0
0.0010290250 0.0218325700 0 0
-0.0002018430 0.0207228660 0 0
-0.0011354250 0.0198117890 0 0
-0.0017083880 0.0191875590 0 0
-0.0018908990 0.0189093320 0 0
-0.0016803040 0.0190014730 0 0
-0.0010944270 0.0194514420 0 0
-0.0001696590 0.0202113150 0 0
0.0010369860 0.0212030390 0 0
0.0024475030 0.0223270170 0 0
0.0039667080 0.0234723110 0 0
0.0054880520 0.0245265620 0 0
0.0069006470 0.0253849860 0 0
0.0080989480 0.0259590920 0 0
0.0089944320 0.0261853990 0 0
0.0095266770 0.0260325770 0 0
0.0096717380 0.0255048360 0 0
0.0094464030 0.0246406320 0 0
0.0089071100 0.0235073760 0 0
0.0081425060 0.0221939960 0 0
0.0072598890 0.0208034660 0 0
0.0063687020 0.0194459900 0 0
0.0055658400 0.0182316790 0 0
0.0049254680 0.0172611900 0 0
0.0044936580 0.0166145080 0 0
0.0042876250 0.0163401570 0 0
0.0042987040 0.0164477490 0 0
0.0044971240 0.0169058320 0 0
0.0048371350 0.0176458730 0 0
0.0052623380 0.0185721460 0 0
0.0057116150 0.0195751380 0 0
0.0061259290 0.0205450080 0 0
0.0064549770 0.0213830950 0 0
0.0066611770 0.0220108110 0 0
0.0067192960 0.0223751460 0 0
0.0066129260 0.0224502290 0 0
0.0063315150 0.0222358380 0 0
0.0058722400 0.0217549800 0 0
0.0052473840 0.0210525190 0 0
0.0044924160 0.0201946040 0 0
0.0036689150 0.0192661420 0 0
0.0028599590 0.0183638440 0 0
0.0021591560 0.0175853250 0 0
0.0016571500 0.0170171030 0 0
0.0014306500 0.0167240480 0 0
0.0015357050 0.0167412570 0 0
0.0020024740 0.0170689350 0 0
0.0028294190 0.0176714950 0 0
0.0039793730 0.0184818420 0 0
0.0053817960 0.0194103770 0 0
0.0069418560 0.0203568690 0 0
0.0085520080 0.0212227200 0 0
0.0101007010 0.0219213280 0 0
0.0114773180 0.0223852480 0 0
0.0125781250 0.0225707030 0 0
0.0133172660 0.0224608460 0 0
0.0136409820 0.0220675010 0 0
0.0135395310 0.0214299280 0 0
0.0130511610 0.0206107200 0 0
0.0122555730 0.0196900780 0 0
0.0112599290 0.0187584340 0 0
0.0101829640 0.0179072020 0 0
0.0091404590 0.0172192620 0 0
0.0082334890 0.0167613410 0 0
0.0075405250 0.0165788530 0 0
0.0071126570 0.0166922820 0 0
0.0069699230 0.0170946890 0 0
0.0070991550 0.0177512930 0 0
0.0074562320 0.0186024690 0 0
0.0079745440 0.0195699750 0 0
0.0085779970 0.0205650520 0 0
0.0091932300 0.0214975550 0 0
0.0097552820 0.0222857040 0 0
0.0102068270 0.0228653160 0 0
0.0104975160 0.0231968340 0 0
0.0105887110 0.0232692520 0 0
0.0104612940 0.0231008060 0 0
0.0101196570 0.0227361920 0 0
0.0095889100 0.0222405640 0 0
0.0089095450 0.0216918580 0 0
0.0081338250 0.0211729550 0 0
0.0073227600 0.0207640840 0 0
0.0065414320 0.0205357470 0 0
0.0058533450 0.0205431450 0 0
0.0053146230 0.0208226140 0 0
0.0049679020 0.0213894800 0 0
0.0048369430 0.0222360160 0 0
0.0049237420 0.0233288170 0 0
0.0052084990 0.0246068870 0 0
0.0056517780 0.0259830660 0 0
0.0061989280 0.0273505350 0 0
0.0067869880 0.0285939000 0 0
0.0073520420 0.0296027050 0 0
0.0078344150 0.0302846150 0 1
0.0081822870 0.0305757130 0 1
0.0083562010 0.0304464360 0 1
0.0083351760 0.0299034910 0 0
0.0081225970 0.0289891120 0 0
0.0077490970 0.0277781160 0 0
0.0072701980 0.0263720270 0 0
0.0067581430 0.0248897220 0 0
0.0062899950 0.0234556820 0 0
0.0059358180 0.0221879060 0 0
0.0057496770 0.0211870430 0 0
0.0057636820 0.0205273910 0 0
0.0059841150 0.0202499550 0 0
0.0063902800 0.0203580310 0 0
0.0069371390 0.0208165430 0 0
0.0075601900 0.0215563500 0 0
0.0081803830 0.0224832040 0 0
0.0087098750 0.0234895310 0 0
0.0090610660 0.0244662570 0 0
0.0091590050 0.0253124550 0 0
0.0089542540 0.0259427770 0 0
0.0084322680 0.0262937250 0 0
0.0076155910 0.0263287390 0 0
0.0065573530 0.0260410890 0 0
0.0053296980 0.0254539390 0 0
0.0040141270 0.0246178130 0 0
0.0026970490 0.0236062630 0 0
0.0014672390 0.0225100050 0 0
0.0004112400 0.0214289680 0 0
-0.0003929840 0.0204624690 0 0
-0.0008828020 0.0196990470 0 0
-0.0010185240 0.0192074930 0 0
-0.0007914150 0.0190297690 0 0
-0.0002291020 0.0191764890 0 0
0.0006046750 0.0196256910 0 0
0.0016167740 0.0203250980 0 0
0.0026963310 0.0211972870 0 0
0.0037289460 0.0221469610 0 0
0.0046115150 0.0230696720 0 0
0.0052657530 0.0238615660 0 0
0.0056474700 0.0244297930 0 0
0.0057485120 0.0247028130 0 0
0.0055902760 0.0246391870 0 0
0.0052117980 0.0242332130 0 0
0.0046594320 0.0235157410 0 0
0.0039843110 0.0225491280 0 0
0.0032451510 0.0214177980 0 0
0.0025068530 0.0202177240 0 0
0.0018318320 0.0190471630 0 0
0.0012721110 0.0179992820 0 0
0.0008687370 0.0171563800 0 0
0.0006546500 0.0165846460 0 0
0.0006536570 0.0163287010 0 0
0.0008744450 0.0164069660 0 0
0.0013036270 0.0168092450 0 0
0.0019009830 0.0174964610 0 0
0.0025993890 0.0184023850 0 0
0.0033124610 0.0194387040 0 0
0.0039493490 0.0205043090 0 0
0.0044300260 0.0214971510 0 0
0.0046940350 0.0223258120 0 0
0.0047024270 0.0229192520 0 0
0.0044381480 0.0232342450 0 0
0.0039082690 0.0232595830 0 0
0.0031462150 0.0230161700 0 0
0.0022103520 0.0225537670 0 0
0.0011774980 0.0219460100 0 0
0.0001331880 0.0212840960 0 0
-0.0008378470 0.0206688240 0 0
-0.0016589680 0.0202009430 0 0
-0.0022671770 0.0199700140 0 0
-0.0026182560 0.0200429120 0 0
-0.0026914330 0.0204543630 0 0
-0.0024915510 0.0212018050 0 0
-0.0020475300 0.0222454420 0 0
-0.0014087670 0.0235129240 0 0
-0.0006411940 0.0249074400 0 0
0.0001775140 0.0263177760 0 0
0.0009642760 0.0276289270 0 0
0.0016377080 0.0287321650 0 0
0.0021248890 0.0295342170 0 0
0.0023670580 0.0299656310 0 0
0.0023238650 0.0299877900 0 0
0.0019769130 0.0295971720 0 0
0.0013334230 0.0288260650 0 0
0.0004285880 0.0277400880 0 0
-0.0006757630 0.0264328740 0 0
-0.0018960850 0.0250176420 0 0
-0.0031337870 0.0236158740 0 0
-0.0042833920 0.0223449690 0 0
-0.0052437760 0.0213073000 0 0
-0.0059323100 0.0205820610 0 0
-0.0062969110 0.0202203650 0 0
-0.0063204180 0.0202433570 0 0
-0.0060181370 0.0206421720 0 0
-0.0054337510 0.0213787110 0 0
-0.0046358140 0.0223878030 0 0
-0.0037130370 0.0235817200 0 0
-0.0027661760 0.0248569210 0 0
-0.0018963930 0.0261025140 0 0
-0.0011927750 0.0272106840 0 0
-0.0007237100 0.0280889850 0 0
-0.0005347980 0.0286729130 0 0
-0.0006505360 0.0289355320 0 0
-0.0010748680 0.0288909680 0 0
-0.0017893600 0.0285911520 0 0
-0.0027509990 0.0281177100 0 0
-0.0038916580 0.0275706770 0 0
-0.0051205730 0.0270551260 0 0
-0.0063302480 0.0266677770 0 0
-0.0074062640 0.0264858510 0 0
-0.0082424740 0.0265593000 0 0
-0.0087602600 0.0269065280 0 0
-0.0089251340 0.0275136690 0 0
-0.0087532760 0.0283378850 0 0
-0.0083053860 0.0293142800 0 0
-0.0076704180 0.0303636050 0 1
-0.0069450780 0.0313982220 0 1
-0.0062161790 0.0323275040 0 1
-0.0055510700 0.0330653220 0 1
-0.0049959710 0.0335393410 0 1
-0.0045776300 0.0336993950 0 1
-0.0043053040 0.0335232610 0 1
-0.0041736750 0.0330196280 0 1
-0.0041673970 0.0322277910 0 1
-0.0042658030 0.0312135500 0 1
-0.0044452110 0.0300619240 0 1
-0.0046778550 0.0288684090 0 0
-0.0049292850 0.0277299210 0 0
-0.0051569290 0.0267350760 0 0
-0.0053116460 0.0259542890 0 0
-0.0053430620 0.0254323710 0 0
-0.0052073550 0.0251855180 0 0
-0.0048744720 0.0252017390 0 0
-0.0043331440 0.0254434990 0 0
-0.0035943080 0.0258529810 0 0
-0.0026934450 0.0263598300 0 0
-0.0016911990 0.0268892070 0 0
-0.0006712430 0.0273682550 0 0
0.0002661360 0.0277312800 0 0
0.0010162370 0.0279247380 0 0
0.0014859570 0.0279122900 0 0
0.0016079350 0.0276795150 0 0
0.0013486390 0.0272375420 0 0
0.0007113530 0.0266242200 0 0
-0.0002627290 0.0259012700 0 0
-0.0014956020 0.0251473980 0 0
-0.0028800540 0.0244489470 0 0
-0.0042954830 0.0238897420 0 0
-0.0056260040 0.0235413380 0 0
-0.0067720330 0.0234553280 0 0
-0.0076531900 0.0236593720 0 0
-0.0082087040 0.0241568740 0 0
-0.0084012070 0.0249282790 0 0
-0.0082231800 0.0259324250 0 0
-0.0077017660 0.0271081450 0 0
-0.0068988130 0.0283767560 0 0
-0.0059051090 0.0296461390 0 0
-0.0048295750 0.0308172360 0 1
-0.0037853700 0.0317922320 0 1
-0.0028754500 0.0324831060 0 1
-0.0021796780 0.0328208660 0 1
-0.0017447150 0.0327658080 0 1
-0.0015791540 0.0323162490 0 1
-0.0016567350 0.0315119880 0 1
-0.0019253900 0.0304307380 0 1
-0.0023161640 0.0291785650 0 0
-0.0027502980 0.0278769210 0 0
-0.0031472900 0.0266484360 0 0
-0.0034351010 0.0256024070 0 0
-0.0035601280 0.0248216530 0 0
-0.0034938900 0.0243542760 0 0
-0.0032353990 0.0242130440 0 0
-0.0028100390 0.0243809720 0 0
-0.0022657960 0.0248189120 0 0
-0.0016666580 0.0254719360 0 0
-0.0010835760 0.0262738450 0 0
-0.0005849530 0.0271509810 0 0
-0.0002284650 0.0280267060 0 0
-0.0000557788 0.0288267280 0 0
-0.0000915487 0.0294850750 0 0
-0.0003455040 0.0299509440 0 0
-0.0008144530 0.0301955470 0 1
-0.0014831140 0.0302163350 0 1
-0.0023254120 0.0300369430 0 1
-0.0033066680 0.0297037780 0 0
-0.0043842830 0.0292806670 0 0
-0.0055055640 0.0288419810 0 0
-0.0066058230 0.0284644720 0 0
-0.0076113960 0.0282185110 0 0
-0.0084487450 0.0281596540 0 0
-0.0090568410 0.0283220410 0 0
-0.0093989780 0.0287150480 0 0
-0.0094703670 0.0293226700 0 0
-0.0092987890 0.0301040750 0 1
-0.0089390890 0.0309956760 0 1
-0.0084650770 0.0319166340 0 1
-0.0079605520 0.0327776300 0 1
-0.0075084300 0.0334899670 0 1
-0.0071789750 0.0339727350 0 1
-0.0070218660 0.0341582360 0 1
-0.0070640650 0.0339972320 0 1
-0.0073096660 0.0334654160 0 1
-0.0077387850 0.0325706380 0 1
-0.0083074140 0.0313580950 0 1
-0.0089508510 0.0299107110 0 0
-0.0095917090 0.0283438950 0 0
-0.0101521350 0.0267948260 0 0
-0.0105664380 0.0254070970 0 0
-0.0107878680 0.0243128690 0 0
-0.0107871840 0.0236153660 0 0
-0.0105473040 0.0233747520 0 0
-0.0100596710 0.0236000560 0 0
-0.0093244470 0.0242485290 0 0
-0.0083540220 0.0252327880 0 0
-0.0071780750 0.0264346820 0 0
-0.0058476990 0.0277225010 0 0
-0.0044376450 0.0289668020 0 0
-0.0030457010 0.0300518920 0 1
-0.0017850500 0.0308833010 0 1
-0.0007676510 0.0313929560 0 1
-0.0000847259 0.0315427790 0 1
0.0002073680 0.0313265030 0 1
0.0000934370 0.0307695150 0 1
-0.0003999170 0.0299266340 0 0
-0.0012081970 0.0288769960 0 0
-0.0022378540 0.0277152350 0 0
-0.0033791770 0.0265400860 0 0
-0.0045203580 0.0254430610 0 0
-0.0055589440 0.0244990670 0 0
-0.0064080450 0.0237597620 0 0
-0.0069984000 0.0232503810 0 0
-0.0072801540 0.0229705420 0 0
-0.0072269970 0.0228983990 0 0
-0.0068423780 0.0229964870 0 0
-0.0061646180 0.0232173590 0 0
-0.0052664370 0.0235080830 0 0
-0.0042472710 0.0238136270 0 0
-0.0032216030 0.0240790710 0 0
-0.0023074610 0.0242509370 0 0
-0.0016160920 0.0242795670 0 0
-0.0012414310 0.0241241390 0 0
-0.0012484740 0.0237590460 0 0
-0.0016625040 0.0231788970 0 0
-0.0024634250 0.0224008420 0 0
-0.0035883360 0.0214643850 0 0
-0.0049408220 0.0204289000 0 0
-0.0064022490 0.0193688820 0 0
-0.0078420850 0.0183672510 0 0
-0.0091280550 0.0175073620 0 0
-0.0101380480 0.0168644650 0 0
-0.0107732830 0.0164974140 0 0
-0.0109694840 0.0164413650 0 0
-0.0107034970 0.0167021060 0 0
-0.0099950660 0.0172529490 0 0
-0.0089043800 0.0180352860 0 0
-0.0075273720 0.0189635600 0 0
-0.0059906730 0.0199343710 0 0
-0.0044434220 0.0208381620 0 0
-0.0030410930 0.0215713450 0 0
-0.0019233910 0.0220470430 0 0
-0.0011947820 0.0222034170 0 0
-0.0009137560 0.0220093570 0 0
-0.0010902730 0.0214677930 0 0
-0.0016883660 0.0206165410 0 0
-0.0026325750 0.0195259130 0 0
-0.0038180550 0.0182924910 0 0
-0.0051237130 0.0170295180 0 0
-0.0064266730 0.0158550460 0 0
-0.0076142800 0.0148793410 0 0
-0.0085900260 0.0141935800 0 0
-0.0092747790 0.0138614300 0 0
-0.0096094630 0.0139138450 0 0
-0.0095633990 0.0143468540 0 0
-0.0091452980 0.0151225220 0 0
-0.0084084040 0.0161733360 0 0
-0.0074449610 0.0174090530 0 0
-0.0063734850 0.0187242590 0 0
-0.0053236420 0.0200060560 0 0
-0.0044197200 0.0211428920 0 0
-0.0037647490 0.0220350020 0 0
-0.0034299730 0.0226047570 0 0
-0.0034510730 0.0228047780 0 0
-0.0038281620 0.0226230810 0 0
-0.0045273360 0.0220850090 0 0
-0.0054841240 0.0212516690 0 0
-0.0066087080 0.0202146170 0 0
-0.0077916350 0.0190865870 0 0
-0.0089107090 0.0179890940 0 0
-0.0098414330 0.0170395350 0 0
-0.0104710350 0.0163400900 0 0
-0.0107135590 0.0159686950 0 0
-0.0105232260 0.0159719780 0 0
-0.0099024060 0.0163611940 0 0
-0.0088994820 0.0171125290 0 0
-0.0075961480 0.0181715140 0 0
-0.0060915840 0.0194595850 0 0
-0.0044925020 0.0208806220 0 0
-0.0029101560 0.0223269910 0 0
-0.0014579620 0.0236869540 0 0
-0.0002443150 0.0248550060 0 0
0.0006390560 0.0257435940 0 0
0.0011288840 0.0262931010 0 0
0.0011982010 0.0264782350 0 0
0.0008589950 0.0263107120 0 0
0.0001607470 0.0258387100 0 0
-0.0008147300 0.0251427270 0 0
-0.0019619310 0.0243269330 0 0
-0.0031611520 0.0235063640 0 0
-0.0042863220 0.0227920130 0 0
-0.0052131550 0.0222766030 0 0
-0.0058316380 0.0220231410 0 0
-0.0060620390 0.0220578220 0 0
-0.0058690400 0.0223688460 0 0
-0.0052698880 0.0229114560 0 0
-0.0043346260 0.0236166770 0 0
-0.0031768510 0.0244002140 0 0
-0.0019356200 0.0251700230 0 0
-0.0007527950 0.0258334310 0 0
0.0002488610 0.0263052960 0 0
0.0009822290 0.0265175260 0 0
0.0014034880 0.0264280110 0 0
0.0015098100 0.0260260040 0 0
0.0013295490 0.0253327980 0 0
0.0009104940 0.0243987240 0 0
0.0003120960 0.0232982210 0 0
-0.0003962120 0.0221236620 0 0
-0.0011336530 0.0209775490 0 0
-0.0018090820 0.0199631030 0 0
-0.0023281300 0.0191746580 0 0
-0.0026070510 0.0186888510 0 0
-0.0025890310 0.0185563750 0 0
-0.0022545770 0.0187948640 0 0
-0.0016208300 0.0193849960 0 0
-0.0007341280 0.0202714540 0 0
0.0003365570 0.0213683380 0 0
0.0015033680 0.0225673600 0 0
0.0026636250 0.0237476490 0 0
0.0037075050 0.0247871780 0 0
0.0045301480 0.0255757250 0 0
0.0050459950 0.0260276610 0 0
0.0052014560 0.0260914950 0 0
0.0049826260 0.0257540600 0 0
0.0044166660 0.0250398760 0 0
0.0035667790 0.0240077200 0 0
0.0025208370 0.0227456160 0 0
0.0013754090 0.0213643980 0 0
0.0002210700 0.0199895410 0 0
-0.0008640470 0.0187504140 0 0
-0.0018113510 0.0177665970 0 0
-0.0025557270 0.0171335180 0 0
-0.0030337100 0.0169111950 0 0
-0.0031898330 0.0171182550 0 0
-0.0029907010 0.0177310200 0 0
-0.0024399610 0.0186869990 0 0
-0.0015846730 0.0198923670 0 0
-0.0005106190 0.0212320640 0 0
0.0006688900 0.0225800920 0 0
0.0018280210 0.0238091950 0 0
0.0028460930 0.0248015970 0 0
0.0036228600 0.0254610870 0 0
0.0040861880 0.0257235850 0 0
0.0041931800 0.0255633620 0 0
0.0039302270 0.0249947860 0 0
0.0033144740 0.0240706740 0 0
0.0023942110 0.0228773810 0 0
0.0012451260 0.0215260150 0 0
-0.0000373897 0.0201401960 0 0
-0.0013466280 0.0188423260 0 0
-0.0025717090 0.0177409640 0 0
-0.0036053400 0.0169212190 0 0
-0.0043542070 0.0164383260 0 0
-0.0047508860 0.0163138160 0 0
-0.0047650700 0.0165345460 0 0
-0.0044117820 0.0170552590 0 0
-0.0037527280 0.0178044920 0 0
-0.0028873260 0.0186928660 0 0
-0.0019354240 0.0196224550 0 0
-0.0010194430 0.0204958950 0 0
-0.0002532820 0.0212247330 0 0
0.0002623520 0.0217370390 0 0
0.0004467760 0.0219840780 0 0
0.0002534390 0.0219453740 0 0
-0.0003163670 0.0216307080 0 0
-0.0012105670 0.0210778780 0 0
-0.0023339950 0.0203470910 0 0
-0.0035612200 0.0195137910 0 0
-0.0047529070 0.0186605780 0 0
-0.0057752480 0.0178686760 0 0
-0.0065176020 0.0172107130 0 0
-0.0069027380 0.0167462380 0 0
-0.0068896800 0.0165193010 0 0
-0.0064731670 0.0165566320 0 0
-0.0056817980 0.0168658160 0 0
-0.0045750850 0.0174337690 0 0
-0.0032405810 0.0182263050 0 0
-0.0017910670 0.0191898050 0 0
-0.0003583730 0.0202555300 0 0
0.0009189150 0.0213459970 0 0
0.0019122510 0.0223819430 0 0
0.0025206850 0.0232888650 0 0
0.0026852300 0.0240033390 0 0
0.0023950500 0.0244791720 0 0
0.0016829330 0.0246922360 0 0
0.0006146900 0.0246436590 0 0
-0.0007198410 0.0243622290 0 0
-0.0022121150 0.0239050350 0 0
-0.0037398750 0.0233533030 0 0
-0.0051744910 0.0228021690 0 0
-0.0063916600 0.0223468650 0 0
-0.0072859390 0.0220690780 0 0
-0.0077874850 0.0220260530 0 0
-0.0078759030 0.0222437070 0 0
-0.0075846600 0.0227142000 0 0
-0.0069924660 0.0233978550 0 0
-0.0062047920 0.0242286980 0 0
-0.0053340900 0.0251217000 0 0
-0.0044860810 0.0259797620 0 0
-0.0037532060 0.0267008590 0 0
-0.0032117510 0.0271877410 0 0
-0.0029193480 0.0273606120 0 0
-0.0029120280 0.0271693310 0 0
-0.0032013760 0.0266009820 0 0
-0.0037717000 0.0256814460 0 0
-0.0045776670 0.0244719480 0 0
-0.0055450740 0.0230618160 0 0
-0.0065766550 0.0215585830 0 0
-0.0075608840 0.0200768160 0 0
-0.0083810350 0.0187268710 0 0
-0.0089248950 0.0176045670 0 0
-0.0090967930 0.0167829040 0 0
-0.0088318620 0.0163065290 0 0
-0.0081095980 0.0161888150 0 0
-0.0069613290 0.0164112750 0 0
-0.0054677420 0.0169254090 0 0
-0.0037475580 0.0176570840 0 0
-0.0019409170 0.0185134170 0 0
-0.0001902990 0.0193917450 0 0
0.0013778330 0.0201894900 0 0
0.0026669500 0.0208137580 0 0
0.0036184430 0.0211901530 0 0
0.0042131740 0.0212698900 0 0
0.0044659500 0.0210336620 0 0
0.0044163820 0.0204916080 0 0
0.0041227730 0.0196804170 0 0
0.0036597420 0.0186588860 0 0
0.0031134540 0.0175021170 0 0
0.0025705000 0.0162943690 0 0
0.0021035350 0.0151219250 0 0
0.0017611850 0.0140673230 0 0
0.0015678090 0.0132042920 0 0
0.0015307300 0.0125919380 0 0
0.0016466770 0.0122679570 0 0
0.0019028070 0.0122422470 0 0
0.0022746440 0.0124932770 0 0
0.0027246600 0.0129694540 0 0
0.0032040940 0.0135959040 0 0
0.0036593050 0.0142845580 0 0
0.0040392380 0.0149443700 0 0
0.0042981230 0.0154900100 0 0
0.0043938520 0.0158491820 0 0
0.0042884910 0.0159688180 0 0
0.0039537930 0.0158196440 0 0
0.0033785240 0.0153988520 0 0
0.0025742420 0.0147311970 0 0
0.0015783970 0.0138683340 0 0
0.0004536440 0.0128853940 0 0
-0.0007173900 0.0118740430 0 0
-0.0018404810 0.0109329000 0 0
-0.0028194840 0.0101574730 0 0
-0.0035669290 0.0096307480 0 0
-0.0040147310 0.0094144690 0 0
-0.0041225320 0.0095423830 0 0
-0.0038823020 0.0100176390 0 0
-0.0033209520 0.0108143760 0 0
-0.0025019950 0.0118811780 0 0
-0.0015226970 0.0131450090 0 0
-0.0005028490 0.0145161960 0 0
0.0004332560 0.0158952220 0 0
0.0011769880 0.0171812970 0 0
0.0016528810 0.0182819330 0 0
0.0018277470 0.0191222910 0 0
0.0017080910 0.0196528320 0 0
0.0013291310 0.0198538660 0 0
0.0007425010 0.0197361900 0 0
0.0000069653 0.0193382330 0 0
-0.0008178090 0.0187210450 0 0
-0.0016744860 0.0179622610 0 0
-0.0025069770 0.0171494820 0 0
-0.0032565660 0.0163727720 0 0
-0.0038608410 0.0157157620 0 0
-0.0042591450 0.0152456820 0 0
-0.0044022980 0.0150040470 0 0
-0.0042619600 0.0150005230 0 0
-0.0038366040 0.0152120220 0 0
-0.0031531140 0.0155875450 0 0
-0.0022647090 0.0160577890 0 0
-0.0012461770 0.0165471150 0 0
-0.0001860480 0.0169841250 0 0
0.0008236910 0.0173079700 0 0
0.0016965780 0.0174708240 0 0
0.0023562060 0.0174391410 0 0
0.0027382060 0.0171955760 0 0
0.0027953840 0.0167418820 0 0
0.0025077190 0.0161019690 0 0
0.0018913200 0.0153235620 0 0
0.0010002040 0.0144765490 0 0
-0.0000778016 0.0136464380 0 0
-0.0012262750 0.0129234980 0 0
-0.0023064070 0.0123908940 0 0
-0.0031693160 0.0121147640 0 0
-0.0036779960 0.0121363540 0 0
-0.0037348550 0.0124653200 0 0
-0.0033041660 0.0130752310 0 0
-0.0024205630 0.0139039790 0 0
-0.0011828030 0.0148608180 0 0
0.0002632580 0.0158390750 0 0
0.0017480910 0.0167309030 0 0
0.0031033580 0.0174398400 0 0
0.0041841060 0.0178891100 0 0
0.0048869780 0.0180267040 0 0
0.0051630280 0.0178288710 0 0
0.0050219470 0.0173021030 0 0
0.0045249680 0.0164824070 0 0
0.0037671440 0.0154307140 0 0
0.0028551930 0.0142246970 0 0
0.0018898430 0.0129493760 0 0
0.0009578640 0.0116895670 0 0
0.0001323660 0.0105256730 0 0
-0.0005242170 0.0095314680 0 0
-0.0009595130 0.0087714020 0 0
-0.0011340710 0.0082961900 0 0
-0.0010265060 0.0081371700 0 0
-0.0006396340 0.0083006170 0 0
-0.0000048318 0.0087635860 0 0
0.0008187300 0.0094731340 0 0
0.0017496480 0.0103500840 0 0
0.0026924530 0.0112969580 0 0
0.0035486030 0.0122086310 0 0
0.0042294700 0.0129839340 0 0
0.0046658730 0.0135363360 0 0
0.0048110210 0.0138021060 0 0
0.0046409930 0.0137454820 0 0
0.0041570140 0.0133613890 0 0
0.0033877440 0.0126760870 0 0
0.0023883590 0.0117450590 0 0
0.0012368650 0.0106475580 0 0
0.0000293253 0.0094787170 0 0
-0.0011267780 0.0083406950 0 0
-0.0021226800 0.0073337500 0 0
-0.0028609390 0.0065476270 0 0
-0.0032676790 0.0060532190 0 0
-0.0033021420 0.0058945810 0 0
-0.0029618690 0.0060823260 0 0
-0.0022834880 0.0065902060 0 0
-0.0013401610 0.0073565430 0 0
-0.0002341210 0.0082907580 0 0
0.0009177150 0.0092831320 0 0
0.0020014560 0.0102154100 0 0
0.0029202320 0.0109716150 0 0
0.0036012670 0.0114496270 0 0
0.0039975430 0.0115734550 0 0
0.0040868520 0.0113045380 0 0
0.0038707540 0.0106489890 0 0
0.0033756100 0.0096579110 0 0
0.0026560200 0.0084207210 0 0
0.0017973850 0.0070540040 0 0
0.0009126540 0.0056880640 0 0
0.0001307430 0.0044518910 0 0
-0.0004216810 0.0034578740 0 0
-0.0006402280 0.0027891340 0 0
-0.0004597570 0.0024921240 0 0
0.0001344080 0.0025754070 0 0
0.0011038870 0.0030136370 0 0
0.0023654080 0.0037549330 0 0
0.0038063510 0.0047295350 0 0
0.0053007110 0.0058574950 0 0
0.0067205360 0.0070541260 0 0
0.0079427890 0.0082342260 0 0
0.0088562430 0.0093168850 0 0
0.0093721830 0.0102310140 0 0
0.0094371700 0.0109203310 0 0
0.0090430740 0.0113473450 0 0
0.0082301430 0.0114967090 0 0
0.0070807870 0.0113777720 0 0
0.0057059290 0.0110251550 0 0
0.0042297550 0.0104961310 0 0
0.0027773750 0.0098646490 0 0
0.0014653280 0.0092127560 0 0
0.0003932030 0.0086205970 0 0
-0.0003641530 0.0081569200 0 0
-0.0007630230 0.0078724610 0 0
-0.0007939090 0.0077968650 0 0
-0.0004798560 0.0079378640 0 0
0.0001295480 0.0082820960 0 0
0.0009665790 0.0087978650 0 0
0.0019532470 0.0094392220 0 0
0.0030055810 0.0101498470 0 0
0.0040343310 0.0108660320 0 0
0.0049467450 0.0115198740 0 0
0.0056540290 0.0120445080 0 0
0.0060834510 0.0123816540 0 0
0.0061897430 0.0124894410 0 0
0.0059614650 0.0123480370 0 0
0.0054212080 0.0119623440 0 0
0.0046209990 0.0113628340 0 0
0.0036360280 0.0106053030 0 0
0.0025591450 0.0097682090 0 0
0.0014950130 0.0089456780 0 0
0.0005508330 0.0082361180 0 0
-0.0001767990 0.0077288980 0 0
-0.0006152920 0.0074923850 0 0
-0.0007254550 0.0075659020 0 0
-0.0005055030 0.0079565280 0 0
0.0000100048 0.0086399120 0 0
0.0007567470 0.0095635060 0 0
0.0016519600 0.0106515640 0 0
0.0026068280 0.0118122290 0 0
0.0035367720 0.0129465820 0 0
0.0043695620 0.0139584990 0 0
0.0050520880 0.0147640810 0 0
0.0055546680 0.0152995130 0 0
0.0058711860 0.0155259700 0 0
0.0060159210 0.0154307820 0 0
0.0060195010 0.0150260330 0 0
0.0059244900 0.0143465740 0 0
0.0057795860 0.0134480950 0 0
0.0056325830 0.0124044330 0 0
0.0055239630 0.0113036630 0 0
0.0054833420 0.0102428840 0 0
0.0055291810 0.0093207300 0 0
0.0056699900 0.0086268150 0 0
0.0059053120 0.0082292580 0 0
0.0062266290 0.0081634090 0 0
0.0066190410 0.0084253990 0 0
0.0070636960 0.0089727410 0 0
0.0075396610 0.0097312480 0 0
0.0080237310 0.0106056210 0 0
0.0084883140 0.0114914590 0 0
0.0088994740 0.0122877190 0 0
0.0092172660 0.0129085450 0 0
0.0093996950 0.0132921040 0 0
0.0094103230 0.0134046480 0 0
0.0092272490 0.0132405380 0 0
0.0088502780 0.0128201450 0 0
0.0083047200 0.0121867820 0 0
0.0076412560 0.0114030730 0 0
0.0069313110 0.0105464840 0 0
0.0062583890 0.0097031760 0 0
0.0057062620 0.0089600590 0 0
0.0053452450 0.0083961580 0 0
0.0052199910 0.0080745540 0 0
0.0053432790 0.0080356330 0 0
0.0056967810 0.0082914390 0 0
0.0062352640 0.0088211940 0 0
0.0068907360 0.0095699840 0 0
0.0075770330 0.0104531050 0 0
0.0081985760 0.0113663810 0 0
0.0086653110 0.0122005620 0 0
0.0089097330 0.0128566270 0 0
0.0088977120 0.0132585380 0 0
0.0086288250 0.0133614650 0 0
0.0081285530 0.0131556250 0 0
0.0074375430 0.0126661010 0 0
0.0066036110 0.0119483250 0 0
0.0056799170 0.0110799260 0 0
0.0047272090 0.0101512000 0 0
0.0038155390 0.0092559890 0 0
0.0030229940 0.0084831710 0 0
0.0024303100 0.0079084110 0 0
0.0021098850 0.0075866720 0 0
0.0021106530 0.0075468720 0 0
0.0024463650 0.0077895360 0 0
0.0030936350 0.0082868230 0 0
0.0039969320 0.0089843860 0 0
0.0050748180 0.0098057200 0 0
0.0062283840 0.0106598010 0 0
0.0073542730 0.0114515160 0 0
0.0083575030 0.0120929210 0 0
0.0091573360 0.0125128330 0 0
0.0096869560 0.0126633740 0 0
0.0098930860 0.0125236430 0 0
0.0097395730 0.0121004880 0 0
0.0092147590 0.0114257560 0 0
0.0083389890 0.0105507240 0 0
0.0071673240 0.0095403460 0 0
0.0057847640 0.0084687760 0 0
0.0042953230 0.0074151130 0 0
0.0028086030 0.0064584440 0 0
0.0014274420 0.0056725740 0 0
0.0002391130 0.0051205510 0 0
-0.0006892800 0.0048488150 0 0
-0.0013130490 0.0048816090 0 0
-0.0016122270 0.0052168930 0 0
-0.0015945890 0.0058253500 0 0
-0.0012973980 0.0066534670 0 0
-0.0007852010 0.0076302210 0 0
-0.0001440610 0.0086756950 0 0
0.0005252190 0.0097094390 0 0
0.0011156740 0.0106569130 0 0
0.0015267220 0.0114540940 0 0
0.0016773570 0.0120516030 0 0
0.0015146040 0.0124189710 0 0
0.0010175860 0.0125479250 0 0
0.0002003290 0.0124534000 0 0
-0.0008875970 0.0121725110 0 0
-0.0021653490 0.0117623090 0 0
-0.0035296530 0.0112958740 0 0
-0.0048651750 0.0108555530 0 0
-0.0060544530 0.0105233260 0 0
-0.0069881820 0.0103700170 0 0
-0.0075768630 0.0104455560 0 0
-0.0077622850 0.0107720390 0 0
-0.0075258770 0.0113405420 0 0
-0.0068917660 0.0121118580 0 0
-0.0059242460 0.0130207060 0 0
-0.0047207890 0.0139825900 0 0
-0.0034019580 0.0149029790 0 0
-0.0020996200 0.0156887380 0 0
-0.0009445940 0.0162607890 0 0
-0.0000540026 0.0165655360 0 0
0.0004808150 0.0165818130 0 0
0.0006036660 0.0163208800 0 0
0.0002983300 0.0158203200 0 0
-0.0004119950 0.0151361940 0 0
-0.0014697230 0.0143374940 0 0
-0.0027890700 0.0135028860 0 0
-0.0042608530 0.0127167530 0 0
-0.0057575690 0.0120624200 0 0
-0.0071431470 0.0116130600 0 0
-0.0082895390 0.0114226540 0 0
-0.0090952350 0.0115198000 0 0
-0.0094969560 0.0119057550 0 0
-0.0094725870 0.0125559530 0 0
-0.0090411700 0.0134234400 0 0
-0.0082623410 0.0144433510 0 0
-0.0072303720 0.0155378020 0 0
-0.0060603130 0.0166206730 0 0
-0.0048714350 0.0176025450 0 0
-0.0037745130 0.0183968330 0 0
-0.0028640310 0.0189279180 0 0
-0.0022122940 0.0191408780 0 0
-0.0018633400 0.0190104520 0 0
-0.0018273290 0.0185459550 0 0
-0.0020775710 0.0177903350 0 0
-0.0025524120 0.0168139560 0 0
-0.0031630030 0.0157050530 0 0
-0.0038063500 0.0145586120 0 0
-0.0043818230 0.0134649240 0 0
-0.0048067530 0.0124993950 0 0
-0.0050249050 0.0117156510 0 0
-0.0050061970 0.0111428520 0 0
-0.0047428770 0.0107863920 0 0
-0.0042475860 0.0106306870 0 0
-0.0035537500 0.0106433140 0 0
-0.0027155390 0.0107799240 0 0
-0.0018049280 0.0109891630 0 0
-0.0009055370 0.0112169410 0 0
-0.0001050140 0.0114101330 0 0
0.0005123540 0.0115200780 0 0
0.0008733610 0.0115062300 0 0
0.0009259510 0.0113401390 0 0
0.0006505530 0.0110097980 0 0
0.0000670852 0.0105240410 0 0
-0.0007667670 0.0099153350 0 0
-0.0017644670 0.0092383440 0 0
-0.0028230250 0.0085636310 0 0
-0.0038361070 0.0079682010 0 0
-0.0047050440 0.0075248970 0 0
-0.0053468830 0.0072926280 0 0
-0.0057019100 0.0073092710 0 0
-0.0057418800 0.0075878970 0 0
-0.0054757360 0.0081161390 0 0
-0.0049485510 0.0088579280 0 0
-0.0042336250 0.0097565630 0 0
-0.0034207390 0.0107390760 0 0
-0.0026026300 0.0117224970 0 0
-0.0018629480 0.0126216160 0 0
-0.0012714750 0.0133569370 0 0
-0.0008877490 0.0138620030 0 0
-0.0007653620 0.0140899150 0 0
-0.0009481880 0.0140186800 0 0
-0.0014585480 0.0136545120 0 0
-0.0022858080 0.0130320110 0 0
-0.0033833690 0.0122107220 0 0
-0.0046750360 0.0112689330 0 0
-0.0060665660 0.0102963940 0 0
-0.0074575230 0.0093864990 0 0
-0.0087492390 0.0086278070 0 0
-0.0098472380 0.0080961980 0 0
-0.0106614380 0.0078492520 0 0
-0.0111093840 0.0079224480 0 0
-0.0111245250 0.0083261740 0 0
-0.0106681650 0.0090439140 0 0
-0.0097418570 0.0100327810 0 0
-0.0083957900 0.0112269750 0 0
-0.0067288940 0.0125436330 0 0
-0.0048790170 0.0138898990 0 0
-0.0030057890 0.0151704170 0 0
-0.0012720600 0.0162946840 0 0
0.0001717680 0.0171838450 0 0
0.0012007210 0.0177771480 0 0
0.0017262930 0.0180385430 0 0
0.0017036650 0.0179622030 0 0
0.0011343810 0.0175743090 0 0
0.0000677961 0.0169300950 0 0
-0.0013962790 0.0161077980 0 0
-0.0031082770 0.0152010670 0 0
-0.0048812760 0.0143091300 0 0
-0.0065167650 0.0135239530 0 0
-0.0078357900 0.0129165110 0 0
-0.0087053820 0.0125269450 0 0
-0.0090541130 0.0123621800 0 0
-0.0088753460 0.0124006860 0 0
-0.0082216900 0.0126009850 0 0
-0.0071957740 0.0129100030 0 0
-0.0059374130 0.0132690430 0 0
-0.0046039510 0.0136178960 0 0
-0.0033461370 0.0138987430 0 0
-0.0022874940 0.0140602660 0 0
-0.0015121410 0.0140616200 0 0
-0.0010601850 0.0138763570 0 0
-0.0009291630 0.0134962850 0 0
-0.0010819720 0.0129341840 0 0
-0.0014594100 0.0122244760 0 0
-0.0019913390 0.0114222570 0 0
-0.0026021450 0.0106010700 0 0
-0.0032125820 0.0098483070 0 0
-0.0037437270 0.0092572790 0 0
-0.0041251770 0.0089165770 0 0
-0.0043035460 0.0088988560 0 0
-0.0042472620 0.0092510660 0 0
-0.0039489100 0.0099869480 0 0
-0.0034273000 0.0110821670 0 0
-0.0027271170 0.0124733770 0 0
-0.0019137850 0.0140626730 0 0
-0.0010655240 0.0157275420 0 0
-0.0002653350 0.0173349710 0 0
0.0004066190 0.0187571050 0 0
0.0008796180 0.0198851960 0 0
0.0010973080 0.0206394690 0 0
0.0010222910 0.0209740250 0 0
0.0006422760 0.0208772710 0 0
-0.0000234625 0.0203695680 0 0
-0.0009227020 0.0195001030 0 0
-0.0019787160 0.0183440710 0 0
-0.0031058040 0.0169995530 0 0
-0.0042225830 0.0155822920 0 0
-0.0052566500 0.0142172650 0 0
-0.0061426170 0.0130278770 0 0
-0.0068194620 0.0121240280 0 0
-0.0072311970 0.0115896850 0 0
-0.0073320260 0.0114714670 0 0
-0.0070953980 0.0117713480 0 0
-0.0065244810 0.0124465070 0 0
-0.0056594530 0.0134166100 0 0
-0.0045770790 0.0145755220 0 0
-0.0033809620 0.0158038940 0 0
-0.0021852030 0.0169807950 0 0
-0.0010972720 0.0179940500 0 0
-0.0002048070 0.0187497080 0 0
0.0004314460 0.0191809120 0 0
0.0007778740 0.0192549430 0 0
0.0008235360 0.0189766350 0 0
0.0005765590 0.0183876100 0 0
0.0000654112 0.0175614830 0 0
-0.0006571610 0.0165949660 0 0
-0.0015133490 0.0155952040 0 0
-0.0024055550 0.0146653570 0 0
-0.0032260910 0.0138916190 0 0
-0.0038688220 0.0133343600 0 0
-0.0042421950 0.0130241900 0 0
-0.0042824270 0.0129618580 0 0
-0.0039632920 0.0131202350 0 0
-0.0032999680 0.0134476300 0 0
-0.0023473040 0.0138729540 0 0
-0.0011930600 0.0143135600 0 0
0.0000537837 0.0146854190 0 0
0.0012776120 0.0149132990 0 0
0.0023698090 0.0149378620 0 0
0.0032391120 0.0147189330 0 0
0.0038188830 0.0142373570 0 0
0.0040713760 0.0134974330 0 0
0.0039878670 0.0125289110 0 0
0.0035847410 0.0113863440 0 0
0.0028979870 0.0101447930 0 0
0.0019800810 0.0088924790 0 0
0.0009017910 0.0077221910 0 0
-0.0002447510 0.0067232620 0 0
-0.0013501320 0.0059743420 0 0
-0.0023018800 0.0055366390 0 0
-0.0030024780 0.0054482190 0 0
-0.0033837500 0.0057200480 0 0
-0.0034153450 0.0063339420 0 0
-0.0031076440 0.0072430530 0 0
-0.0025094010 0.0083755790 0 0
-0.0017017520 0.0096409980 0 0
-0.0007900600 0.0109373740 0 0
0.0001076650 0.0121590550 0 0
0.0008762440 0.0132048860 0 0
0.0014184100 0.0139870190 0 0
0.0016641870 0.0144393850 0 0
0.0015746140 0.0145241710 0 0
0.0011448220 0.0142353280 0 0
0.0004077830 0.0135989450 0 0
-0.0005673750 0.0126706700 0 0
-0.0016866660 0.0115306810 0 0
-0.0028475770 0.0102765720 0 0
-0.0039536210 0.0090139750 0 0
-0.0049237740 0.0078451190 0 0
-0.0056960270 0.0068569690 0 0
-0.0062261530 0.0061115670 0 0
-0.0064848510 0.0056404860 0 0
-0.0064565560 0.0054438000 0 0
-0.0061417250 0.0054928340 0 0
-0.0055620510 0.0057351770 0 0
-0.0047649720 0.0061006610 0 0
-0.0038223710 0.0065087310 0 0
-0.0028217030 0.0068778540 0 0
-0.0018529610 0.0071352970 0 0
-0.0009963950 0.0072244190 0 0
-0.0003141260 0.0071086230 0 0
0.0001538280 0.0067733900 0 0
0.0003907100 0.0062277810 0 0
0.0004024050 0.0055052430 0 0
0.0002136770 0.0046623280 0 0
-0.0001394240 0.0037739000 0 0
-0.0006169630 0.0029249960 0 0
-0.0011770450 0.0022012460 0 0
-0.0017721870 0.0016794770 0 0
-0.0023453800 0.0014186960 0 0
-0.0028310570 0.0014520680 0 0
-0.0031620760 0.0017821680 0 0
-0.0032801660 0.0023809730 0 0
-0.0031462200 0.0031937200 0 0
-0.0027478480 0.0041452000 0 0
-0.0021038690 0.0051476870 0 0
-0.0012658370 0.0061097080 0 0
-0.0003153570 0.0069447000 0 0
0.0006438640 0.0075786570 0 0
0.0014992050 0.0079563690 0 0
0.0021458110 0.0080465100 0 0
0.0025023830 0.0078449260 0 0
0.0025218170 0.0073743560 0 0
0.0021955000 0.0066803010 0 0
0.0015519510 0.0058249790 0 0
0.0006522120 0.0048811490 0 0
-0.0004154400 0.0039263290 0 0
-0.0015433220 0.0030370980 0 0
-0.0026180790 0.0022831880 0 0
-0.0035373800 0.0017220010 0 0
-0.0042226740 0.0013946610 0 0
-0.0046244870 0.0013236960 0 0
-0.0047211750 0.0015114020 0 0
-0.0045146490 0.0019385730 0 0
-0.0040275690 0.0025643030 0 0
-0.0033038630 0.0033279080 0 0
-0.0024084260 0.0041535000 0 0
-0.0014198760 0.0049565720 0 0
-0.0004168220 0.0056516580 0 0
0.0005343270 0.0061608120 0 0
0.0013840500 0.0064220710 0 0
0.0020996540 0.0063961440 0 0
0.0026660680 0.0060705090 0 0
0.0030877240 0.0054618540 0 0
0.0033876910 0.0046171750 0 0
0.0036024910 0.0036117540 0 0
0.0037757410 0.0025421560 0 0
0.0039542040 0.0015148400 0 0
0.0041838370 0.0006331290 0 0
0.0045008390 -0.0000148015 0 0
0.0049206460 -0.0003657050 0 0
0.0054339810 -0.0003884570 0 0
0.0060125210 -0.0000880847 0 0
0.0066177420 0.0004944020 0 0
0.0072063590 0.0012871550 0 0
0.0077314220 0.0021973330 0 0
0.0081423390 0.0031239350 0 0
0.0083868430 0.0039707750 0 0
0.0084145960 0.0046566430 0 0
0.0081815940 0.0051215210 0 0
0.0076566040 0.0053300530 0 0
0.0068298350 0.0052732380 0 0
0.0057206540 0.0049676480 0 0
0.0043803960 0.0044519880 0 0
0.0028887560 0.0037825020 0 0
0.0013455000 0.0030285390 0 0
-0.0001393580 0.0022683790 0 0
-0.0014550240 0.0015850130 0 0
-0.0024991660 0.0010617930 0 0
-0.0031880250 0.0007772050 0 0
-0.0034675640 0.0007970150 0 0
-0.0033230270 0.0011634790 0 0
-0.0027836130 0.0018848990 0 0
-0.0019214040 0.0029299350 0 0
-0.0008434630 0.0042291970 0 0
0.0003245110 0.0056840430 0 0
0.0014588110 0.0071798290 0 0
0.0024535610 0.0085993320 0 0
0.0032276840 0.0098336180 0 0
0.0037267750 0.0107909870 0 0
0.0039240240 0.0114054970 0 0
0.0038199160 0.0116443110 0 0
0.0034393400 0.0115111770 0 0
0.0028272950 0.0110438370 0 0
0.0020453030 0.0103054350 0 0
0.0011687140 0.0093733350 0 0
0.0002831510 0.0083301220 0 0
-0.0005217920 0.0072589950 0 0
-0.0011613640 0.0062421870 0 0
-0.0015644620 0.0053596680 0 0
-0.0016808450 0.0046858850 0 0
-0.0014879090 0.0042834400 0 0
-0.0009971210 0.0041941860 0 0
-0.0002568470 0.0044296780 0 0
0.0006503350 0.0049642790 0 0
0.0016142610 0.0057343030 0 0
0.0025076420 0.0066448330 0 0
0.0032026340 0.0075832570 0 0
0.0035918100 0.0084363150 0 0
0.0036062270 0.0091066140 0 0
0.0032243090 0.0095256960 0 0
0.0024718900 0.0096622330 0 0
0.0014181930 0.0095245860 0 0
0.0001698970 0.0091576270 0 0
-0.0011392170 0.0086349050 0 0
-0.0023648250 0.0080480310 0 0
-0.0033720870 0.0074949870 0 0
-0.0040542970 0.0070684200 0 0
-0.0043460580 0.0068446120 0 0
-0.0042287460 0.0068744890 0 0
-0.0037291120 0.0071785480 0 0
-0.0029131920 0.0077461900 0 0
-0.0018754240 0.0085375410 0 0
-0.0007224720 0.0094859390 0 0
0.0004432890 0.0105014510 0 0
0.0015323930 0.0114770060 0 0
0.0024678890 0.0122980110 0 0
0.0031836870 0.0128550650 0 0
0.0036273800 0.0130581870 0 0
0.0037656450 0.0128496560 0 0
0.0035891250 0.0122126720 0 0
0.0031166320 0.0111746360 0 0
0.0023969120 0.0098052390 0 0
0.0015030680 0.0082098570 0 0
0.0005197010 0.0065188480 0 0
-0.0004688260 0.0048739370 0 0
-0.0013830430 0.0034135100 0 0
-0.0021496500 0.0022586360 0 0
-0.0027050550 0.0015012370 0 0
-0.0030017290 0.0011961200 0 0
-0.0030153060 0.0013579440 0 0
-0.0027504100 0.0019618620 0 0
-0.0022427190 0.0029459640 0 0
-0.0015553770 0.0042156660 0 0
-0.0007700320 0.0056516500 0 0
0.0000248985 0.0071217550 0 0
0.0007454130 0.0084949510 0 0
0.0013214510 0.0096545360 0 0
0.0017053430 0.0105088780 0 0
0.0018776480 0.0109993190 0 0
0.0018470860 0.0111045550 0 0
0.0016436240 0.0108406690 0 0
0.0013078760 0.0102574620 0 0
0.0008819250 0.0094325450 0 0
0.0004048070 0.0084637260 0 0
-0.0000881965 0.0074585990 0 0
-0.0005654290 0.0065211010 0 0
-0.0009988910 0.0057381590 0 0
-0.0013633600 0.0051708480 0 0
-0.0016352340 0.0048512890 0 0
-0.0017943210 0.0047830500 0 0
-0.0018294780 0.0049431700 0 0
-0.0017445780 0.0052858620 0 0
-0.0015612500 0.0057477070 0 0
-0.0013168040 0.0062531370 0 0
-0.0010569670 0.0067203830 0 0
-0.0008262510 0.0070698380 0 0
-0.0006615770 0.0072345720 0 0
-0.0005922610 0.0071692830 0 0
-0.0006443670 0.0068544290 0 0
-0.0008445310 0.0062961070 0 0
-0.0012184640 0.0055241660 0 0
-0.0017823510 0.0045898200 0 0
-0.0025308820 0.0035623460 0 0
-0.0034292750 0.0025237080 0 0
-0.0044138970 0.0015605030 0 0
-0.0053996850 0.0007546210 0 0
-0.0062900480 0.0001754330 0 0
-0.0069879240 -0.0001254660 0 0
-0.0074083670 -0.0001187230 0 0
-0.0074905750 0.0001984770 0 0
-0.0072062710 0.0008006800 0 0
-0.0065638080 0.0016372390 0 0
-0.0056081000 0.0026389260 0 0
-0.0044144600 0.0037248570 0 0
-0.0030755010 0.0048081970 0 0
-0.0016856020 0.0058018280 0 0
-0.0003300780 0.0066249480 0 0
0.0009176230 0.0072097930 0 0
0.0019937520 0.0075073220 0 0
0.0028429090 0.0074914220 0 0
0.0034207400 0.0071612060 0 0
0.0037000230 0.0065412230 0 0
0.0036777440 0.0056797190 0 0
0.0033799970 0.0046447480 0 0
0.0028620470 0.0035183170 0 0
0.0022039790 0.0023899320 0 0
0.0015035850 0.0013506910 0 0
0.0008657210 0.0004867850 0 0
0.0003869550 -0.0001293560 0 0
0.0001381820 -0.0004489240 0 0
0.0001518420 -0.0004536580 0 0
0.0004191380 -0.0001571670 0 0
0.0008961750 0.0003989200 0 0
0.0015134420 0.0011513880 0 0
0.0021851180 0.0020219770 0 0
0.0028188240 0.0029234750 0 0
0.0033262840 0.0037662490 0 0
0.0036327570 0.0044657160 0 0
0.0036827930 0.0049499510 0 0
0.0034426470 0.0051668490 0 0
0.0029030470 0.0050912820 0 0
0.0020855850 0.0047316980 0 0
0.0010500750 0.0041327080 0 0
-0.0001051200 0.0033702890 0 0
-0.0012552420 0.0025401050 0 0
-0.0022704540 0.0017427950 0 0
-0.0030372290 0.0010704000 0 0
-0.0034728720 0.0005967120 0 0
-0.0035315180 0.0003719760 0 0
-0.0032032550 0.0004198820 0 0
-0.0025094970 0.0007346660 0 0
-0.0014980640 0.0012794240 0 0
-0.0002398110 0.0019889880 0 0
0.0011739270 0.0027778400 0 0
0.0026361100 0.0035498880 0 0
0.0040334300 0.0042077590 0 0
0.0052584890 0.0046619280 0 0
0.0062195760 0.0048400840 0 0
0.0068451650 0.0046955200 0 0
0.0070856400 0.0042126800 0 0
0.0069176020 0.0034091010 0 0
0.0063521680 0.0023342830 0 0
0.0054411040 0.0010655650 0 0
0.0042735360 -0.0002995580 0 0
0.0029630780 -0.0016537880 0 0
0.0016311580 -0.0028904420 0 0
0.0003924110 -0.0039121290 0 0
-0.0006548170 -0.0046380020 0 0
-0.0014334450 -0.0050103570 0 0
-0.0018920700 -0.0050004260 0 0
-0.0020110730 -0.0046127380 0 0
-0.0018071570 -0.0038869020 0 0
-0.0013319090 -0.0028950050 0 0
-0.0006651830 -0.0017337170 0 0
0.0000927716 -0.0005125380 0 0
0.0008293740 0.0006589920 0 0
0.0014292670 0.0016821860 0 0
0.0017860990 0.0024765520 0 0
0.0018162770 0.0029840120 0 0
0.0014722700 0.0031712100 0 0
0.0007506720 0.0030301720 0 0
-0.0003080000 0.0025774370 0 0
-0.0016266310 0.0018522920 0 0
-0.0031034270 0.0009141620 0 0
-0.0046263430 -0.0001612460 0 0
-0.0060876820 -0.0012875620 0 0
-0.0073952770 -0.0023753050 0 0
-0.0084774500 -0.0033404640 0 0
-0.0092824990 -0.0041120270 0 0
-0.0097757840 -0.0046372130 0 0
-0.0099365050 -0.0048851610 0 0
-0.0097553300 -0.0048502820 0 0
-0.0092337560 -0.0045547110 0 0
-0.0083851940 -0.0040480380 0 0
-0.0072377780 -0.0034033250 0 0
-0.0058391170 -0.0027095080 0 0
-0.0042609240 -0.0020609010 0 0
-0.0025997200 -0.0015455190 0 0
-0.0009722020 -0.0012351270 0 0
0.0004933710 -0.0011797190 0 0
0.0016675460 -0.0014069370 0 0
0.0024299660 -0.0019244180 0 0
0.0026805780 -0.0027222030 0 0
0.0023539510 -0.0037736010 0 0
0.0014342770 -0.0050349970 0 0
-0.0000359342 -0.0064464450 0 0
-0.0019591010 -0.0079346920 0 0
-0.0041983900 -0.0094192680 0 0
-0.0066019920 -0.0108216030 0 0
-0.0090285090 -0.0120761090 0 0
-0.0113662990 -0.0131403280 0 0
-0.0135441140 -0.0140010750 0 0
-0.0155347500 -0.0146758170 0 0
-0.0173543630 -0.0152103690 0 0
-0.0190583950 -0.0156734360 0 0
-0.0207323240 -0.0161478530 0 0
-0.0224758160 -0.0167197470 0 0
-0.0243839760 -0.0174678170 0 0
-0.0265321070 -0.0184543930 0 0
-0.0289663300 -0.0197191560 0 0
-0.0316986120 -0.0212755760 -1 0
-0.0347063350 -0.0231091810 -1 0
-0.0379372850 -0.0251771810 -1 0
-0.0413176530 -0.0274103430 -1 0
-0.0447596780 -0.0297185140 -1 0
-0.0481683230 -0.0319999970 -1 -1
-0.0514473170 -0.0341530090 -1 -1
-0.0545042650 -0.0360865180 -1 -1
-0.0572564430 -0.0377291650 -1 -1
-0.0596404090 -0.0390368710 -1 -1
-0.0616249370 -0.0399993160 -1 -1
-0.0632210840 -0.0406429690 -1 -1
-0.0644823710 -0.0410277300 -1 -1
-0.0654935930 -0.0412373010 -1 -1
-0.0663536770 -0.0413666530 -1 -1
-0.0671595330 -0.0415102750 -1 -1
-0.0679949960 -0.0417532670 -1 -1
-0.0689273160 -0.0421654300 -1 -1
-0.0700110590 -0.0427970730 -1 -1
-0.0712940050 -0.0436752940 -1 -1
-0.0728180610 -0.0448008690 -1 -1
-0.0746127830 -0.0461467590 -1 -1
-0.0766848270 -0.0476588000 -1 -1
-0.0790094890 -0.0492588510 -1 -1
-0.0815288930 -0.0508509210 -1 -1
-0.0841564090 -0.0523306840 -1 -1
-0.0867841470 -0.0535977180 -1 -1
-0.0892925750 -0.0545683800 -1 -1
-0.0915631900 -0.0551865900 -1 -1
-0.0934927740 -0.0554308180 -1 -1
-0.0950053980 -0.0553169340 -1 -1
-0.0960598980 -0.0548969860 -1 -1
-0.0966529600 -0.0542537290 -1 -1
-0.0968180960 -0.0534910720 -1 -1
-0.0966199600 -0.0527217680 -1 -1
-0.0961442060 -0.0520543250 -1 -1
-0.0954853190 -0.0515809220 -1 -1
-0.0947358870 -0.0513678680 -1 -1
-0.0939794370 -0.0514500080 -1 -1
-0.0932864850 -0.0518297140 -1 -1
-0.0927113010 -0.0524797680 -1 -1
-0.0922878620 -0.0533487900 -1 -1
-0.0920266530 -0.0543675470 -1 -1
-0.0919148620 -0.0554548140 -1 -1
-0.0919199030 -0.0565227180 -1 -1
-0.0919927640 -0.0574824520 -1 -1
-0.0920686810 -0.0582507890 -1 -1
-0.0920694030 -0.0587574910 -1 -1
-0.0919139660 -0.0589531700 -1 -1
-0.0915365780 -0.0588154670 -1 -1
-0.0909024500 -0.0583512490 -1 -1
-0.0900139230 -0.0575947570 -1 -1
-0.0889062370 -0.0566036190 -1 -1
-0.0876388240 -0.0554544650 -1 -1
-0.0862880970 -0.0542383810 -1 -1
-0.0849409430 -0.0530546760 -1 -1
-0.0836854170 -0.0520018640 -1 -1
-0.0825999210 -0.0511673470 -1 -1
-0.0817452020 -0.0506187350 -1 -1
-0.0811612690 -0.0503984050 -1 -1
-0.0808675090 -0.0505207460 -1 -1
-0.0808624870 -0.0509709560 -1 -1
-0.0811224940 -0.0517052500 -1 -1
-0.0816017260 -0.0526534730 -1 -1
-0.0822355020 -0.0537250480 -1 -1
-0.0829441300 -0.0548181300 -1 -1
-0.0836363670 -0.0558306970 -1 -1
-0.0842152420 -0.0566719700 -1 -1
-0.0845883530 -0.0572724600 -1 -1
-0.0846814460 -0.0575905090 -1 -1
-0.0844521960 -0.0576140060 -1 -1
-0.0838995240 -0.0573580670 -1 -1
-0.0830636300 -0.0568606240 -1 -1
-0.0820172900 -0.0561777960 -1 -1
-0.0808543820 -0.0553800730 -1 -1
-0.0796791370 -0.0545486360 -1 -1
-0.0785954690 -0.0537699760 -1 -1
-0.0776966370 -0.0531279660 -1 -1
-0.0770569510 -0.0526944540 -1 -1
-0.0767261100 -0.0525203460 -1 -1
-0.0767251740 -0.0526290440 -1 -1
-0.0770432890 -0.0530135970 -1 -1
-0.0776368500 -0.0536380390 -1 -1
-0.0784347460 -0.0544423850 -1 -1
-0.0793501180 -0.0553496100 -1 -1
-0.0802933960 -0.0562725920 -1 -1
-0.0811812170 -0.0571206060 -1 -1
-0.0819410640 -0.0578064430 -1 -1
-0.0825148220 -0.0582551370 -1 -1
-0.0828623700 -0.0584131870 -1 -1
-0.0829633040 -0.0582551430 -1 -1
-0.0828163520 -0.0577860790 -1 -1
-0.0824388700 -0.0570415660 -1 -1
-0.0818670260 -0.0560858450 -1 -1
-0.0811536480 -0.0550063310 -1 -1
-0.0803617850 -0.0539036740 -1 -1
-0.0795561430 -0.0528795800 -1 -1
-0.0787961280 -0.0520257560 -1 -1
-0.0781325600 -0.0514161430 -1 -1
-0.0776076200 -0.0511022700 -1 -1
-0.0772552060 -0.0511098060 -1 -1
-0.0770990870 -0.0514354140 -1 -1
-0.0771490460 -0.0520456190 -1 -1
-0.0773967770 -0.0528794220 -1 -1
-0.0778135310 -0.0538540510 -1 -1
-0.0783509230 -0.0548724090 -1 -1
-0.0789445530 -0.0558318330 -1 -1
-0.0795194330 -0.0566340320 -1 -1
-0.0799976570 -0.0571955220 -1 -1
-0.0803089260 -0.0574573830 -1 -1
-0.0804024170 -0.0573924460 -1 -1
-0.0802566290 -0.0570079180 -1 -1
-0.0798847480 -0.0563429870 -1 -1
-0.0793357570 -0.0554628400 -1 -1
-0.0786913590 -0.0544513690 -1 -1
-0.0780559440 -0.0534040160 -1 -1
-0.0775382740 -0.0524205100 -1 -1
-0.0772293510 -0.0515965040 -1 -1
-0.0771843160 -0.0510142930 -1 -1
-0.0774142790 -0.0507337940 -1 -1
-0.0778900340 -0.0507848800 -1 -1
-0.0785557010 -0.0511625860 -1 -1
-0.0793462880 -0.0518266930 -1 -1
-0.0802009340 -0.0527058690 -1 -1
-0.0810665140 -0.0537058360 -1 -1
-0.0818923660 -0.0547203270 -1 -1
-0.0826219370 -0.0556427140 -1 -1
-0.0831890690 -0.0563763890 -1 -1
-0.0835235050 -0.0568432490 -1 -1
-0.0835637040 -0.0569908390 -1 -1
-0.0832711200 -0.0567986560 -1 -1
-0.0826411720 -0.0562827230 -1 -1
-0.0817086170 -0.0554967900 -1 -1
-0.0805459920 -0.0545288810 -1 -1
-0.0792552960 -0.0534926090 -1 -1
-0.0779556800 -0.0525137360 -1 -1
-0.0767697950 -0.0517138480 -1 -1
-0.0758091130 -0.0511941240 -1 -1
-0.0751593140 -0.0510220200 -1 -1
-0.0748696820 -0.0512226890 -1 -1
-0.0749498170 -0.0517764600 -1 -1
-0.0753723700 -0.0526226080 -1 -1
-0.0760769650 -0.0536678150 -1 -1
-0.0769732020 -0.0547973150 -1 -1
-0.0779467100 -0.0558878140 -1 -1
-0.0788723910 -0.0568216030 -1 -1
-0.0796326260 -0.0575000450 -1 -1
-0.0801340060 -0.0578533000 -1 -1
-0.0803171220 -0.0578440330 -1 -1
-0.0801576320 -0.0574657240 -1 -1
-0.0796616900 -0.0567384050 -1 -1
-0.0788614400 -0.0557048000 -1 -1
-0.0778127890 -0.0544278560 -1 -1
-0.0765927390 -0.0529880740 -1 -1
-0.0752935870 -0.0514786870 -1 -1
-0.0740146810 -0.0499986490 -1 -1
-0.0728536890 -0.0486447590 -1 -1
-0.0718979470 -0.0475038890 -1 -1
-0.0712159640 -0.0466458450 -1 -1
-0.0708509260 -0.0461175210 -1 -1
-0.0708184680 -0.0459390810 -1 -1
-0.0711077900 -0.0461025000 -1 -1
-0.0716824030 -0.0465720290 -1 -1
-0.0724804750 -0.0472861660 -1 -1
-0.0734195550 -0.0481620860 -1 -1
-0.0744065000 -0.0491033200 -1 -1
-0.0753467690 -0.0500094360 -1 -1
-0.0761502530 -0.0507858510 -1 -1
-0.0767375060 -0.0513529210 -1 -1
-0.0770487620 -0.0516540460 -1 -1
-0.0770523620 -0.0516623700 -1 -1
-0.0767482160 -0.0513849130 -1 -1
-0.0761657920 -0.0508624090 -1 -1
-0.0753596110 -0.0501641470 -1 -1
-0.0744047530 -0.0493790190 -1 -1
-0.0733923420 -0.0486049030 -1 -1
-0.0724232150 -0.0479378180 -1 -1
-0.0715974810 -0.0474613320 -1 -1
-0.0709994570 -0.0472370240 -1 -1
-0.0706818080 -0.0472974840 -1 -1
-0.0706552260 -0.0476428950 -1 -1
-0.0708877920 -0.0482413980 -1 -1
-0.0713133080 -0.0490331850 -1 -1
-0.0718443060 -0.0499379980 -1 -1
-0.0723859060 -0.0508645270 -1 -1
-0.0728489290 -0.0517195150 -1 -1
-0.0731616410 -0.0524159320 -1 -1
-0.0732796270 -0.0528809130 -1 -1
-0.0731933670 -0.0530632140 -1 -1
-0.0729316210 -0.0529386810 -1 -1
-0.0725573570 -0.0525128480 -1 -1
-0.0721560940 -0.0518205430 -1 -1
-0.0718212490 -0.0509224500 -1 -1
-0.0716410910 -0.0498990300 -1 -1
-0.0716892700 -0.0488428950 -1 -1
-0.0720203350 -0.0478507930 -1 -1
-0.0726708680 -0.0470157230 -1 -1
-0.0736634130 -0.0464192560 -1 -1
-0.0750090550 -0.0461241970 -1 -1
-0.0767066670 -0.0461680370 -1 -1
-0.0787389440 -0.0465582430 -1 -1
-0.0810670360 -0.0472706980 -1 -1
-0.0836269920 -0.0482517670 -1 -1
-0.0863300500 -0.0494231390 -1 -1
-0.0890661620 -0.0506882180 -1 -1
-0.0917097000 -0.0519398060 -1 -1
-0.0941281390 -0.0530697710 -1 -1
-0.0961944790 -0.0539805240 -1 -1
-0.0978021200 -0.0545961270 -1 -1
-0.0988800830 -0.0548709880 -1 -1
-0.0994053660 -0.0547959640 -1 -1
-0.0994070970 -0.0544014240 -1 -1
-0.0989602350 -0.0537549420 -1 -1
-0.0981739240 -0.0529523270 -1 -1
-0.0971802340 -0.0521046420 -1 -1
-0.0961222000 -0.0513256050 -1 -1
-0.0951383490 -0.0507213320 -1 -1
-0.0943457120 -0.0503816530 -1 -1
-0.0938257420 -0.0503725390 -1 -1
-0.0936161260 -0.0507306060 -1 -1
-0.0937105070 -0.0514605360 -1 -1
-0.0940665610 -0.0525350590 -1 -1
-0.0946190250 -0.0538967770 -1 -1
-0.0952915820 -0.0554616550 -1 -1
-0.0960040540 -0.0571243990 -1 -1
-0.0966761910 -0.0587657420 -1 -1
-0.0972311720 -0.0602618230 -1 -1
-0.0976006640 -0.0614959930 -1 -1
-0.0977317660 -0.0623722510 -1 -1
-0.0975951410 -0.0628276780 -1 -1
-0.0971920240 -0.0628406570 -1 -1
-0.0965561960 -0.0624333450 -1 -1
-0.0957493760 -0.0616685900 -1 -1
-0.0948529660 -0.0606417300 -1 -1
-0.0939587140 -0.0594684190 -1 -1
-0.0931578380 -0.0582711370 -1 -1
-0.0925292070 -0.0571667220 -1 -1
-0.0921298460 -0.0562556460 -1 -1
-0.0919905200 -0.0556135820 -1 -1
-0.0921161620 -0.0552859990 -1 -1
-0.0924888420 -0.0552859030 -1 -1
-0.0930715060 -0.0555942750 -1 -1
-0.0938123340 -0.0561629680 -1 -1
-0.0946498570 -0.0569202800 -1 -1
-0.0955182070 -0.0577791930 -1 -1
-0.0963517410 -0.0586474350 -1 -1
-0.0970896470 -0.0594375730 -1 -1
-0.0976812190 -0.0600751540 -1 -1
-0.0980901390 -0.0605038250 -1 -1
-0.0982957400 -0.0606879870 -1 -1
-0.0982924690 -0.0606143890 -1 -1
-0.0980905090 -0.0602934190 -1 -1
-0.0977182700 -0.0597599620 -1 -1
-0.0972238240 -0.0590730220 -1 -1
-0.0966713560 -0.0583125640 -1 -1
-0.0961321720 -0.0575724830 -1 -1
-0.0956748050 -0.0569510000 -1 -1
-0.0953590770 -0.0565409680 -1 -1
-0.0952329590 -0.0564207660 -1 -1
-0.0953270210 -0.0566450700 -1 -1
-0.0956461570 -0.0572361320 -1 -1
-0.0961652110 -0.0581777180 -1 -1
-0.0968337580 -0.0594137070 -1 -1
-0.0975876550 -0.0608523280 -1 -1
-0.0983604160 -0.0623760510 -1 -1
-0.0990898120 -0.0638556910 -1 -1
-0.0997202920 -0.0651659760 -1 -1
-0.1002044230 -0.0661997550 -1 -1
-0.1005054740 -0.0668790090 -1 -1
-0.1006008110 -0.0671615400 -1 -1
-0.1004842230 -0.0670431420 -1 -1
-0.1001655350 -0.0665561480 -1 -1
-0.0996679050 -0.0657656690 -1 -1
-0.0990246280 -0.0647639320 -1 -1
-0.0982765370 -0.0636619330 -1 -1
-0.0974703330 -0.0625779440 -1 -1
-0.0966579010 -0.0616238850 -1 -1
-0.0958945100 -0.0608922130 -1 -1
-0.0952335220 -0.0604466210 -1 -1
-0.0947194250 -0.0603180550 -1 -1
-0.0943834460 -0.0605051170 -1 -1
-0.0942421710 -0.0609772370 -1 -1
-0.0942961490 -0.0616796060 -1 -1
-0.0945275070 -0.0625388800 -1 -1
-0.0948980390 -0.0634686030 -1 -1
-0.0953488470 -0.0643741020 -1 -1
-0.0958035810 -0.0651579050 -1 -1
-0.0961782710 -0.0657274280 -1 -1
-0.0963970580 -0.0660054470 -1 -1
-0.0964080340 -0.0659413320 -1 -1
-0.0961929160 -0.0655200160 -1 -1
-0.0957682090 -0.0647661120 -1 -1
-0.0951797760 -0.0637413320 -1 -1
-0.0944942980 -0.0625358810 -1 -1
-0.0937896960 -0.0612575390 -1 -1
-0.0931450120 -0.0600215410 -1 -1
-0.0926307550 -0.0589408760 -1 -1
-0.0923020710 -0.0581153710 -1 -1
-0.0921967210 -0.0576200680 -1 -1
-0.0923361110 -0.0574954840 -1 -1
-0.0927247320 -0.0577427030 -1 -1
-0.0933463630 -0.0583246100 -1 -1
-0.0941603830 -0.0591721890 -1 -1
-0.0951018030 -0.0601938930 -1 -1
-0.0960863920 -0.0612865640 -1 -1
-0.0970209980 -0.0623468300 -1 -1
-0.0978165830 -0.0632814880 -1 -1
-0.0983989970 -0.0640151010 -1 -1
-0.0987144080 -0.0644939950 -1 -1
-0.0987305700 -0.0646872530 -1 -1
-0.0984370410 -0.0645860180 -1 -1
-0.0978458200 -0.0642020690 -1 -1
-0.0969914690 -0.0635660820 -1 -1
-0.0959299380 -0.0627256180 -1 -1
-0.0947359360 -0.0617426800 -1 -1
-0.0934971790 -0.0606909670 -1 -1
-0.0923048620 -0.0596529480 -1 -1
-0.0912442290 -0.0587157200 -1 -1
-0.0903893420 -0.0579639090 -1 -1
-0.0898008170 -0.0574692520 -1 -1
-0.0895223540 -0.0572787290 -1 -1
-0.0895748030 -0.0574046510 -1 -1
-0.0899507900 -0.0578200050 -1 -1
-0.0906130180 -0.0584607150 -1 -1
-0.0914959540 -0.0592342350 -1 -1
-0.0925092140 -0.0600321780 -1 -1
-0.0935441100 -0.0607445040 -1 -1
-0.0944860710 -0.0612734470 -1 -1
-0.0952312260 -0.0615456000 -1 -1
-0.0957013350 -0.0615202150 -1 -1
-0.0958527170 -0.0611921470 -1 -1
-0.0956783400 -0.0605893160 -1 -1
-0.0952033250 -0.0597663800 -1 -1
-0.0944758860 -0.0587970770 -1 -1
-0.0935593610 -0.0577664550 -1 -1
-0.0925293590 -0.0567625220 -1 -1
-0.0914726330 -0.0558676780 -1 -1
-0.0904811030 -0.0551518880 -1 -1
-0.0896396530 -0.0546681210 -1 -1
-0.0890120740 -0.0544484940 -1 -1
-0.0886304690 -0.0545003470 -1 -1
-0.0884928620 -0.0548034920 -1 -1
-0.0885699400 -0.0553106240 -1 -1
-0.0888146470 -0.0559520820 -1 -1
-0.0891680830 -0.0566442330 -1 -1
-0.0895620790 -0.0572990350 -1 -1
-0.0899218270 -0.0578325450 -1 -1
-0.0901709630 -0.0581718290 -1 -1
-0.0902403980 -0.0582611200 -1 -1
-0.0900791410 -0.0580677000 -1 -1
-0.0896630570 -0.0575869120 -1 -1
-0.0889986770 -0.0568450510 -1 -1
-0.0881212010 -0.0558984730 -1 -1
-0.0870881840 -0.0548277330 -1 -1
-0.0859727530 -0.0537278020 -1 -1
-0.0848589460 -0.0526975450 -1 -1
-0.0838373170 -0.0518310760 -1 -1
-0.0829967320 -0.0512114710 -1 -1
-0.0824114350 -0.0509056940 -1 -1
-0.0821285200 -0.0509590190 -1 -1
-0.0821621050 -0.0513887050 -1 -1
-0.0824946600 -0.0521788480 -1 -1
-0.0830813810 -0.0532783960 -1 -1
-0.0838553330 -0.0546033700 -1 -1
-0.0847343340 -0.0560443920 -1 -1
-0.0856300440 -0.0574792620 -1 -1
-0.0864573650 -0.0587874940 -1 -1
-0.0871423300 -0.0598628260 -1 -1
-0.0876281840 -0.0606217240 -1 -1
-0.0878798210 -0.0610083510 -1 -1
-0.0878866130 -0.0609974280 -1 -1
-0.0876630460 -0.0605961290 -1 -1
-0.0872469350 -0.0598449360 -1 -1
-0.0866963780 -0.0588157980 -1 -1
-0.0860849520 -0.0576060560 -1 -1
-0.0854926320 -0.0563287150 -1 -1
-0.0849931860 -0.0551009830 -1 -1
-0.0846423280 -0.0540325610 -1 -1
-0.0844702890 -0.0532149600 -1 -1
-0.0844804160 -0.0527132120 -1 -1
-0.0846533630 -0.0525610570 -1 -1
-0.0849543220 -0.0527596540 -1 -1
-0.0853402900 -0.0532788530 -1 -1
-0.0857654400 -0.0540600220 -1 -1
-0.0861840240 -0.0550204200 -1 -1
-0.0865511760 -0.0560595740 -1 -1
-0.0868221290 -0.0570676260 -1 -1
-0.0869519130 -0.0579349630 -1 -1
-0.0868990940 -0.0585622990 -1 -1
-0.0866339040 -0.0588708170 -1 -1
-0.0861465060 -0.0588120400 -1 -1
-0.0854513960 -0.0583760180 -1 -1
-0.0845861650 -0.0575953320 -1 -1
-0.0836046850 -0.0565426850 -1 -1
-0.0825688010 -0.0553222480 -1 -1
-0.0815441830 -0.0540573080 -1 -1
-0.0806007460 -0.0528767320 -1 -1
-0.0798126530 -0.0519012760 -1 -1
-0.0792532930 -0.0512304990 -1 -1
-0.0789842840 -0.0509321530 -1 -1
-0.0790422100 -0.0510362830 -1 -1
-0.0794291250 -0.0515343440 -1 -1
-0.0801098290 -0.0523816790 -1 -1
-0.0810150280 -0.0535019910 -1 -1
-0.0820496970 -0.0547938640 -1 -1
-0.0831060620 -0.0561398110 -1 -1
-0.0840780180 -0.0574175970 -1 -1
-0.0848726550 -0.0585129150 -1 -1
-0.0854162360 -0.0593318590 -1 -1
-0.0856552950 -0.0598111680 -1 -1
-0.0855573230 -0.0599243550 -1 -1
-0.0851152210 -0.0596824660 -1 -1
-0.0843541880 -0.0591297550 -1 -1
-0.0833354180 -0.0583364490 -1 -1
-0.0821520740 -0.0573909870 -1 -1
-0.0809170550 -0.0563929050 -1 -1
-0.0797457380 -0.0554462800 -1 -1
-0.0787388940 -0.0546524990 -1 -1
-0.0779713410 -0.0541008690 -1 -1
-0.0774892010 -0.0538572420 -1 -1
-0.0773132770 -0.0539531970 -1 -1
-0.0774420070 -0.0543794150 -1 -1
-0.0778497780 -0.0550856330 -1 -1
-0.0784831660 -0.0559869970 -1 -1
-0.0792606440 -0.0569751060 -1 -1
-0.0800783620 -0.0579318000 -1 -1
-0.0808229080 -0.0587435200 -1 -1
-0.0813902380 -0.0593139970 -1 -1
-0.0817046710 -0.0595736260 -1 -1
-0.0817302760 -0.0594849470 -1 -1
-0.0814721680 -0.0590443350 -1 -1
-0.0809688470 -0.0582800540 -1 -1
-0.0802779500 -0.0572472440 -1 -1
-0.0794610010 -0.0560212590 -1 -1
-0.0785738270 -0.0546908100 -1 -1
-0.0776649460 -0.0533512680 -1 -1
-0.0767798140 -0.0520974980 -1 -1
-0.0759678710 -0.0510155490 -1 -1
-0.0752883690 -0.0501737450 -1 -1
-0.0748096390 -0.0496152730 -1 -1
-0.0745990060 -0.0493541940 -1 -1
-0.0747063590 -0.0493750970 -1 -1
-0.0751483330 -0.0496356670 -1 -1
-0.0758992650 -0.0500714400 -1 -1
-0.0768913530 -0.0506027130 -1 -1
-0.0780232730 -0.0511438390 -1 -1
-0.0791746920 -0.0516141390 -1 -1
-0.0802233470 -0.0519479710 -1 -1
-0.0810616110 -0.0521011350 -1 -1
-0.0816094810 -0.0520526070 -1 -1
-0.0818217610 -0.0518030910 -1 -1
-0.0816897980 -0.0513723770 -1 -1
-0.0812399320 -0.0507961710 -1 -1
-0.0805294850 -0.0501221360 -1 -1
-0.0796392510 -0.0494051450 -1 -1
-0.0786623190 -0.0487022630 -1 -1
-0.0776917390 -0.0480681380 -1 -1
-0.0768104130 -0.0475511670 -1 -1
-0.0760845100 -0.0471905980 -1 -1
-0.0755600260 -0.0470149840 -1 -1
-0.0752622740 -0.0470423950 -1 -1
-0.0751968880 -0.0472812610 -1 -1
-0.0753503560 -0.0477292000 -1 -1
-0.0756906010 -0.0483691550 -1 -1
-0.0761690930 -0.0491653340 -1 -1
-0.0767237700 -0.0500616230 -1 -1
-0.0772830620 -0.0509834480 -1 -1
-0.0777746710 -0.0518439070 -1 -1
-0.0781398740 -0.0525546130 -1 -1
-0.0783454890 -0.0530388980 -1 -1
-0.0783844040 -0.0532429100 -1 -1
-0.0782664140 -0.0531417910 -1 -1
-0.0780106170 -0.0527413380 -1 -1
-0.0776464920 -0.0520767460 -1 -1
-0.0772196550 -0.0512093420 -1 -1
-0.0767936580 -0.0502212450 -1 -1
-0.0764438330 -0.0492073570 -1 -1
-0.0762454210 -0.0482648790 -1 -1
-0.0762612310 -0.0474820600 -1 -1
-0.0765335450 -0.0469284350 -1 -1
-0.0770812600 -0.0466480010 -1 -1
-0.0778992900 -0.0466554770 -1 -1
-0.0789574650 -0.0469351960 -1 -1
-0.0801995100 -0.0474431460 -1 -1
-0.0815444170 -0.0481127690 -1 -1
-0.0828917820 -0.0488636840 -1 -1
-0.0841313310 -0.0496118680 -1 -1
-0.0851560000 -0.0502797290 -1 -1
-0.0858765970 -0.0508038250 -1 -1
-0.0862345370 -0.0511386330 -1 -1
-0.0862097190 -0.0512574360 -1 -1
-0.0858229380 -0.0511529820 -1 -1
-0.0851324010 -0.0508388380 -1 -1
-0.0842239550 -0.0503499230 -1 -1
-0.0831974140 -0.0497407620 -1 -1
-0.0821534360 -0.0490813780 -1 -1
-0.0811838800 -0.0484511530 -1 -1
-0.0803663390 -0.0479303430 -1 -1
-0.0797623600 -0.0475891150 -1 -1
-0.0794170860 -0.0474758650 -1 -1
-0.0793566880 -0.0476086590 -1 -1
-0.0795822900 -0.0479732480 -1 -1
-0.0800633610 -0.0485277380 -1 -1
-0.0807355230 -0.0492110620 -1 -1
-0.0815058100 -0.0499519690 -1 -1
-0.0822654810 -0.0506763340 -1 -1
-0.0829074980 -0.0513122180 -1 -1
-0.0833427710 -0.0517938490 -1 -1
-0.0835097140 -0.0520663820 -1 -1
-0.0833770420 -0.0520921870 -1 -1
-0.0829429910 -0.0518571370 -1 -1
-0.0822321210 -0.0513743650 -1 -1
-0.0812897550 -0.0506840820 -1 -1
-0.0801757020 -0.0498489190 -1 -1
-0.0789591710 -0.0489449210 -1 -1
-0.0777152470 -0.0480502980 -1 -1
-0.0765223610 -0.0472356860 -1 -1
-0.0754599610 -0.0465581180 -1 -1
-0.0746053370 -0.0460579670 -1 -1
-0.0740277650 -0.0457572310 -1 -1
-0.0737783890 -0.0456587160 -1 -1
-0.0738776010 -0.0457467820 -1 -1
-0.0743058270 -0.0459899620 -1 -1
-0.0750032490 -0.0463443700 -1 -1
-0.0758789490 -0.0467564000 -1 -1
-0.0768249900 -0.0471644770 -1 -1
-0.0777311570 -0.0475012840 -1 -1
-0.0784990670 -0.0476984630 -1 -1
-0.0790543550 -0.0476941100 -1 -1
-0.0793532930 -0.0474415190 -1 -1
-0.0793822230 -0.0469176890 -1 -1
-0.0791529880 -0.0461306740 -1 -1
-0.0786986360 -0.0451239710 -1 -1
-0.0780709870 -0.0439753600 -1 -1
-0.0773386220 -0.0427888180 -1 -1
-0.0765826590 -0.0416809030 -1 -1
-0.0758889880 -0.0407651530 -1 -1
-0.0753380230 -0.0401382780 -1 -1
-0.0749943700 -0.0398701800 -1 -1
-0.0748989840 -0.0399976050 -1 -1
-0.0750654440 -0.0405205690 -1 -1
-0.0754803500 -0.0414015250 -1 -1
-0.0761068370 -0.0425678730 -1 -1
-0.0768896080 -0.0439185130 -1 -1
-0.0777596780 -0.0453346100 -1 -1
-0.0786383840 -0.0466931010 -1 -1
-0.0794425300 -0.0478800640 -1 -1
-0.0800927550 -0.0488016810 -1 -1
-0.0805250050 -0.0493921930 -1 -1
-0.0807022110 -0.0496188150 -1 -1
-0.0806213400 -0.0494834970 -1 -1
-0.0803123930 -0.0490216530 -1 -1
-0.0798302350 -0.0482982370 -1 -1
-0.0792426210 -0.0474011990 -1 -1
-0.0786182550 -0.0464324060 -1 -1
-0.0780191280 -0.0454973250 -1 -1
-0.0774990960 -0.0446952250 -1 -1
-0.0771061110 -0.0441104190 -1 -1
-0.0768835670 -0.0438046400 -1 -1
-0.0768676890 -0.0438119790 -1 -1
-0.0770808780 -0.0441375680 -1 -1
-0.0775242680 -0.0447587970 -1 -1
-0.0781726320 -0.0456274270 -1 -1
-0.0789713840 -0.0466729640 -1 -1
-0.0798367870 -0.0478081520 -1 -1
-0.0806653120 -0.0489359310 -1 -1
-0.0813540430 -0.0499570360 -1 -1
-0.0818226650 -0.0507784930 -1 -1
-0.0820247510 -0.0513228650 -1 -1
-0.0819454220 -0.0515368060 -1 -1
-0.0815918650 -0.0513970700 -1 -1
-0.0809847100 -0.0509130730 -1 -1
-0.0801554570 -0.0501268670 -1 -1
-0.0791508170 -0.0491119630 -1 -1
-0.0780383570 -0.0479707490 -1 -1
-0.0769063270 -0.0468280270 -1 -1
-0.0758559480 -0.0458185900 -1 -1
-0.0749884820 -0.0450698550 -1 -1
-0.0743905390 -0.0446834870 -1 -1
-0.0741219020 -0.0447202910 -1 -1
-0.0742079250 -0.0451908510 -1 -1
-0.0746350400 -0.0460530710 -1 -1
-0.0753496720 -0.0472174500 -1 -1
-0.0762644760 -0.0485595560 -1 -1
-0.0772733200 -0.0499369400 -1 -1
-0.0782699690 -0.0512066370 -1 -1
-0.0791637900 -0.0522407850 -1 -1
-0.0798892330 -0.0529395100 -1 -1
-0.0804088380 -0.0532400970 -1 -1
-0.0807103310 -0.0531209760 -1 -1
-0.0807995390 -0.0525999190 -1 -1
-0.0806932970 -0.0517275620 -1 -1
-0.0804161550 -0.0505787280 -1 -1
-0.0800004550 -0.0492438510 -1 -1
-0.0794862990 -0.0478212330 -1 -1
-0.0789189830 -0.0464099950 -1 -1
-0.0783447760 -0.0451038590 -1 -1
-0.0778079860 -0.0439860190 -1 -1
-0.0773505120 -0.0431242130 -1 -1
-0.0770112950 -0.0425647330 -1 -1
-0.0768218620 -0.0423260950 -1 -1
-0.0767982400 -0.0423950430 -1 -1
-0.0769351740 -0.0427267240 -1 -1
-0.0772082280 -0.0432493580 -1 -1
-0.0775822330 -0.0438732440 -1 -1
-0.0780189160 -0.0445028140 -1 -1
-0.0784789090 -0.0450487240 -1 -1
-0.0789200370 -0.0454370970 -1 -1
-0.0792968400 -0.0456153200 -1 -1
-0.0795641700 -0.0455553620 -1 -1
-0.0796845960 -0.0452556130 -1 -1
-0.0796373350 -0.0447412390 -1 -1
-0.0794255420 -0.0440621470 -1 -1
-0.0790781000 -0.0432880540 -1 -1
-0.0786432480 -0.0425012160 -1 -1
-0.0781767740 -0.0417874370 -1 -1
-0.0777310060 -0.0412262480 -1 -1
-0.0773477830 -0.0408825330 -1 -1
-0.0770554770 -0.0408015290 -1 -1
-0.0768700830 -0.0410066310 -1 -1
-0.0767982730 -0.0414983150 -1 -1
-0.0768380490 -0.0422535390 -1 -1
-0.0769756820 -0.0432262040 -1 -1
-0.0771824550 -0.0443497260 -1 -1
-0.0774151390 -0.0455422220 -1 -1
-0.0776206150 -0.0467136280 -1 -1
-0.0777421410 -0.0477736120 -1 -1
-0.0777242740 -0.0486396670 -1 -1
-0.0775159990 -0.0492451980 -1 -1
-0.0770754060 -0.0495471130 -1 -1
-0.0763787300 -0.0495314950 -1 -1
-0.0754308750 -0.0492155690 -1 -1
-0.0742719320 -0.0486454220 -1 -1
-0.0729767290 -0.0478910570 -1 -1
-0.0716466680 -0.0470405540 -1 -1
-0.0703950120 -0.0461928290 -1 -1
-0.0693296540 -0.0454474210 -1 -1
-0.0685384060 -0.0448923720 -1 -1
-0.0680795460 -0.0445936650 -1 -1
-0.0679774470 -0.0445888090 -1 -1
-0.0682218300 -0.0448846070 -1 -1
-0.0687693750 -0.0454575010 -1 -1
-0.0695473340 -0.0462552920 -1 -1
-0.0704598920 -0.0472009030 -1 -1
-0.0713977190 -0.0481991410 -1 -1
-0.0722495310 -0.0491458320 -1 -1
-0.0729134440 -0.0499381460 -1 -1
-0.0733069860 -0.0504855950 -1 -1
-0.0733761440 -0.0507209850 -1 -1
-0.0731028880 -0.0506091830 -1 -1
-0.0725084020 -0.0501511030 -1 -1
-0.0716491420 -0.0493824290 -1 -1
-0.0706052070 -0.0483684830 -1 -1
-0.0694637940 -0.0471961810 -1 -1
-0.0683037480 -0.0459636770 -1 -1
-0.0671876620 -0.0447696670 -1 -1
-0.0661638180 -0.0437050200 -1 -1
-0.0652738470 -0.0428473690 -1 -1
-0.0645583680 -0.0422569450 -1 -1
-0.0640557110 -0.0419719790 -1 -1
-0.0637953140 -0.0420037140 -1 -1
-0.0637898330 -0.0423327600 -1 -1
-0.0640284370 -0.0429094770 -1 -1
-0.0644735110 -0.0436592210 -1 -1
-0.0650625610 -0.0444907040 -1 -1
-0.0657143620 -0.0453062010 -1 -1
-0.0663374160 -0.0460131750 -1 -1
-0.0668403670 -0.0465352860 -1 -1
-0.0671440250 -0.0468202500 -1 -1
-0.0671924710 -0.0468438860 -1 -1
-0.0669608040 -0.0466110350 -1 -1
-0.0664596940 -0.0461534510 -1 -1
-0.0657365800 -0.0455245520 -1 -1
-0.0648703310 -0.0447919680 -1 -1
-0.0639578220 -0.0440291740 -1 -1
-0.0630969060 -0.0433069030 -1 -1
-0.0623727150 -0.0426852710 -1 -1
-0.0618502220 -0.0422081670 -1 -1
-0.0615710240 -0.0419004980 -1 -1
-0.0615524460 -0.0417674220 -1 -1
-0.0617898900 -0.0417947070 -1 -1
-0.0622623730 -0.0419506650 -1 -1
-0.0629369920 -0.0421903470 -1 -1
-0.0637671760 -0.0424613370 -1 -1
-0.0646862390 -0.0427099820 -1 -1
-0.0656063720 -0.0428875290 -1 -1
-0.0664302980 -0.0429554970 -1 -1
-0.0670697520 -0.0428889620 -1 -1
-0.0674605020 -0.0426770820 -1 -1
-0.0675708950 -0.0423217450 -1 -1
-0.0674054900 -0.0418359060 -1 -1
-0.0670042090 -0.0412427040 -1 -1
-0.0664365830 -0.0405750930 -1 -1
-0.0657913860 -0.0398751120 -1 -1
-0.0651636470 -0.0391925740 -1 -1
-0.0646420300 -0.0385830530 -1 -1
-0.0642985130 -0.0381044160 -1 -1
-0.0641813660 -0.0378117230 -1 -1
-0.0643124420 -0.0377513560 -1 -1
-0.0646884470 -0.0379556900 -1 -1
-0.0652839150 -0.0384390870 -1 -1
-0.0660537800 -0.0391948740 -1 -1
-0.0669358450 -0.0401928940 -1 -1
-0.0678555750 -0.0413788580 -1 -1
-0.0687343630 -0.0426776610 -1 -1
-0.0694988160 -0.0440011000 -1 -1
-0.0700870150 -0.0452576230 -1 -1
-0.0704495310 -0.0463610130 -1 -1
-0.0705476140 -0.0472365630 -1 -1
-0.0703543530 -0.0478256610 -1 -1
-0.0698617350 -0.0480906390 -1 -1
-0.0690896100 -0.0480203920 -1 -1
-0.0680891170 -0.0476351250 -1 -1
-0.0669369370 -0.0469879510 -1 -1
-0.0657238160 -0.0461617390 -1 -1
-0.0645433750 -0.0452607070 -1 -1
-0.0634842850 -0.0443978770 -1 -1
-0.0626256110 -0.0436806770 -1 -1
-0.0620336150 -0.0431969330 -1 -1
-0.0617576960 -0.0430035180 -1 -1
-0.0618237660 -0.0431196100 -1 -1
-0.0622263060 -0.0435251200 -1 -1
-0.0629231740 -0.0441639930 -1 -1
-0.0638370200 -0.0449518990 -1 -1
-0.0648646270 -0.0457873780 -1 -1
-0.0658922130 -0.0465646750 -1 -1
-0.0668117980 -0.0471861070 -1 -1
-0.0675339390 -0.0475724060 -1 -1
-0.0679944090 -0.0476705030 -1 -1
-0.0681547840 -0.0474581990 -1 -1
-0.0679991430 -0.0469449280 -1 -1
-0.0675307660 -0.0461686410 -1 -1
-0.0667724140 -0.0451901790 -1 -1
-0.0657705100 -0.0440865480 -1 -1
-0.0645988880 -0.0429437880 -1 -1
-0.0633572790 -0.0418503460 -1 -1
-0.0621633970 -0.0408915230 -1 -1
-0.0611395210 -0.0401439440 -1 -1
-0.0603953820 -0.0396692310 -1 -1
-0.0600117540 -0.0395080440 -1 -1
-0.0600291900 -0.0396754270 -1 -1
-0.0604433460 -0.0401570680 -1 -1
-0.0612074670 -0.0409072220 -1 -1
-0.0622420580 -0.0418508440 -1 -1
-0.0634487130 -0.0428914840 -1 -1
-0.0647236930 -0.0439235640 -1 -1
-0.0659690190 -0.0448459920 -1 -1
-0.0671001570 -0.0455739440 -1 -1
-0.0680490390 -0.0460465650 -1 -1
-0.0687629000 -0.0462299320 -1 -1
-0.0692026340 -0.0461163260 -1 -1
-0.0693441740 -0.0457215200 -1 -1
-0.0691833050 -0.0450816450 -1 -1
-0.0687419160 -0.0442506170 -1 -1
-0.0680724410 -0.0432980060 -1 -1
-0.0672567040 -0.0423060870 -1 -1
-0.0663972040 -0.0413644810 -1 -1
-0.0656034740 -0.0405615960 -1 -1
-0.0649780320 -0.0399737130 -1 -1
-0.0646032830 -0.0396542550 -1 -1
-0.0645292010 -0.0396261360 -1 -1
-0.0647647640 -0.0398789800 -1 -1
-0.0652772710 -0.0403714850 -1 -1
-0.0660000210 -0.0410376430 -1 -1
-0.0668450760 -0.0417946370 -1 -1
-0.0677164750 -0.0425508510 -1 -1
-0.0685203950 -0.0432138070 -1 -1
-0.0691717130 -0.0436982620 -1 -1
-0.0695984760 -0.0439342510 -1 -1
-0.0697456690 -0.0438745660 -1 -1
-0.0695794030 -0.0435006160 -1 -1
-0.0690919470 -0.0428252790 -1 -1
-0.0683055430 -0.0418919780 -1 -1
-0.0672721690 -0.0407703170 -1 -1
-0.0660685650 -0.0395489240 -1 -1
-0.0647879200 -0.0383258740 -1 -1
-0.0635309820 -0.0371977170 -1 -1
-0.0623988350 -0.0362490360 -1 -1
-0.0614860430 -0.0355443500 -1 -1
-0.0608703960 -0.0351232210 -1 -1
-0.0605996220 -0.0349987580 -1 -1
-0.0606813530 -0.0351592330 -1 -1
-0.0610822970 -0.0355720160 -1 -1
-0.0617364490 -0.0361890150 -1 -1
-0.0625564500 -0.0369529450 -1 -1
-0.0634435300 -0.0378031980 -1 -1
-0.0642961230 -0.0386794320 -1 -1
-0.0650168290 -0.0395218810 -1 -1
-0.0655166630 -0.0402698020 -1 -1
-0.0657201070 -0.0408612830 -1 -1
-0.0655750410 -0.0412375700 -1 -1
-0.0650652130 -0.0413525460 -1 -1
-0.0642190900 -0.0411838790 -1 -1
-0.0631107390 -0.0407410010 -1 -1
