0.0235886470 -0.0199761970 0 0
0.0249179700 -0.0188641800 0 0
0.0256271010 -0.0182966480 0 0
0.0256798890 -0.0183595480 0 0
0.0250918730 -0.0190730760 0 0
0.0239213530 -0.0203891380 0 0
0.0222606340 -0.0221978370 0 0
0.0202282120 -0.0243420880 0 0
0.0179634390 -0.0266377900 0 0
0.0156242020 -0.0288958200 0 0
0.0133862950 -0.0309413780 0 -1
0.0114388360 -0.0326271780 0 -1
0.0099676850 -0.0338402980 0 -1
0.0091262960 -0.0345056560 0 -1
0.0090065680 -0.0345886490 0 -1
0.0096241760 -0.0340970140 0 -1
0.0109187470 -0.0330815580 0 -1
0.0127593170 -0.0316355410 0 -1
0.0149528820 -0.0298909240 0 0
0.0172623230 -0.0280089810 0 0
0.0194352640 -0.0261651250 0 0
0.0212357890 -0.0245303580 0 0
0.0224683870 -0.0232520050 0 0
0.0229898450 -0.0224357570 0 0
0.0227154850 -0.0221317920 0 0
0.0216305790 -0.0223292220 0 0
0.0198068230 -0.0229611430 0 0
0.0174087900 -0.0239174180 0 0
0.0146778620 -0.0250605030 0 0
0.0118987070 -0.0262420870 0 0
0.0093621980 -0.0273196800 0 0
0.0073323910 -0.0281713500 0 0
0.0060179360 -0.0287065370 0 0
0.0055475890 -0.0288722440 0 0
0.0059532830 -0.0286557470 0 0
0.0071682850 -0.0280853280 0 0
0.0090442390 -0.0272291540 0 0
0.0113781710 -0.0261908470 0 0
0.0139350300 -0.0251001310 0 0
0.0164628400 -0.0240984480 0 0
0.0187096570 -0.0233217620 0 0
0.0204483260 -0.0228837450 0 0
0.0215047010 -0.0228617530 0 0
0.0217812660 -0.0232875330 0 0
0.0212699180 -0.0241446350 0 0
0.0200509420 -0.0253725940 0 0
0.0182800710 -0.0268755000 0 0
0.0161679590 -0.0285328880 0 0
0.0139536350 -0.0302117440 0 -1
0.0118730420 -0.0317776100 0 -1
0.0101298390 -0.0331030550 0 -1
0.0088781450 -0.0340738570 0 -1
0.0082185310 -0.0345950580 0 -1
0.0081993540 -0.0345988410 0 -1
0.0088158140 -0.0340543780 0 -1
0.0100062290 -0.0329776010 0 -1
0.0116503610 -0.0314370740 0 -1
0.0135743970 -0.0295517470 0 0
0.0155656010 -0.0274792490 0 0
0.0173987210 -0.0253978080 0 0
0.0188695330 -0.0234870640 0 0
0.0198227590 -0.0219113630 0 0
0.0201658200 -0.0208060840 0 0
0.0198709550 -0.0202663150 0 0
0.0189710470 -0.0203378010 0 0
0.0175513580 -0.0210108250 0 0
0.0157378650 -0.0222183140 0 0
0.0136833130 -0.0238394520 0 0
0.0115535380 -0.0257090140 0 0
0.0095162610 -0.0276318400 0 0
0.0077315810 -0.0294021600 0 0
0.0063424570 -0.0308271630 0 -1
0.0054649940 -0.0317518030 0 -1
0.0051787230 -0.0320791800 0 -1
0.0055163490 -0.0317806430 0 -1
0.0064538780 -0.0308938930 0 -1
0.0079052160 -0.0295135200 0 0
0.0097259190 -0.0277797920 0 0
0.0117276630 -0.0258666540 0 0
0.0137014600 -0.0239659700 0 0
0.0154443280 -0.0222671970 0 0
0.0167827950 -0.0209361820 0 0
0.0175889950 -0.0200982230 0 0
0.0177880150 -0.0198280000 0 0
0.0173586470 -0.0201456670 0 0
0.0163332480 -0.0210173510 0 0
0.0147995900 -0.0223589740 0 0
0.0129003260 -0.0240429590 0 0
0.0108236620 -0.0259081040 0 0
0.0087828810 -0.0277735900 0 0
0.0069873600 -0.0294571990 0 0
0.0056127100 -0.0307955360 0 -1
0.0047810180 -0.0316626470 0 -1
0.0045577170 -0.0319841830 0 -1
0.0049592810 -0.0317454130 0 -1
0.0059590760 -0.0309914330 0 -1
0.0074860820 -0.0298188950 0 0
0.0094223530 -0.0283619300 0 0
0.0116075180 -0.0267775000 0 0
0.0138526030 -0.0252330730 0 0
0.0159589410 -0.0238946410 0 0
0.0177365910 -0.0229122530 0 0
0.0190186390 -0.0224036550 0 0
0.0196707790 -0.0224389300 0 0
0.0196007870 -0.0230292250 0 0
0.0187732960 -0.0241227390 0 0
0.0172269810 -0.0256103340 0 0
0.0150844920 -0.0273399380 0 0
0.0125471380 -0.0291357570 0 0
0.0098703020 -0.0308181300 0 -1
0.0073227710 -0.0322219100 0 -1
0.0051455290 -0.0332125110 0 -1
0.0035271950 -0.0336983880 0 -1
0.0025972460 -0.0336383040 0 -1
0.0024259900 -0.0330428400 0 -1
0.0030233900 -0.0319717900 0 -1
0.0043366680 -0.0305299570 0 -1
0.0062516440 -0.0288619760 0 0
0.0086021350 -0.0271437220 0 0
0.0111861650 -0.0255673220 0 0
0.0137854900 -0.0243200140 0 0
0.0161865190 -0.0235608850 0 0
0.0182000980 -0.0234005630 0 0
0.0196778620 -0.0238882120 0 0
0.0205248690 -0.0250081730 0 0
0.0207079280 -0.0266850230 0 0
0.0202581370 -0.0287937510 0 0
0.0192681890 -0.0311731370 0 -1
0.0178875730 -0.0336418600 0 -1
0.0163173300 -0.0360164020 0 -1
0.0147994900 -0.0381287630 0 -1
0.0135929980 -0.0398418350 0 -1
0.0129358700 -0.0410608230 0 -1
0.0130048140 -0.0417400370 0 -1
0.0138853430 -0.0418857140 0 -1
0.0155579940 -0.0415557930 0 -1
0.0178997210 -0.0408555170 0 -1
0.0206981830 -0.0399261960 0 -1
0.0236779510 -0.0389270540 0 -1
0.0265371940 -0.0380147380 0 -1
0.0289891840 -0.0373264920 0 -1
0.0307986220 -0.0369694570 1 -1
0.0318061020 -0.0370142430 1 -1
0.0319417990 -0.0374912220 1 -1
0.0312290420 -0.0383903440 1 -1
0.0297741000 -0.0396643830 0 -1
0.0277442030 -0.0412337330 0 -1
0.0253442400 -0.0429919210 0 -1
0.0227984810 -0.0448123220 0 -1
0.0203341090 -0.0465567120 0 -1
0.0181630910 -0.0480862530 0 -1
0.0164650020 -0.0492745450 0 -1
0.0153745280 -0.0500208200 0 -1
0.0149734240 -0.0502613470 0 -1
0.0152852860 -0.0499780480 0 -1
0.0162743120 -0.0492033230 0 -1
0.0178494740 -0.0480191620 0 -1
0.0198719300 -0.0465491970 0 -1
0.0221635890 -0.0449446250 0 -1
0.0245182480 -0.0433668380 0 -1
0.0267169090 -0.0419702310 0 -1
0.0285476430 -0.0408882190 0 -1
0.0298292890 -0.0402235150 0 -1
0.0304344730 -0.0400413270 1 -1
0.0303066510 -0.0403639350 1 -1
0.0294701140 -0.0411672090 0 -1
0.0280311230 -0.0423811030 0 -1
0.0261642050 -0.0438954630 0 -1
0.0240828530 -0.0455704400 0 -1
0.0220048080 -0.0472492960 0 -1
0.0201250920 -0.0487719270 0 -1
0.0186033090 -0.0499893910 0 -1
0.0175615570 -0.0507800060 0 -1
0.0170835910 -0.0510649620 0 -1
0.0172100640 -0.0508192210 0 -1
0.0179327530 -0.0500749430 0 -1
0.0191923030 -0.0489177300 0 -1
0.0208803180 -0.0474773080 0 -1
0.0228451540 -0.0459140550 0 -1
0.0249018130 -0.0444023760 0 -1
0.0268466720 -0.0431122020 0 -1
0.0284790230 -0.0421909400 0 -1
0.0296305950 -0.0417486630 0 -1
0.0301943280 -0.0418478910 1 -1
0.0301353330 -0.0424975270 1 -1
0.0294792980 -0.0436508200 0 -1
0.0282946900 -0.0452085790 0 -1
0.0266855850 -0.0470285930 0 -1
0.0247931440 -0.0489404110 0 -1
0.0227919960 -0.0507633460 0 -1
0.0208735870 -0.0523252350 0 -1
0.0192198100 -0.0534796220 0 -1
0.0179760890 -0.0541196650 0 -1
0.0172340190 -0.0541884160 0 -1
0.0170289710 -0.0536855760 0 -1
0.0173476550 -0.0526697830 0 -1
0.0181349050 -0.0512545860 0 -1
0.0192945980 -0.0495971720 0 -1
0.0206887270 -0.0478809740 0 -1
0.0221427320 -0.0462951680 0 -1
0.0234632570 -0.0450141100 0 -1
0.0244670160 -0.0441781810 0 -1
0.0250102910 -0.0438773540 0 -1
0.0250065100 -0.0441405150 0 -1
0.0244272510 -0.0449333610 0 -1
0.0232940540 -0.0461646150 0 -1
0.0216736500 -0.0476976190 0 -1
0.0196796140 -0.0493647090 0 -1
0.0174709080 -0.0509837260 0 -1
0.0152396220 -0.0523762170 0 -1
0.0131912270 -0.0533849550 0 -1
0.0115239680 -0.0538874000 0 -1
0.0104091650 -0.0538042570 0 -1
0.0099709880 -0.0531052060 0 -1
0.0102655820 -0.0518128880 0 -1
0.0112635200 -0.0500035270 0 -1
0.0128457380 -0.0478023920 0 -1
0.0148229530 -0.0453740260 0 -1
0.0169746060 -0.0429086310 0 -1
0.0190880620 -0.0406066280 0 -1
0.0209808110 -0.0386625070 0 -1
0.0225050560 -0.0372472610 0 -1
0.0235461450 -0.0364888940 0 -1
0.0240253430 -0.0364537160 0 -1
0.0239101600 -0.0371340530 0 -1
0.0232275720 -0.0384475730 0 -1
0.0220689970 -0.0402493820 0 -1
0.0205790160 -0.0423529140 0 -1
0.0189327580 -0.0445530180 0 -1
0.0173134970 -0.0466460910 0 -1
0.0158951820 -0.0484461300 0 -1
0.0148266170 -0.0497986670 0 -1
0.0142150430 -0.0505936630 0 -1
0.0141132120 -0.0507753520 0 -1
0.0145150080 -0.0503465520 0 -1
0.0153594130 -0.0493670900 0 -1
0.0165404170 -0.0479471500 0 -1
0.0179203050 -0.0462363170 0 -1
0.0193419550 -0.0444097280 0 -1
0.0206390320 -0.0426533540 0 -1
0.0216489520 -0.0411492890 0 -1
0.0222317130 -0.0400602720 0 -1
0.0222905500 -0.0395133480 0 -1
0.0217874770 -0.0395848600 0 -1
0.0207501250 -0.0402894480 0 -1
0.0192692340 -0.0415742230 0 -1
0.0174858440 -0.0433188470 0 -1
0.0155703340 -0.0453430490 0 -1
0.0137023170 -0.0474228250 0 -1
0.0120577900 -0.0493148430 0 -1
0.0107980240 -0.0507864330 0 -1
0.0100523020 -0.0516464260 0 -1
0.0098994600 -0.0517704200 0 -1
0.0103619980 -0.0511147690 0 -1
0.0114160880 -0.0497179870 0 -1
0.0130040020 -0.0476923640 0 -1
0.0150359370 -0.0452089090 0 -1
0.0173832360 -0.0424779340 0 -1
0.0198748130 -0.0397282170 0 -1
0.0223068450 -0.0371869540 0 -1
0.0244669430 -0.0350608540 0 -1
0.0261645580 -0.0335188970 0 -1
0.0272575700 -0.0326782290 0 -1
0.0276705670 -0.0325938170 0 -1
0.0274039960 -0.0332523180 0 -1
0.0265321390 -0.0345718260 0 -1
0.0251886090 -0.0364092910 0 -1
0.0235435430 -0.0385759290 0 -1
0.0217796740 -0.0408584880 0 -1
0.0200716200 -0.0430422750 0 -1
0.0185707150 -0.0449321150 0 -1
0.0173980470 -0.0463692820 0 -1
0.0166445910 -0.0472437840 0 -1
0.0163716380 -0.0475018960 0 -1
0.0166061240 -0.0471492430 0 -1
0.0173317080 -0.0462497350 0 -1
0.0184805970 -0.0449197970 0 -1
0.0199322310 -0.0433164310 0 -1
0.0215235930 -0.0416188210 0 -1
0.0230700800 -0.0400062190 0 -1
0.0243899700 -0.0386372120 0 -1
0.0253260470 -0.0376348080 0 -1
0.0257619730 -0.0370785080 0 -1
0.0256327570 -0.0370017730 0 -1
0.0249291360 -0.0373931570 0 -1
0.0236966150 -0.0382002060 0 -1
0.0220309900 -0.0393356640 0 -1
0.0200723680 -0.0406860220 0 -1
0.0179963640 -0.0421223670 0 -1
0.0159985790 -0.0435124540 0 -1
0.0142727870 -0.0447319110 0 -1
0.0129890130 -0.0456726900 0 -1
0.0122765510 -0.0462490990 0 -1
0.0122116730 -0.0464038590 0 -1
0.0128082270 -0.0461156380 0 -1
0.0140123280 -0.0454056060 0 -1
0.0157034970 -0.0443381330 0 -1
0.0177027490 -0.0430130860 0 -1
0.0197899920 -0.0415526600 0 -1
0.0217339870 -0.0400886900 0 -1
0.0233275930 -0.0387535860 0 -1
0.0244116990 -0.0376729350 0 -1
0.0248819210 -0.0369563570 0 -1
0.0246892180 -0.0366854890 0 -1
0.0238435600 -0.0369012000 0 -1
0.0224159000 -0.0375943420 0 -1
0.0205313310 -0.0387041740 0 -1
0.0183547100 -0.0401256070 0 -1
0.0160743840 -0.0417232500 0 -1
0.0138875040 -0.0433483430 0 -1
0.0119864870 -0.0448548120 0 -1
0.0105434040 -0.0461123630 0 -1
0.0096909680 -0.0470166330 0 -1
0.0095043940 -0.0474973640 0 -1
0.0099901310 -0.0475250880 0 -1
0.0110838690 -0.0471156500 0 -1
0.0126578060 -0.0463312080 0 -1
0.0145364190 -0.0452759770 0 -1
0.0165180290 -0.0440851100 0 -1
0.0183978880 -0.0429068060 0 -1
0.0199886270 -0.0418813590 0 -1
0.0211357230 -0.0411232650 0 -1
0.0217285740 -0.0407103800 0 -1
0.0217085700 -0.0406801260 0 -1
0.0210739830 -0.0410305100 0 -1
0.0198812010 -0.0417233820 0 -1
0.0182415220 -0.0426882560 0 -1
0.0163116650 -0.0438270380 0 -1
0.0142785580 -0.0450214300 0 -1
0.0123419410 -0.0461437110 0 -1
0.0106957300 -0.0470694020 0 -1
0.0095050280 -0.0476895730 0 -1
0.0088807330 -0.0479220400 0 -1
0.0088647260 -0.0477220370 0 -1
0.0094366020 -0.0470914660 0 -1
0.0105348690 -0.0460829410 0 -1
0.0120750750 -0.0447945260 0 -1
0.0139556000 -0.0433551490 0 -1
0.0160544520 -0.0419059010 0 -1
0.0182258730 -0.0405842600 0 -1
0.0203055990 -0.0395147690 0 -1
0.0221274110 -0.0388032690 0 -1
0.0235425160 -0.0385291040 0 -1
0.0244314660 -0.0387345340 0 -1
0.0247115980 -0.0394163400 0 -1
0.0243495900 -0.0405231560 0 -1
0.0233762360 -0.0419578190 0 -1
0.0218910290 -0.0435843510 0 -1
0.0200517720 -0.0452411230 0 -1
0.0180546840 -0.0467604260 0 -1
0.0161124310 -0.0479905130 0 -1
0.0144338460 -0.0488130900 0 -1
0.0132043670 -0.0491517510 0 -1
0.0125651090 -0.0489733180 0 -1
0.0125933670 -0.0482872180 0 -1
0.0132913730 -0.0471452980 0 -1
0.0145868560 -0.0456404400 0 -1
0.0163440210 -0.0439013330 0 -1
0.0183829090 -0.0420825240 0 -1
0.0205034500 -0.0403507570 0 -1
0.0225066150 -0.0388689970 0 -1
0.0242081090 -0.0377801030 0 -1
0.0254487990 -0.0371925350 0 -1
0.0261083500 -0.0371692420 0 -1
0.0261220010 -0.0377199410 0 -1
0.0254938570 -0.0387978740 0 -1
0.0242988990 -0.0403024740 0 -1
0.0226705220 -0.0420882700 0 -1
0.0207791840 -0.0439794020 0 -1
0.0188134820 -0.0457877870 0 -1
0.0169683030 -0.0473323060 0 -1
0.0154321420 -0.0484570370 0 -1
0.0143662620 -0.0490470100 0 -1
0.0138813830 -0.0490393560 0 -1
0.0140220530 -0.0484284790 0 -1
0.0147604570 -0.0472657730 0 -1
0.0159972490 -0.0456545880 0 -1
0.0175730800 -0.0437402610 0 -1
0.0192958310 -0.0416956880 0 -1
0.0209764760 -0.0397041970 0 -1
0.0224570400 -0.0379417310 0 -1
0.0236209680 -0.0365595720 0 -1
0.0243898050 -0.0356685240 0 -1
0.0247170580 -0.0353264890 0 -1
0.0245878230 -0.0355325510 0 -1
0.0240243280 -0.0362298450 0 -1
0.0230903280 -0.0373166710 0 -1
0.0218886350 -0.0386621830 0 -1
0.0205521030 -0.0401218750 0 -1
0.0192310940 -0.0415499870 0 -1
0.0180796290 -0.0428091750 0 -1
0.0172414950 -0.0437792540 0 -1
0.0168358280 -0.0443665310 0 -1
0.0169408120 -0.0445136900 0 -1
0.0175783080 -0.0442078330 0 -1
0.0187072500 -0.0434831440 0 -1
0.0202295630 -0.0424160900 0 -1
0.0220037640 -0.0411146020 0 -1
0.0238599360 -0.0397057030 0 -1
0.0256147570 -0.0383252210 0 -1
0.0270881620 -0.0371082200 0 -1
0.0281218340 -0.0361757960 0 -1
0.0285967160 -0.0356183400 0 -1
0.0284468560 -0.0354818350 0 -1
0.0276697080 -0.0357625490 0 -1
0.0263324090 -0.0364089720 0 -1
0.0245686800 -0.0373272250 0 -1
0.0225614330 -0.0383896110 0 -1
0.0205158970 -0.0394484810 0 -1
0.0186341120 -0.0403549500 0 -1
0.0170955420 -0.0409777450 0 -1
0.0160412830 -0.0412168420 0 -1
0.0155603050 -0.0410101270 0 -1
0.0156807580 -0.0403354830 0 -1
0.0163703960 -0.0392114920 0 -1
0.0175464040 -0.0376967570 0 -1
0.0190903440 -0.0358856080 0 -1
0.0208626110 -0.0338996450 0 -1
0.0227123700 -0.0318772770 0 -1
0.0244811940 -0.0299630180 0 0
0.0260021870 -0.0282958160 0 0
0.0271032310 -0.0269951540 0 0
0.0276254470 -0.0261463180 0 0
0.0274558820 -0.0257889210 0 0
0.0265575550 -0.0259122840 0 0
0.0249820990 -0.0264575470 0 0
0.0228648230 -0.0273242140 0 0
0.0204084880 -0.0283805630 0 0
0.0178592990 -0.0294781630 0 0
0.0154759200 -0.0304686380 0 -1
0.0134940330 -0.0312192390 0 -1
0.0120948900 -0.0316244280 0 -1
0.0113885810 -0.0316123290 0 -1
0.0114142230 -0.0311472730 0 -1
0.0121488890 -0.0302311090 0 -1
0.0135170200 -0.0289047250 0 0
0.0153988560 -0.0272484270 0 0
0.0176389110 -0.0253782790 0 0
0.0200532910 -0.0234366400 0 0
0.0224366550 -0.0215778940 0 0
0.0245750940 -0.0199524560 0 0
0.0262696540 -0.0186917950 0 0
0.0273656900 -0.0178962610 0 0
0.0277762740 -0.0176263900 0 0
0.0274904060 -0.0178968340 0 0
0.0265668650 -0.0186725940 0 0
0.0251226760 -0.0198700300 0 0
0.0233215830 -0.0213653460 0 0
0.0213595540 -0.0230095480 0 0
0.0194447540 -0.0246456620 0 0
0.0177751950 -0.0261244370 0 0
0.0165176940 -0.0273176130 0 0
0.0157903980 -0.0281294390 0 0
0.0156531460 -0.0285059870 0 0
0.0161077080 -0.0284402780 0 0
0.0171029460 -0.0279713740 0 0
0.0185393050 -0.0271772540 0 0
0.0202726470 -0.0261637680 0 0
0.0221215800 -0.0250534530 0 0
0.0238823350 -0.0239763560 0 0
0.0253502490 -0.0230613380 0 0
0.0263416840 -0.0224252970 0 0
0.0267132130 -0.0221605670 0 0
0.0263805910 -0.0223238920 0 0
0.0253363520 -0.0229302570 0 0
0.0236569400 -0.0239516230 0 0
0.0214934190 -0.0253183100 0 0
0.0190506800 -0.0269225770 0 0
0.0165642640 -0.0286267480 0 0
0.0142796350 -0.0302770390 0 -1
0.0124324080 -0.0317204490 0 -1
0.0112250590 -0.0328204400 0 -1
0.0107996440 -0.0334695210 0 -1
0.0112134200 -0.0335996810 0 -1
0.0124267560 -0.0331911210 0 -1
0.0143085020 -0.0322769240 0 -1
0.0166563100 -0.0309406360 0 -1
0.0192235510 -0.0293064350 0 0
0.0217473490 -0.0275247710 0 0
0.0239783090 -0.0257569810 0 0
0.0257100590 -0.0241610210 0 0
0.0268006230 -0.0228784070 0 0
0.0271800990 -0.0220214530 0 0
0.0268472990 -0.0216610290 0 0
0.0258620120 -0.0218172620 0 0
0.0243369970 -0.0224563280 0 0
0.0224294290 -0.0234950810 0 0
0.0203290030 -0.0248124260 0 0
0.0182406970 -0.0262638460 0 0
0.0163630930 -0.0276960780 0 0
0.0148663030 -0.0289616670 0 0
0.0138746220 -0.0299342210 0 0
0.0134568140 -0.0305233400 0 -1
0.0136245400 -0.0306856380 0 -1
0.0143385720 -0.0304281690 0 -1
0.0155204850 -0.0298037700 0 0
0.0170644990 -0.0289018450 0 0
0.0188440580 -0.0278384010 0 0
0.0207114630 -0.0267459250 0 0
0.0224954670 -0.0257621150 0 0
0.0240071380 -0.0250178650 0 0
0.0250612780 -0.0246251800 0 0
0.0255077760 -0.0246648500 0 0
0.0252583100 -0.0251753160 0 0
0.0242999240 -0.0261459460 0 0
0.0226967410 -0.0275160330 0 0
0.0205819630 -0.0291783250 0 0
0.0181416970 -0.0309864180 0 -1
0.0155946570 -0.0327670000 0 -1
0.0131700190 -0.0343376040 0 -1
0.0110810020 -0.0355278820 0 -1
0.0094957130 -0.0361999420 0 -1
0.0085163460 -0.0362635970 0 -1
0.0081765160 -0.0356856000 0 -1
0.0084535780 -0.0344936140 0 -1
0.0092847500 -0.0327742900 0 -1
0.0105789360 -0.0306650230 0 -1
0.0122226780 -0.0283411270 0 0
0.0140823800 -0.0259998980 0 0
0.0160060920 -0.0238421320 0 0
0.0178289380 -0.0220531210 0 0
0.0193860010 -0.0207862570 0 0
0.0205319000 -0.0201506100 0 0
0.0211602620 -0.0202019860 0 0
0.0212157220 -0.0209373430 0 0
0.0206964810 -0.0222937200 0 0
0.0196516920 -0.0241526050 0 0
0.0181799880 -0.0263495170 0 0
0.0164295600 -0.0286881230 0 0
0.0145914130 -0.0309584610 0 -1
0.0128785650 -0.0329580840 0 -1
0.0114957140 -0.0345129130 0 -1
0.0106115020 -0.0354937100 0 -1
0.0103398040 -0.0358257470 0 -1
0.0107274130 -0.0354918970 0 -1
0.0117463450 -0.0345313530 0 -1
0.0132951670 -0.0330362450 0 -1
0.0152119640 -0.0311458210 0 -1
0.0172948240 -0.0290355610 0 0
0.0193246860 -0.0268996720 0 0
0.0210872030 -0.0249292430 0 0
0.0223921060 -0.0232915060 0 0
0.0230924240 -0.0221147640 0 0
0.0231044160 -0.0214798910 0 0
0.0224202990 -0.0214172390 0 0
0.0211059070 -0.0219073800 0 0
0.0192866940 -0.0228837500 0 0
0.0171306880 -0.0242363450 0 0
0.0148317290 -0.0258179680 0 0
0.0125922190 -0.0274550890 0 0
0.0106065070 -0.0289635420 0 0
0.0090465780 -0.0301676770 0 -1
0.0080488190 -0.0309209740 0 -1
0.0077011110 -0.0311246140 0 -1
0.0080324660 -0.0307394420 0 -1
0.0090060080 -0.0297889310 0 0
0.0105151910 -0.0283540640 0 0
0.0123880630 -0.0265620110 0 0
0.0144063010 -0.0245709390 0 0
0.0163375120 -0.0225542120 0 0
0.0179695410 -0.0206860030 0 0
0.0191356670 -0.0191276330 0 0
0.0197280030 -0.0180136860 0 0
0.0197019040 -0.0174389610 0 0
0.0190727420 -0.0174483150 0 0
0.0179058000 -0.0180307200 0 0
0.0163046770 -0.0191184130 0 0
0.0144037570 -0.0205923380 0 0
0.0123623020 -0.0222943690 0 0
0.0103554170 -0.0240445840 0 0
0.0085621990 -0.0256601920 0 0
0.0071519870 -0.0269737670 0 0
0.0062677900 -0.0278502900 0 0
0.0060084620 -0.0282021880 0 0
0.0064129460 -0.0279997060 0 0
0.0074488380 -0.0272738550 0 0
0.0090085560 -0.0261112570 0 0
0.0109181240 -0.0246428430 0 0
0.0129598640 -0.0230293280 0 0
0.0149035290 -0.0214453860 0 0
0.0165372690 -0.0200629100 0 0
0.0176911500 -0.0190338200 0 0
0.0182503940 -0.0184742890 0 0
0.0181613850 -0.0184530250 0 0
0.0174350700 -0.0189848960 0 0
0.0161469090 -0.0200300620 0 0
0.0144295350 -0.0214988170 0 0
0.0124595180 -0.0232617020 0 0
0.0104420290 -0.0251628550 0 0
0.0085926190 -0.0270346410 0 0
0.0071146490 -0.0287128400 0 0
0.0061761810 -0.0300516910 0 -1
0.0058913820 -0.0309369920 0 -1
0.0063075300 -0.0312956080 0 -1
0.0073980720 -0.0311012880 0 -1
0.0090661060 -0.0303773510 0 -1
0.0111612670 -0.0291962090 0 0
0.0135037220 -0.0276748370 0 0
0.0159050330 -0.0259653240 0 0
0.0181823710 -0.0242406770 0 0
0.0201689930 -0.0226776440 0 0
0.0217228190 -0.0214388870 0 0
0.0227320870 -0.0206557610 0 0
0.0231183230 -0.0204122430 0 0
0.0228417080 -0.0207326250 0 0
0.0219145760 -0.0215772710 0 0
0.0204184310 -0.0228483260 0 0
0.0185097200 -0.0244029540 0 0
0.0164052440 -0.0260703430 0 0
0.0143529260 -0.0276701680 0 0
0.0126005360 -0.0290315980 0 0
0.0113692500 -0.0300116460 0 -1
0.0108297110 -0.0305112600 0 -1
0.0110789140 -0.0304879970 0 -1
0.0121257970 -0.0299638040 0 0
0.0138929950 -0.0290237910 0 0
0.0162300530 -0.0278021350 0 0
0.0189297290 -0.0264581040 0 0
0.0217472110 -0.0251516130 0 0
0.0244254130 -0.0240257290 0 0
0.0267239530 -0.0231969620 0 0
0.0284460240 -0.0227506280 0 0
0.0294588090 -0.0227384340 0 0
0.0297038350 -0.0231762210 0 0
0.0291950220 -0.0240416710 0 0
0.0280075720 -0.0252737980 0 0
0.0262652470 -0.0267759650 0 0
0.0241310050 -0.0284229890 0 0
0.0217991880 -0.0300719480 0 -1
0.0194837780 -0.0315752790 0 -1
0.0173992470 -0.0327944200 0 -1
0.0157353740 -0.0336130500 0 -1
0.0146323370 -0.0339487470 0 -1
0.0141644270 -0.0337612340 0 -1
0.0143377100 -0.0330568060 0 -1
0.0151003080 -0.0318895500 0 -1
0.0163572760 -0.0303583920 0 -1
0.0179815670 -0.0285984840 0 0
0.0198198990 -0.0267677340 0 0
0.0216989160 -0.0250311540 0 0
0.0234359880 -0.0235453390 0 0
0.0248554650 -0.0224441740 0 0
0.0258090290 -0.0218262300 0 0
0.0261956960 -0.0217445570 0 0
0.0259753720 -0.0222001740 0 0
0.0251738760 -0.0231405680 0 0
0.0238813220 -0.0244639210 0 0
0.0222437760 -0.0260293870 0 0
0.0204454130 -0.0276731920 0 0
0.0186815760 -0.0292284170 0 0
0.0171310080 -0.0305440450 0 -1
0.0159397750 -0.0314991450 0 -1
0.0152209680 -0.0320110980 0 -1
0.0150590060 -0.0320392440 0 -1
0.0155042840 -0.0315855430 0 -1
0.0165573610 -0.0306932090 0 -1
0.0181540810 -0.0294441940 0 0
0.0201619570 -0.0279559380 0 0
0.0223910840 -0.0263755900 0 0
0.0246179970 -0.0248684320 0 0
0.0266165090 -0.0236001270 0 0
0.0281875230 -0.0227167790 0 0
0.0291831240 -0.0223271480 0 0
0.0295229490 -0.0224889310 0 0
0.0291997560 -0.0232001810 0 0
0.0282721040 -0.0243977170 0 0
0.0268479000 -0.0259639430 0 0
0.0250673640 -0.0277421010 0 0
0.0230912280 -0.0295571580 0 0
0.0210934840 -0.0312364530 0 -1
0.0192547970 -0.0326247060 0 -1
0.0177515000 -0.0335929890 0 -1
0.0167361420 -0.0340460210 0 -1
0.0163128780 -0.0339313950 0 -1
0.0165177730 -0.0332492330 0 -1
0.0173111300 -0.0320579470 0 -1
0.0185816280 -0.0304731350 0 -1
0.0201604110 -0.0286585040 0 0
0.0218444070 -0.0268088740 0 0
0.0234242700 -0.0251266030 0 0
0.0247082310 -0.0237944910 0 0
0.0255370710 -0.0229507610 0 0
0.0257929650 -0.0226732930 0 0
0.0254070430 -0.0229771240 0 0
0.0243677570 -0.0238220100 0 0
0.0227282620 -0.0251221080 0 0
0.0206067850 -0.0267526720 0 0
0.0181740450 -0.0285561040 0 0
0.0156305420 -0.0303529650 0 -1
0.0131837840 -0.0319597730 0 -1
0.0110307780 -0.0332102670 0 -1
0.0093432640 -0.0339750000 0 -1
0.0082531960 -0.0341746880 0 -1
0.0078390730 -0.0337848370 0 -1
0.0081154850 -0.0328331220 0 -1
0.0090289260 -0.0313936340 0 -1
0.0104619520 -0.0295804310 0 0
0.0122457240 -0.0275396640 0 0
0.0141783700 -0.0254385010 0 0
0.0160430930 -0.0234499570 0 0
0.0176211850 -0.0217346950 0 0
0.0187054560 -0.0204234590 0 0
0.0191272110 -0.0196046330 0 0
0.0187970900 -0.0193188630 0 0
0.0177369950 -0.0195593740 0 0
0.0160794190 -0.0202761200 0 0
0.0140361790 -0.0213826220 0 0
0.0118573550 -0.0227640320 0 0
0.0097947140 -0.0242855610 0 0
0.0080717540 -0.0258027520 0 0
0.0068612570 -0.0271749690 0 0
0.0062736120 -0.0282803090 0 0
0.0063569770 -0.0290287670 0 0
0.0071050240 -0.0293719630 0 0
0.0084646650 -0.0293082470 0 0
0.0103396630 -0.0288816110 0 0
0.0125929000 -0.0281744080 0 0
0.0150521720 -0.0272962500 0 0
0.0175213520 -0.0263715420 0 0
0.0197953460 -0.0255272100 0 0
0.0216763640 -0.0248816620 0 0
0.0229907990 -0.0245350740 0 0
0.0236073870 -0.0245607530 0 0
0.0234553440 -0.0249985790 0 0
0.0225380500 -0.0258518400 0 0
0.0209367650 -0.0270870680 0 0
0.0188010610 -0.0286354760 0 0
0.0163278740 -0.0303960090 0 -1
0.0137361900 -0.0322414910 0 -1
0.0112448670 -0.0340285030 0 -1
0.0090566170 -0.0356099880 0 -1
0.0073456710 -0.0368495180 0 -1
0.0062453680 -0.0376361690 0 -1
0.0058362320 -0.0378976530 0 -1
0.0061374440 -0.0376091990 0 -1
0.0071015510 -0.0367973060 0 -1
0.0086134070 -0.0355384860 0 -1
0.0104997740 -0.0339531600 0 -1
0.0125515730 -0.0321956260 0 -1
0.0145488390 -0.0304410160 0 -1
0.0162781760 -0.0288685180 0 0
0.0175468760 -0.0276402840 0 0
0.0182039400 -0.0268793320 0 0
0.0181648790 -0.0266534380 0 0
0.0174261370 -0.0269698410 0 0
0.0160642860 -0.0277788030 0 0
0.0142270900 -0.0289812090 0 0
0.0121198300 -0.0304388140 0 -1
0.0099832490 -0.0319882020 0 -1
0.0080631450 -0.0334575820 0 -1
0.0065780180 -0.0346837050 0 -1
0.0056911200 -0.0355272870 0 -1
0.0054908930 -0.0358867610 0 -1
0.0059825670 -0.0357097810 0 -1
0.0070912120 -0.0350009460 0 -1
0.0086734980 -0.0338237360 0 -1
0.0105349320 -0.0322950230 0 -1
0.0124504380 -0.0305720310 0 -1
0.0141861650 -0.0288339150 0 0
0.0155206850 -0.0272612290 0 0
0.0162655740 -0.0260160110 0 0
0.0162847800 -0.0252244050 0 0
0.0155083930 -0.0249638210 0 0
0.0139366280 -0.0252567940 0 0
0.0116359310 -0.0260721990 0 0
0.0087334300 -0.0273318640 0 0
0.0054117830 -0.0289197630 0 0
0.0018990380 -0.0306928580 0 -1
-0.0015511330 -0.0324937300 0 -1
-0.0046854580 -0.0341640170 0 -1
-0.0072758850 -0.0355570630 0 -1
-0.0091390380 -0.0365493390 0 -1
-0.0101500770 -0.0370512170 0 -1
-0.0102516360 -0.0370172990 0 -1
-0.0094584080 -0.0364549570 0 -1
-0.0078572360 -0.0354280720 0 -1
-0.0056011950 -0.0340530500 0 -1
-0.0028961920 -0.0324868530 0 -1
0.0000187326 -0.0309098190 0 -1
0.0028932650 -0.0295067850 0 0
0.0054865170 -0.0284490390 0 0
0.0075872540 -0.0278784880 0 0
0.0090354190 -0.0278944300 0 0
0.0097422550 -0.0285426610 0 0
0.0097014720 -0.0298071780 0 0
0.0089842160 -0.0316063970 0 -1
0.0077194960 -0.0337970880 0 -1
0.0060727720 -0.0361878220 0 -1
0.0042330090 -0.0385608720 0 -1
0.0024040020 -0.0406991680 0 -1
0.0007879820 -0.0424131490 0 -1
-0.0004438840 -0.0435618020 0 -1
-0.0011825870 -0.0440651710 0 -1
-0.0013914180 -0.0439101340 0 -1
-0.0010879110 -0.0431514250 0 -1
-0.0003180190 -0.0419059590 0 -1
0.0008542020 -0.0403379690 0 -1
0.0023401530 -0.0386369610 0 -1
0.0040189050 -0.0369943590 0 -1
0.0057415540 -0.0355839210 0 -1
0.0073483160 -0.0345473450 0 -1
0.0086883310 -0.0339842750 0 -1
0.0096341960 -0.0339461670 0 -1
0.0100932760 -0.0344341880 0 -1
0.0100201400 -0.0354009240 0 -1
0.0094280870 -0.0367555730 0 -1
0.0083951470 -0.0383728110 0 -1
0.0070616480 -0.0401054340 0 -1
0.0056166490 -0.0417999330 0 -1
0.0042727220 -0.0433125820 0 -1
0.0032345440 -0.0445223070 0 -1
0.0026705160 -0.0453377120 0 -1
0.0026941090 -0.0456993400 0 -1
0.0033556870 -0.0455809170 0 -1
0.0046418560 -0.0449919720 0 -1
0.0064793420 -0.0439807980 0 -1
0.0087413700 -0.0426347350 0 -1
0.0112560240 -0.0410751650 0 -1
0.0138183880 -0.0394467480 0 -1
0.0162085220 -0.0379028120 0 -1
0.0182151680 -0.0365897540 0 -1
0.0196617540 -0.0356326510 0 -1
0.0204277700 -0.0351235230 0 -1
0.0204600450 -0.0351137070 0 -1
0.0197751120 -0.0356110510 0 -1
0.0184555180 -0.0365806860 0 -1
0.0166386770 -0.0379469800 0 -1
0.0144983590 -0.0395964190 0 -1
0.0122253900 -0.0413841440 0 -1
0.0100129880 -0.0431464170 0 -1
0.0080445270 -0.0447175110 0 -1
0.0064787640 -0.0459473200 0 -1
0.0054316770 -0.0467172560 0 -1
0.0049596360 -0.0469538600 0 -1
0.0050528130 -0.0466390200 0 -1
0.0056439780 -0.0458139560 0 -1
0.0066258720 -0.0445746250 0 -1
0.0078653830 -0.0430590360 0 -1
0.0092100050 -0.0414293770 0 -1
0.0104908600 -0.0398525270 0 -1
0.0115317760 -0.0384822720 0 -1
0.0121720920 -0.0374456270 0 -1
0.0122977860 -0.0368339460 0 -1
0.0118646050 -0.0366981690 0 -1
0.0109031010 -0.0370474860 0 -1
0.0095088100 -0.0378510200 0 -1
0.0078252140 -0.0390417710 0 -1
0.0060248050 -0.0405221530 0 -1
0.0042913070 -0.0421708400 0 -1
0.0028042280 -0.0438507740 0 -1
0.0017255010 -0.0454185860 0 -1
0.0011869590 -0.0467362110 0 -1
0.0012760810 -0.0476841540 0 -1
0.0020193000 -0.0481740310 0 -1
0.0033702030 -0.0481584190 0 -1
0.0052127690 -0.0476377950 0 -1
0.0073785600 -0.0466641460 0 -1
0.0096669760 -0.0453393300 0 -1
0.0118638860 -0.0438062460 0 -1
0.0137624750 -0.0422330080 0 -1
0.0151870130 -0.0407932640 0 -1
0.0160133910 -0.0396468060 0 -1
0.0161799340 -0.0389223070 0 -1
0.0156863710 -0.0387027260 0 -1
0.0145841180 -0.0390154640 0 -1
0.0129645590 -0.0398297600 0 -1
0.0109505410 -0.0410616100 0 -1
0.0086916480 -0.0425844380 0 -1
0.0063595660 -0.0442434040 0 -1
0.0041380380 -0.0458716630 0 -1
0.0022051170 -0.0473073740 0 -1
0.0007127610 -0.0484101910 0 -1
-0.0002286120 -0.0490756340 0 -1
-0.0005585150 -0.0492461590 0 -1
-0.0002708230 -0.0489185330 0 -1
0.0005837930 -0.0481463200 0 -1
0.0018989400 -0.0470349010 0 -1
0.0035194270 -0.0457279100 0 -1
0.0052548680 -0.0443877850 0 -1
0.0068989040 -0.0431755750 0 -1
0.0082516020 -0.0422341980 0 -1
0.0091422970 -0.0416761090 0 -1
0.0094500100 -0.0415741900 0 -1
0.0091184020 -0.0419548990 0 -1
0.0081626220 -0.0427944000 0 -1
0.0066661530 -0.0440195990 0 -1
0.0047682170 -0.0455151460 0 -1
0.0026465100 -0.0471357480 0 -1
0.0005006700 -0.0487220700 0 -1
-0.0014641020 -0.0501180360 0 -1
-0.0030585930 -0.0511874980 0 -1
-0.0041358100 -0.0518288110 0 -1
-0.0046107500 -0.0519857010 0 -1
-0.0044632310 -0.0516521640 0 -1
-0.0037264180 -0.0508698240 0 -1
-0.0024726220 -0.0497188540 0 -1
-0.0008041370 -0.0483060950 0 -1
0.0011516700 -0.0467539960 0 -1
0.0032464340 -0.0451916300 0 -1
0.0053153690 -0.0437470360 0 -1
0.0071841830 -0.0425398290 0 -1
0.0086819770 -0.0416737830 0 -1
0.0096609660 -0.0412289380 0 -1
0.0100187700 -0.0412524680 0 -1
0.0097162160 -0.0417495230 0 -1
0.0087849350 -0.0426774610 0 -1
0.0073233510 -0.0439463790 0 -1
0.0054837800 -0.0454264810 0 -1
0.0034544680 -0.0469613350 0 -1
0.0014396010 -0.0483855120 0 -1
-0.0003607400 -0.0495438280 0 -1
-0.0017701680 -0.0503085900 0 -1
-0.0026546290 -0.0505928330 0 -1
-0.0029355940 -0.0503593700 0 -1
-0.0025910190 -0.0496249200 0 -1
-0.0016455720 -0.0484577220 0 -1
-0.0001620530 -0.0469686140 0 -1
0.0017577450 -0.0452979620 0 -1
0.0039687920 -0.0436012450 0 -1
0.0062880590 -0.0420344070 0 -1
0.0085132000 -0.0407390250 0 -1
0.0104467200 -0.0398282460 0 -1
0.0119189090 -0.0393755660 0 -1
0.0128096310 -0.0394082530 0 -1
0.0130663170 -0.0399062940 0 -1
0.0127112590 -0.0408065700 0 -1
0.0118352200 -0.0420107980 0 -1
0.0105811450 -0.0433955870 0 -1
0.0091246990 -0.0448236410 0 -1
0.0076560190 -0.0461558480 0 -1
0.0063630420 -0.0472634450 0 -1
0.0054157690 -0.0480382230 0 -1
0.0049508860 -0.0483996630 0 -1
0.0050568550 -0.0483006200 0 -1
0.0057622650 -0.0477334270 0 -1
0.0070313720 -0.0467349170 0 -1
0.0087672650 -0.0453868780 0 -1
0.0108199290 -0.0438101800 0 -1
0.0129979580 -0.0421535190 0 -1
0.0150855390 -0.0405789210 0 -1
0.0168656570 -0.0392461380 0 -1
0.0181466750 -0.0382970580 0 -1
0.0187862810 -0.0378404060 0 -1
0.0187076300 -0.0379381770 0 -1
0.0179063510 -0.0385969520 0 -1
0.0164492150 -0.0397658620 0 -1
0.0144647390 -0.0413400890 0 -1
0.0121273470 -0.0431690060 0 -1
0.0096395220 -0.0450702600 0 -1
0.0072152140 -0.0468496750 0 -1
0.0050637450 -0.0483225960 0 -1
0.0033720190 -0.0493324420 0 -1
0.0022853420 -0.0497659750 0 -1
0.0018905870 -0.0495654110 0 -1
0.0022062110 -0.0487354060 0 -1
0.0031812530 -0.0473425740 0 -1
0.0047028220 -0.0455074670 0 -1
0.0066094010 -0.0433914530 0 -1
0.0087067860 -0.0411807820 0 -1
0.0107858770 -0.0390686980 0 -1
0.0126430930 -0.0372364500 0 -1
0.0141007590 -0.0358354930 0 -1
0.0150216670 -0.0349744200 0 -1
0.0153166900 -0.0347130520 0 -1
0.0149510400 -0.0350621530 0 -1
0.0139519960 -0.0359847360 0 -1
0.0124125270 -0.0373971130 0 -1
0.0104847970 -0.0391718260 0 -1
0.0083636240 -0.0411458030 0 -1
0.0062630510 -0.0431350700 0 -1
0.0043890640 -0.0449545100 0 -1
0.0029128330 -0.0464389380 0 -1
0.0019508030 -0.0474616690 0 -1
0.0015557660 -0.0479482650 0 -1
0.0017163520 -0.0478839600 0 -1
0.0023588010 -0.0473135690 0 -1
0.0033500800 -0.0463338190 0 -1
0.0045099850 -0.0450798830 0 -1
0.0056387650 -0.0437090280 0 -1
0.0065528410 -0.0423839430 0 -1
0.0071127820 -0.0412571300 0 -1
0.0072363990 -0.0404571560 0 -1
0.0068988650 -0.0400777190 0 -1
0.0061208490 -0.0401704790 0 -1
0.0049498490 -0.0407417460 0 -1
0.0034491110 -0.0417523070 0 -1
0.0017009980 -0.0431202580 0 -1
-0.0001864070 -0.0447277620 0 -1
-0.0020814220 -0.0464321040 0 -1
-0.0038386950 -0.0480798040 0 -1
-0.0053122180 -0.0495214150 0 -1
-0.0063705170 -0.0506253940 0 -1
-0.0069119260 -0.0512906120 0 -1
-0.0068760640 -0.0514570970 0 -1
-0.0062515390 -0.0511142470 0 -1
-0.0050808540 -0.0503052100 0 -1
-0.0034584460 -0.0491249970 0 -1
-0.0015200490 -0.0477100560 0 -1
0.0005699010 -0.0462204300 0 -1
0.0026282490 -0.0448197600 0 -1
0.0044650850 -0.0436588000 0 -1
0.0059025610 -0.0428641610 0 -1
0.0067980020 -0.0425296350 0 -1
0.0070646380 -0.0427066770 0 -1
0.0066848200 -0.0433945810 0 -1
0.0057128870 -0.0445358090 0 -1
0.0042669330 -0.0460215200 0 -1
0.0025124060 -0.0477067860 0 -1
0.0006424370 -0.0494306880 0 -1
-0.0011427500 -0.0510363560 0 -1
-0.0026566200 -0.0523874510 0 -1
-0.0037449770 -0.0533790600 0 -1
-0.0043000840 -0.0539432250 0 -1
-0.0042696290 -0.0540511000 0 -1
-0.0036597010 -0.0537132270 0 -1
-0.0025306250 -0.0529782590 0 -1
-0.0009867820 -0.0519298160 0 -1
0.0008352450 -0.0506807320 0 -1
0.0027752660 -0.0493638680 0 -1
0.0046535720 -0.0481188870 0 -1
0.0062768590 -0.0470762520 0 -1
0.0074578010 -0.0463430960 0 -1
0.0080520320 -0.0459955980 0 -1
0.0079970550 -0.0460767000 0 -1
0.0073307280 -0.0465939360 0 -1
0.0061819800 -0.0475157460 0 -1
0.0047426940 -0.0487697180 0 -1
0.0032316410 -0.0502464700 0 -1
0.0018573860 -0.0518099080 0 -1
0.0007874430 -0.0533116530 0 -1
0.0001319090 -0.0546054570 0 -1
-0.0000559446 -0.0555580520 0 -1
0.0002322040 -0.0560574300 0 -1
0.0009729550 -0.0560231120 0 -1
0.0021167120 -0.0554197610 0 -1
0.0035847120 -0.0542693870 0 -1
0.0052688960 -0.0526557590 0 -1
0.0070453490 -0.0507175630 0 -1
0.0087940270 -0.0486314500 0 -1
0.0104060960 -0.0465903620 0 -1
0.0117744120 -0.0447830120 0 -1
0.0127833630 -0.0433766040 0 -1
0.0133145090 -0.0425014310 0 -1
0.0132689310 -0.0422364490 0 -1
0.0125961120 -0.0425977110 0 -1
0.0113167580 -0.0435333160 0 -1
0.0095291730 -0.0449278640 0 -1
0.0073952560 -0.0466169250 0 -1
0.0051125860 -0.0484091760 0 -1
0.0028857010 -0.0501113140 0 -1
0.0009048100 -0.0515500030 0 -1
-0.0006694220 -0.0525871640 0 -1
-0.0017192410 -0.0531285390 0 -1
-0.0021814640 -0.0531278330 0 -1
-0.0020523110 -0.0525890670 0 -1
-0.0013813180 -0.0515676510 0 -1
-0.0002584990 -0.0501674930 0 -1
0.0011965000 -0.0485308520 0 -1
0.0028404940 -0.0468212410 0 -1
0.0045139030 -0.0452041270 0 -1
0.0060554210 -0.0438306520 0 -1
0.0073220180 -0.0428259770 0 -1
0.0082048360 -0.0422807910 0 -1
0.0086369020 -0.0422446450 0 -1
0.0085982640 -0.0427213850 0 -1
0.0081208110 -0.0436675510 0 -1
0.0072863900 -0.0449939430 0 -1
0.0062164220 -0.0465702010 0 -1
0.0050590700 -0.0482336200 0 -1
0.0039755900 -0.0498042750 0 -1
0.0031221020 -0.0511057410 0 -1
0.0026287610 -0.0519870630 0 -1
0.0025846490 -0.0523410460 0 -1
0.0030327510 -0.0521159790 0 -1
0.0039716760 -0.0513200150 0 -1
0.0053583960 -0.0500188620 0 -1
0.0071087660 -0.0483284300 0 -1
0.0090972720 -0.0464042300 0 -1
0.0111612810 -0.0444279280 0 -1
0.0131139950 -0.0425905940 0 -1
0.0147653660 -0.0410737760 0 -1
0.0159464000 -0.0400302310 0 -1
0.0165315380 -0.0395652970 0 -1
0.0164546390 -0.0397214110 0 -1
0.0157164530 -0.0404710670 0 -1
0.0143843040 -0.0417214230 0 -1
0.0125845520 -0.0433281850 0 -1
0.0104876010 -0.0451140230 0 -1
0.0082883300 -0.0468885170 0 -1
0.0061873250 -0.0484683590 0 -1
0.0043743970 -0.0496954810 0 -1
0.0030110020 -0.0504492990 0 -1
0.0022095560 -0.0506511630 0 -1
0.0020150070 -0.0502637130 0 -1
0.0024007650 -0.0492898590 0 -1
0.0032851400 -0.0477741590 0 -1
0.0045567430 -0.0458058540 0 -1
0.0060905160 -0.0435198650 0 -1
0.0077508110 -0.0410916830 0 -1
0.0093939640 -0.0387246310 0 -1
0.0108787630 -0.0366307480 0 -1
0.0120792850 -0.0350074100 0 -1
0.0128939070 -0.0340121900 0 -1
0.0132526470 -0.0337402550 0 -1
0.0131246170 -0.0342101850 0 -1
0.0125222070 -0.0353622860 0 -1
0.0115003730 -0.0370686420 0 -1
0.0101536150 -0.0391503200 0 -1
0.0086119320 -0.0413973230 0 -1
0.0070333840 -0.0435897820 0 -1
0.0055899990 -0.0455200590 0 -1
0.0044463970 -0.0470137670 0 -1
0.0037364410 -0.0479466440 0 -1
0.0035465650 -0.0482550200 0 -1
0.0039085440 -0.0479389700 0 -1
0.0047962430 -0.0470585930 0 -1
0.0061223950 -0.0457251850 0 -1
0.0077407550 -0.0440891040 0 -1
0.0094620860 -0.0423251590 0 -1
0.0110828900 -0.0406161850 0 -1
0.0124157190 -0.0391367770 0 -1
0.0133113550 -0.0380391580 0 -1
0.0136704740 -0.0374411970 0 -1
0.0134461590 -0.0374152980 0 -1
0.0126400890 -0.0379779330 0 -1
0.0112973390 -0.0390821690 0 -1
0.0095036160 -0.0406172340 0 -1
0.0073833930 -0.0424182050 0 -1
0.0050941800 -0.0442853160 0 -1
0.0028151680 -0.0460088160 0 -1
0.0007322570 -0.0473947240 0 -1
-0.0009790640 -0.0482882880 0 -1
-0.0021720220 -0.0485922510 0 -1
-0.0027448040 -0.0482765480 0 -1
-0.0026522180 -0.0473778720 0 -1
-0.0019135170 -0.0459909870 0 -1
-0.0006161880 -0.0442553440 0 -1
0.0010874420 -0.0423393980 0 -1
0.0029918730 -0.0404233360 0 -1
0.0048549020 -0.0386812880 0 -1
0.0064188110 -0.0372654030 0 -1
0.0074439340 -0.0362937340 0 -1
0.0077555580 -0.0358420260 0 -1
0.0072850450 -0.0359387150 0 -1
0.0060817030 -0.0365630600 0 -1
0.0042922850 -0.0376471570 0 -1
0.0021243330 -0.0390824600 0 -1
-0.0001894790 -0.0407303510 0 -1
-0.0024183230 -0.0424351950 0 -1
-0.0043516780 -0.0440383410 0 -1
-0.0058126400 -0.0453926570 0 -1
-0.0066696060 -0.0463773470 0 -1
-0.0068466310 -0.0469108940 0 -1
-0.0063283700 -0.0469583290 0 -1
-0.0051564200 -0.0465311240 0 -1
-0.0034204480 -0.0456819750 0 -1
-0.0012505990 -0.0444975440 0 -1
0.0011869540 -0.0430901190 0 -1
0.0036970540 -0.0415884740 0 -1
0.0060724170 -0.0401287290 0 -1
0.0081184620 -0.0388454450 0 -1
0.0096758270 -0.0378619530 0 -1
0.0106340360 -0.0372793870 0 -1
0.0109382010 -0.0371658330 0 -1
0.0105920270 -0.0375481380 0 -1
0.0096570710 -0.0384077370 0 -1
0.0082468450 -0.0396802010 0 -1
0.0065159160 -0.0412584840 0 -1
0.0046463590 -0.0430008520 0 -1
0.0028329690 -0.0447437900 0 -1
0.0012654950 -0.0463178980 0 -1
0.0001084270 -0.0475640910 0 -1
-0.0005167420 -0.0483496120 0 -1
-0.0005439410 -0.0485846870 0 -1
0.0000306772 -0.0482377310 0 -1
0.0011487250 -0.0473436920 0 -1
0.0026952100 -0.0460013970 0 -1
0.0045068760 -0.0443597870 0 -1
0.0063850660 -0.0425964350 0 -1
0.0081171780 -0.0408937960 0 -1
0.0095040970 -0.0394185910 0 -1
0.0103844040 -0.0383068220 0 -1
0.0106479170 -0.0376537080 0 -1
0.0102384620 -0.0375067010 0 -1
0.0091528710 -0.0378610540 0 -1
0.0074438970 -0.0386598300 0 -1
0.0052265100 -0.0398009770 0 -1
0.0026791380 -0.0411511020 0 -1
0.0000327735 -0.0425614760 0 -1
-0.0024526810 -0.0438818910 0 -1
-0.0045209740 -0.0449726980 0 -1
-0.0059546860 -0.0457176780 0 -1
-0.0066046820 -0.0460373080 0 -1
-0.0064063630 -0.0458993190 0 -1
-0.0053816990 -0.0453240890 0 -1
-0.0036325700 -0.0443828430 0 -1
-0.0013286790 -0.0431868830 0 -1
0.0013123220 -0.0418690040 0 -1
0.0040515880 -0.0405625000 0 -1
0.0066550870 -0.0393845280 0 -1
0.0089131730 -0.0384275970 0 -1
0.0106538210 -0.0377569400 0 -1
0.0117518550 -0.0374086480 0 -1
0.0121372670 -0.0373873200 0 -1
0.0118032020 -0.0376663790 0 -1
0.0108089130 -0.0381927510 0 -1
0.0092746200 -0.0388936120 0 -1
0.0073712450 -0.0396817310 0 -1
0.0053070270 -0.0404586140 0 -1
0.0033088890 -0.0411183290 0 -1
0.0015993400 -0.0415552580 0 -1
0.0003737320 -0.0416759930 0 -1
-0.0002197370 -0.0414130950 0 -1
-0.0000971648 -0.0407375000 0 -1
0.0007492490 -0.0396664200 0 -1
0.0022482260 -0.0382649870 0 -1
0.0042572160 -0.0366415680 0 -1
0.0065814320 -0.0349371760 0 -1
0.0090008340 -0.0333096220 0 -1
0.0112970520 -0.0319146840 0 -1
0.0132736200 -0.0308873830 0 -1
0.0147692230 -0.0303257620 0 -1
0.0156660970 -0.0302800240 0 -1
0.0158944610 -0.0307501990 0 -1
0.0154359030 -0.0316922530 0 -1
0.0143297410 -0.0330277790 0 -1
0.0126793220 -0.0346518830 0 -1
0.0106495790 -0.0364384290 0 -1
0.0084521430 -0.0382454350 0 -1
0.0063218200 -0.0399228740 0 -1
0.0044899610 -0.0413238180 0 -1
0.0031582560 -0.0423189300 0 -1
0.0024755670 -0.0428121950 0 -1
0.0025210480 -0.0427537290 0 -1
0.0032962930 -0.0421464000 0 -1
0.0047269960 -0.0410459520 0 -1
0.0066730770 -0.0395559910 0 -1
0.0089456960 -0.0378185360 0 -1
0.0113284510 -0.0360007420 0 -1
0.0135990480 -0.0342795600 0 -1
0.0155492680 -0.0328259590 0 -1
0.0170033700 -0.0317889000 0 -1
0.0178345170 -0.0312793960 0 -1
0.0179769840 -0.0313567440 0 -1
0.0174319560 -0.0320199660 0 -1
0.0162663650 -0.0332069430 0 -1
0.0146059870 -0.0348020330 0 -1
0.0126245560 -0.0366504450 0 -1
0.0105290010 -0.0385756570 0 -1
0.0085389120 -0.0403968910 0 -1
0.0068601680 -0.0419464990 0 -1
0.0056580520 -0.0430873010 0 -1
0.0050379930 -0.0437270820 0 -1
0.0050387930 -0.0438264730 0 -1
0.0056370230 -0.0433995030 0 -1
0.0067560230 -0.0425092170 0 -1
0.0082726060 -0.0412605990 0 -1
0.0100223150 -0.0397906350 0 -1
0.0118114000 -0.0382543340 0 -1
0.0134395910 -0.0368077840 0 -1
0.0147273810 -0.0355922270 0 -1
0.0155379080 -0.0347223360 0 -1
0.0157883050 -0.0342780490 0 -1
0.0154517390 -0.0342979480 0 -1
0.0145547380 -0.0347746500 0 -1
0.0131732880 -0.0356547360 0 -1
0.0114267070 -0.0368444290 0 -1
0.0094667900 -0.0382193930 0 -1
0.0074635370 -0.0396359110 0 -1
0.0055908800 -0.0409422200 0 -1
0.0040132070 -0.0419911200 0 -1
0.0028714520 -0.0426556660 0 -1
0.0022684940 -0.0428466010 0 -1
0.0022550860 -0.0425260390 0 -1
0.0028190580 -0.0417119520 0 -1
0.0038821150 -0.0404732300 0 -1
0.0053073070 -0.0389198740 0 -1
0.0069157930 -0.0371920770 0 -1
0.0085082410 -0.0354482700 0 -1
0.0098865940 -0.0338511220 0 -1
0.0108740040 -0.0325521610 0 -1
0.0113324710 -0.0316771060 0 -1
0.0111777620 -0.0313139930 0 -1
0.0103893020 -0.0315054690 0 -1
0.0090122730 -0.0322457520 0 -1
0.0071516000 -0.0334819080 0 -1
0.0049598040 -0.0351188420 0 -1
0.0026215290 -0.0370273170 0 -1
0.0003375030 -0.0390535860 0 -1
-0.0016909210 -0.0410294940 0 -1
-0.0032776930 -0.0427838970 0 -1
-0.0042695590 -0.0441573640 0 -1
-0.0045632300 -0.0450199390 0 -1
-0.0041175200 -0.0452883790 0 -1
-0.0029573190 -0.0449385910 0 -1
-0.0011714050 -0.0440107100 0 -1
0.0010917480 -0.0426058540 0 -1
0.0036311270 -0.0408746780 0 -1
0.0062100380 -0.0389997060 0 -1
0.0085859850 -0.0371750380 0 -1
0.0105457950 -0.0355864280 0 -1
0.0119325260 -0.0343931240 0 -1
0.0126570130 -0.0337124840 0 -1
0.0126972050 -0.0336089240 0 -1
0.0120916630 -0.0340888740 0 -1
0.0109301400 -0.0351026130 0 -1
0.0093423830 -0.0365524390 0 -1
0.0074875240 -0.0383054600 0 -1
0.0055443640 -0.0402084830 0 -1
0.0036992140 -0.0421026810 0 -1
0.0021301860 -0.0438367430 0 -1
0.0009916140 -0.0452777670 0 -1
0.0004013100 -0.0463201380 0 -1
0.0004298010 -0.0468936370 0 -1
0.0010910870 -0.0469709180 0 -1
0.0023375290 -0.0465723830 0 -1
0.0040616880 -0.0457657410 0 -1
0.0061042310 -0.0446587130 0 -1
0.0082658590 -0.0433870410 0 -1
0.0103250270 -0.0421020160 0 -1
0.0120631930 -0.0409587060 0 -1
0.0132927280 -0.0401028120 0 -1
0.0138795340 -0.0396556760 0 -1
0.0137566600 -0.0397000270 0 -1
0.0129294350 -0.0402689650 0 -1
0.0114727750 -0.0413391570 0 -1
0.0095207790 -0.0428295100 0 -1
0.0072506010 -0.0446071270 0 -1
0.0048645760 -0.0465010550 0 -1
0.0025739220 -0.0483222000 0 -1
0.0005839140 -0.0498860340 0 -1
-0.0009232100 -0.0510342760 0 -1
-0.0018096200 -0.0516527240 0 -1
-0.0020014550 -0.0516835770 0 -1
-0.0014974950 -0.0511315740 0 -1
-0.0003656130 -0.0500639630 0 -1
0.0012675000 -0.0486038510 0 -1
0.0032292720 -0.0469165930 0 -1
0.0053160150 -0.0451909220 0 -1
0.0073101990 -0.0436182480 0 -1
0.0090009680 -0.0423730290 0 -1
0.0102064980 -0.0415953280 0 -1
0.0107944500 -0.0413762890 0 -1
0.0106967360 -0.0417487460 0 -1
0.0099157800 -0.0426850930 0 -1
0.0085213400 -0.0441022960 0 -1
0.0066398140 -0.0458725580 0 -1
0.0044390860 -0.0478376290 0 -1
0.0021112830 -0.0498242060 0 -1
-0.0001447230 -0.0516587490 0 -1
-0.0021391780 -0.0531820420 0 -1
-0.0037046180 -0.0542637980 0 -1
-0.0047080240 -0.0548159100 0 -1
-0.0050641230 -0.0548021970 0 -1
-0.0047483810 -0.0542426790 0 -1
-0.0038048400 -0.0532112180 0 -1
-0.0023439120 -0.0518269120 0 -1
-0.0005288820 -0.0502408000 0 -1
0.0014450560 -0.0486197650 0 -1
0.0033744280 -0.0471296120 0 -1
0.0050708490 -0.0459189710 0 -1
0.0063812950 -0.0451052330 0 -1
0.0072022990 -0.0447634610 0 -1
0.0074870470 -0.0449190070 0 -1
0.0072458050 -0.0455446780 0 -1
0.0065402840 -0.0465632950 0 -1
0.0054731570 -0.0478552050 0 -1
0.0041747740 -0.0492697760 0 -1
0.0027889730 -0.0506410370 0 -1
0.0014598900 -0.0518072400 0 -1
0.0003218330 -0.0526308030 0 -1
-0.0005075980 -0.0530132310 0 -1
-0.0009342240 -0.0529023860 0 -1
-0.0008970680 -0.0522935370 0 -1
-0.0003799980 -0.0512267020 0 -1
0.0005802110 -0.0497812260 0 -1
0.0018940660 -0.0480678740 0 -1
0.0034285330 -0.0462196080 0 -1
0.0050228600 -0.0443821410 0 -1
0.0065067500 -0.0427035140 0 -1
0.0077164800 -0.0413214840 0 -1
0.0085077130 -0.0403496280 0 -1
0.0087671470 -0.0398649600 0 -1
0.0084249620 -0.0398995010 0 -1
0.0074680640 -0.0404362630 0 -1
0.0059515120 -0.0414088790 0 -1
0.0040010430 -0.0427051310 0 -1
0.0017989440 -0.0441754410 0 -1
-0.0004444190 -0.0456465460 0 -1
-0.0025187420 -0.0469401040 0 -1
-0.0042297760 -0.0478954630 0 -1
-0.0054059850 -0.0483923720 0 -1
-0.0059060450 -0.0483663000 0 -1
-0.0056330310 -0.0478122780 0 -1
-0.0045532260 -0.0467795410 0 -1
-0.0027107580 -0.0453618780 0 -1
-0.0002289330 -0.0436865420 0 -1
0.0027030540 -0.0419019200 0 -1
0.0058500170 -0.0401638670 0 -1
0.0089492110 -0.0386219860 0 -1
0.0117296900 -0.0374072710 0 -1
0.0139413290 -0.0366211760 0 -1
0.0153928560 -0.0363253130 0 -1
0.0159838930 -0.0365325900 0 -1
0.0157157850 -0.0372032510 0 -1
0.0146806980 -0.0382484820 0 -1
0.0130404490 -0.0395406390 0 -1
0.0110047320 -0.0409274210 0 -1
0.0088099800 -0.0422479810 0 -1
0.0066966030 -0.0433494920 0 -1
0.0048855780 -0.0441027200 0 -1
0.0035580730 -0.0444151190 0 -1
0.0028401510 -0.0442393880 0 -1
0.0027927600 -0.0435757730 0 -1
0.0034077570 -0.0424688980 0 -1
0.0046106900 -0.0410021030 0 -1
0.0062691800 -0.0392910060 0 -1
0.0082047870 -0.0374754700 0 -1
0.0102081880 -0.0357087480 0 -1
0.0120587370 -0.0341442490 0 -1
0.0135474410 -0.0329211830 0 -1
0.0144997560 -0.0321505660 0 -1
0.0147941020 -0.0319035750 0 -1
0.0143731720 -0.0322045380 0 -1
0.0132469080 -0.0330297810 0 -1
0.0114885610 -0.0343115650 0 -1
0.0092277240 -0.0359447250 0 -1
0.0066425530 -0.0377943630 0 -1
0.0039476400 -0.0397050480 0 -1
0.0013721020 -0.0415125870 0 -1
-0.0008695760 -0.0430584540 0 -1
-0.0026021020 -0.0442054000 0 -1
-0.0037015570 -0.0448517440 0 -1
-0.0040996050 -0.0449422020 0 -1
-0.0037873390 -0.0444742990 0 -1
-0.0028197540 -0.0435000750 0 -1
-0.0013167590 -0.0421231990 0 -1
0.0005434910 -0.0404918870 0 -1
0.0025410810 -0.0387867630 0 -1
0.0044393320 -0.0372020610 0 -1
0.0060128330 -0.0359212140 0 -1
0.0070714870 -0.0350920180 0 -1
0.0074769110 -0.0348074590 0 -1
0.0071537050 -0.0350960490 0 -1
0.0060998500 -0.0359228520 0 -1
0.0043929580 -0.0371995180 0 -1
0.0021830000 -0.0387988120 0 -1
-0.0003301490 -0.0405692010 0 -1
-0.0029246830 -0.0423479040 0 -1
-0.0053812290 -0.0439735340 0 -1
-0.0075024300 -0.0452999750 0 -1
-0.0091295200 -0.0462113260 0 -1
-0.0101545610 -0.0466350710 0 -1
-0.0105255650 -0.0465493510 0 -1
-0.0102451490 -0.0459822300 0 -1
-0.0093672040 -0.0450048040 0 -1
-0.0079946460 -0.0437221160 0 -1
-0.0062761530 -0.0422641120 0 -1
-0.0043971290 -0.0407758250 0 -1
-0.0025627280 -0.0394052560 0 -1
-0.0009750560 -0.0382896810 0 -1
0.0001902300 -0.0375429090 0 -1
0.0008008840 -0.0372455010 0 -1
0.0007756600 -0.0374386890 0 -1
0.0000891689 -0.0381222190 0 -1
-0.0012191250 -0.0392560470 0 -1
-0.0030380770 -0.0407646930 0 -1
-0.0051928350 -0.0425421640 0 -1
-0.0074695440 -0.0444571070 0 -1
-0.0096465050 -0.0463608140 0 -1
-0.0115205080 -0.0481005640 0 -1
-0.0129239540 -0.0495368320 0 -1
-0.0137352600 -0.0505594380 0 -1
-0.0138869410 -0.0510983660 0 -1
-0.0133725910 -0.0511286650 0 -1
-0.0122500940 -0.0506715370 0 -1
-0.0106375170 -0.0497933660 0 -1
-0.0087002150 -0.0486022910 0 -1
-0.0066306760 -0.0472403330 0 -1
-0.0046253880 -0.0458695570 0 -1
-0.0028651850 -0.0446532810 0 -1
-0.0015028900 -0.0437358570 0 -1
-0.0006546430 -0.0432254050 0 -1
-0.0003894790 -0.0431829110 0 -1
-0.0007186340 -0.0436187010 0 -1
-0.0015910950 -0.0444944750 0 -1
-0.0028988120 -0.0457285520 0 -1
-0.0044889410 -0.0472038910 0 -1
-0.0061788930 -0.0487790010 0 -1
-0.0077729510 -0.0503006340 0 -1
-0.0090814050 -0.0516171090 0 -1
-0.0099416700 -0.0525920170 0 -1
-0.0102371840 -0.0531178030 0 -1
-0.0099082660 -0.0531275540 0 -1
-0.0089537650 -0.0526025370 0 -1
-0.0074290320 -0.0515739000 0 -1
-0.0054443630 -0.0501190160 0 -1
-0.0031608420 -0.0483541310 0 -1
-0.0007792790 -0.0464246120 0 -1
0.0014778610 -0.0444933410 0 -1
0.0033898470 -0.0427272790 0 -1
0.0047641800 -0.0412820780 0 -1
0.0054616090 -0.0402855000 0 -1
0.0054139000 -0.0398223490 0 -1
0.0046311180 -0.0399247030 0 -1
0.0031989820 -0.0405691250 0 -1
0.0012689150 -0.0416793760 0 -1
-0.0009580830 -0.0431328770 0 -1
-0.0032537780 -0.0447713960 0 -1
-0.0053881200 -0.0464167700 0 -1
-0.0071523750 -0.0478902080 0 -1
-0.0083774470 -0.0490318580 0 -1
-0.0089482350 -0.0497176770 0 -1
-0.0088151770 -0.0498720910 0 -1
-0.0080025350 -0.0494761980 0 -1
-0.0066094970 -0.0485714590 0 -1
-0.0047972600 -0.0472583240 0 -1
-0.0027607490 -0.0456883910 0 -1
-0.0006961100 -0.0440484070 0 -1
0.0012211200 -0.0425369460 0 -1
0.0028432370 -0.0413385700 0 -1
0.0040513990 -0.0406015160 0 -1
0.0047591380 -0.0404226340 0 -1
0.0049185370 -0.0408400650 0 -1
0.0045251050 -0.0418321380 0 -1
0.0036202830 -0.0433212200 0 -1
0.0022916280 -0.0451821460 0 -1
0.0006689160 -0.0472548290 0 -1
-0.0010846410 -0.0493600220 0 -1
-0.0027855300 -0.0513168400 0 -1
-0.0042476420 -0.0529599970 0 -1
-0.0053044620 -0.0541538660 0 -1
-0.0058324060 -0.0548019200 0 -1
-0.0057681710 -0.0548531290 0 -1
-0.0051135260 -0.0543068470 0 -1
-0.0039288740 -0.0532145590 0 -1
-0.0023250880 -0.0516761670 0 -1
-0.0004591410 -0.0498312980 0 -1
0.0014729550 -0.0478472540 0 -1
0.0032547000 -0.0459038190 0 -1
0.0046778420 -0.0441749880 0 -1
0.0055714740 -0.0428102120 0 -1
0.0058221460 -0.0419193580 0 -1
0.0053818070 -0.0415639750 0 -1
0.0042667250 -0.0417538590 0 -1
0.0025525800 -0.0424468520 0 -1
0.0003682480 -0.0435520070 0 -1
-0.0021122890 -0.0449381440 0 -1
-0.0046813600 -0.0464479390 0 -1
-0.0071140610 -0.0479144720 0 -1
-0.0091898020 -0.0491770970 0 -1
-0.0107158170 -0.0500958730 0 -1
-0.0115492960 -0.0505650740 0 -1
-0.0116160050 -0.0505255020 0 -1
-0.0109212290 -0.0499731770 0 -1
-0.0095484710 -0.0489616360 0 -1
-0.0076478320 -0.0475971610 0 -1
-0.0054211680 -0.0460274340 0 -1
-0.0031061810 -0.0444237860 0 -1
-0.0009532100 -0.0429590950 0 -1
0.0008092310 -0.0417869740 0 -1
0.0020113960 -0.0410278330 0 -1
0.0025660100 -0.0407624300 0 -1
0.0024708310 -0.0410289740 0 -1
0.0017945640 -0.0418202580 0 -1
0.0006561700 -0.0430811160 0 -1
-0.0007951520 -0.0447092290 0 -1
-0.0023981860 -0.0465620210 0 -1
-0.0039967150 -0.0484702090 0 -1
-0.0054521810 -0.0502560620 0 -1
-0.0066483070 -0.0517528890 0 -1
-0.0074893960 -0.0528222750 0 -1
-0.0078985720 -0.0533669910 0 -1
-0.0078218120 -0.0533389670 0 -1
-0.0072379950 -0.0527421990 0 -1
-0.0061690180 -0.0516305140 0 -1
-0.0046837450 -0.0501006580 0 -1
-0.0028942070 -0.0482823370 0 -1
-0.0009462500 -0.0463271930 0 -1
0.0009925850 -0.0443973970 0 -1
0.0027459990 -0.0426530100 0 -1
0.0041416250 -0.0412376970 0 -1
0.0050247140 -0.0402639800 0 -1
0.0052753340 -0.0398004920 0 -1
0.0048277650 -0.0398638140 0 -1
0.0036869680 -0.0404162520 0 -1
0.0019367080 -0.0413695040 0 -1
-0.0002646880 -0.0425938160 0 -1
-0.0027016520 -0.0439321610 0 -1
-0.0051282180 -0.0452180500 0 -1
-0.0072984410 -0.0462939670 0 -1
-0.0089942470 -0.0470273940 0 -1
-0.0100472560 -0.0473230810 0 -1
-0.0103563960 -0.0471317610 0 -1
-0.0099035350 -0.0464550400 0 -1
-0.0087618990 -0.0453453530 0 -1
-0.0070881140 -0.0439004580 0 -1
-0.0050967250 -0.0422530580 0 -1
-0.0030271640 -0.0405570070 0 -1
-0.0011139740 -0.0389723500 0 -1
0.0004361960 -0.0376506490 0 -1
0.0014616080 -0.0367204630 0 -1
0.0018566910 -0.0362735670 0 -1
0.0015774930 -0.0363545330 0 -1
0.0006415730 -0.0369561350 0 -1
-0.0008753020 -0.0380204560 0 -1
-0.0028420200 -0.0394441570 0 -1
-0.0050765940 -0.0410870880 0 -1
-0.0073595770 -0.0427844110 0 -1
-0.0094582610 -0.0443622900 0 -1
-0.0111550630 -0.0456561300 0 -1
-0.0122722320 -0.0465286460 0 -1
-0.0126888260 -0.0468846080 0 -1
-0.0123504160 -0.0466808450 0 -1
-0.0112741210 -0.0459311130 0 -1
-0.0095499180 -0.0447048670 0 -1
-0.0073356290 -0.0431193410 0 -1
-0.0048419560 -0.0413263150 0 -1
-0.0023084990 -0.0394964170 0 -1
0.0000231598 -0.0378037380 0 -1
0.0019344620 -0.0364119700 0 -1
0.0032520900 -0.0354611070 0 -1
0.0038652150 -0.0350532150 0 -1
0.0037322870 -0.0352380290 0 -1
0.0028762960 -0.0360021850 0 -1
0.0013771600 -0.0372673310 0 -1
-0.0006298210 -0.0389001800 0 -1
-0.0029523180 -0.0407318490 0 -1
-0.0053479120 -0.0425796600 0 -1
-0.0075482540 -0.0442661960 0 -1
-0.0092979020 -0.0456350200 0 -1
-0.0103930150 -0.0465645610 0 -1
-0.0107040800 -0.0469793330 0 -1
-0.0101807360 -0.0468555320 0 -1
-0.0088479370 -0.0462197960 0 -1
-0.0068005580 -0.0451430960 0 -1
-0.0041979350 -0.0437325510 0 -1
-0.0012559100 -0.0421221790 0 -1
0.0017692130 -0.0404620120 0 -1
0.0046073850 -0.0389052420 0 -1
0.0070061310 -0.0375942480 0 -1
0.0087570150 -0.0366472230 0 -1
0.0097127010 -0.0361474010 0 -1
0.0097960570 -0.0361365260 0 -1
0.0090049520 -0.0366128690 0 -1
0.0074143850 -0.0375324530 0 -1
0.0051736880 -0.0388119650 0 -1
0.0024945490 -0.0403335370 0 -1
-0.0003720050 -0.0419532080 0 -1
-0.0031650910 -0.0435140010 0 -1
-0.0056415880 -0.0448619880 0 -1
-0.0075980210 -0.0458624870 0 -1
-0.0088888260 -0.0464142100 0 -1
-0.0094411410 -0.0464604440 0 -1
-0.0092601110 -0.0459969590 0 -1
-0.0084205550 -0.0450757450 0 -1
-0.0070494030 -0.0438028280 0 -1
-0.0053065170 -0.0423285450 0 -1
-0.0033685120 -0.0408298420 0 -1
-0.0014189640 -0.0394862050 0 -1
0.0003550370 -0.0384540410 0 -1
0.0017691450 -0.0378462830 0 -1
0.0026605210 -0.0377217200 0 -1
0.0029154710 -0.0380842930 0 -1
0.0024930650 -0.0388902510 0 -1
0.0014359830 -0.0400599410 0 -1
-0.0001333960 -0.0414895640 0 -1
-0.0020304690 -0.0430587870 0 -1
-0.0040354970 -0.0446340520 0 -1
-0.0059235350 -0.0460720550 0 -1
-0.0074915840 -0.0472283570 0 -1
-0.0085815600 -0.0479717640 0 -1
-0.0090998930 -0.0482006670 0 -1
-0.0090307560 -0.0478570390 0 -1
-0.0084349490 -0.0469366050 0 -1
-0.0074314150 -0.0454949300 0 -1
-0.0061708620 -0.0436469970 0 -1
-0.0048135880 -0.0415567150 0 -1
-0.0035145690 -0.0394166380 0 -1
-0.0024124270 -0.0374230360 0 -1
-0.0016201720 -0.0357521820 0 -1
-0.0012182640 -0.0345414040 0 -1
-0.0012503500 -0.0338760800 0 -1
-0.0017209810 -0.0337824830 0 -1
-0.0025947300 -0.0342260780 0 -1
-0.0037971030 -0.0351152200 0 -1
-0.0052187250 -0.0363107900 0 -1
-0.0067242740 -0.0376420530 0 -1
-0.0081660500 -0.0389276440 0 -1
-0.0093994550 -0.0399983100 0 -1
-0.0102970320 -0.0407163600 0 -1
-0.0107600790 -0.0409881550 0 -1
-0.0107287930 -0.0407695700 0 -1
-0.0101902950 -0.0400665610 0 -1
-0.0091821060 -0.0389328670 0 -1
-0.0077883380 -0.0374655760 0 -1
-0.0061278470 -0.0357976270 0 -1
-0.0043388400 -0.0340857080 0 -1
-0.0025663570 -0.0324937540 0 -1
-0.0009534000 -0.0311750270 0 -1
0.0003678240 -0.0302566770 0 -1
0.0012863620 -0.0298289700 0 0
0.0017240280 -0.0299388760 0 0
0.0016452950 -0.0305869390 0 -1
0.0010627160 -0.0317272720 0 -1
0.0000385242 -0.0332712090 0 -1
-0.0013164930 -0.0350941500 0 -1
-0.0028499090 -0.0370442060 0 -1
-0.0043831050 -0.0389525900 0 -1
-0.0057327350 -0.0406472560 0 -1
-0.0067329960 -0.0419699200 0 -1
-0.0072542200 -0.0427937280 0 -1
-0.0072154550 -0.0430375880 0 -1
-0.0065916330 -0.0426739650 0 -1
-0.0054161180 -0.0417297700 0 -1
-0.0037782190 -0.0402829260 0 -1
-0.0018159850 -0.0384569400 0 -1
0.0002965530 -0.0364126520 0 -1
0.0023690340 -0.0343348170 0 -1
0.0042176260 -0.0324134450 0 -1
0.0056844130 -0.0308231300 0 -1
0.0066514460 -0.0297042700 0 0
0.0070514450 -0.0291485920 0 0
0.0068728230 -0.0291904970 0 0
0.0061529390 -0.0298055790 0 0
0.0049609230 -0.0309159960 0 -1
0.0033810900 -0.0324001860 0 -1
0.0015070450 -0.0341044450 0 -1
-0.0005513020 -0.0358563650 0 -1
-0.0026550030 -0.0374814410 0 -1
-0.0046320620 -0.0388218160 0 -1
-0.0062923710 -0.0397531290 0 -1
-0.0074582630 -0.0401964100 0 -1
-0.0079975300 -0.0401248470 0 -1
-0.0078449000 -0.0395654440 0 -1
-0.0070070940 -0.0385946440 0 -1
-0.0055592440 -0.0373282660 0 -1
-0.0036402690 -0.0359078910 0 -1
-0.0014439180 -0.0344863240 0 -1
0.0008003180 -0.0332139320 0 -1
0.0028546520 -0.0322262160 0 -1
0.0045022240 -0.0316323560 0 -1
0.0055722780 -0.0315050970 0 -1
0.0059578850 -0.0318728640 0 -1
0.0056254120 -0.0327149980 0 -1
0.0046167500 -0.0339613360 0 -1
0.0030444660 -0.0354975890 0 -1
0.0010782600 -0.0371768940 0 -1
-0.0010768640 -0.0388359550 0 -1
-0.0032050280 -0.0403131450 0 -1
-0.0050992120 -0.0414656340 0 -1
-0.0065743540 -0.0421823420 0 -1
-0.0074788510 -0.0423909330 0 -1
-0.0077097780 -0.0420606060 0 -1
-0.0072296850 -0.0412040730 0 -1
-0.0060768400 -0.0398794560 0 -1
-0.0043635420 -0.0381897720 0 -1
-0.0022639860 -0.0362781200 0 -1
0.0000048626 -0.0343177760 0 -1
0.0022072670 -0.0324961870 0 -1
0.0041147040 -0.0309934750 0 -1
0.0055303700 -0.0299596640 0 0
0.0063110550 -0.0294956520 0 0
0.0063847520 -0.0296407600 0 0
0.0057583800 -0.0303687220 0 -1
0.0045114550 -0.0315939920 0 -1
0.0027800020 -0.0331869000 0 -1
0.0007382030 -0.0349913250 0 -1
-0.0014199900 -0.0368391790 0 -1
-0.0034975440 -0.0385618440 0 -1
-0.0053046430 -0.0400022070 0 -1
-0.0066651200 -0.0410292840 0 -1
-0.0074287370 -0.0415536870 0 -1
-0.0074908710 -0.0415398700 0 -1
-0.0068107530 -0.0410108680 0 -1
-0.0054207090 -0.0400434240 0 -1
-0.0034247610 -0.0387557110 0 -1
-0.0009884250 -0.0372926630 0 -1
0.0016770600 -0.0358118770 0 -1
0.0043340400 -0.0344700750 0 -1
0.0067412550 -0.0334104040 0 -1
0.0086792050 -0.0327513770 0 -1
0.0099742180 -0.0325769130 0 -1
0.0105175760 -0.0329270010 0 -1
0.0102780220 -0.0337909800 0 -1
0.0093055910 -0.0351066170 0 -1
0.0077261830 -0.0367657930 0 -1
0.0057293560 -0.0386245820 0 -1
0.0035493680 -0.0405151530 0 -1
0.0014363580 -0.0422593480 0 -1
-0.0003804800 -0.0436852020 0 -1
-0.0017274220 -0.0446455310 0 -1
-0.0025057360 -0.0450351070 0 -1
-0.0026914820 -0.0448030320 0 -1
-0.0023229600 -0.0439590250 0 -1
-0.0014858840 -0.0425739620 0 -1
-0.0002991570 -0.0407746140 0 -1
0.0011003080 -0.0387318790 0 -1
0.0025719330 -0.0366426340 0 -1
0.0039802530 -0.0347075600 0 -1
0.0051971250 -0.0331089160 0 -1
0.0061027740 -0.0319917260 0 -1
0.0065918390 -0.0314500300 0 -1
0.0065861280 -0.0315186880 0 -1
0.0060509950 -0.0321714220 0 -1
0.0050094690 -0.0333257920 0 -1
0.0035483470 -0.0348541460 0 -1
0.0018131770 -0.0365975360 0 -1
-0.0000072376 -0.0383805090 0 -1
-0.0017031990 -0.0400269130 0 -1
-0.0030696030 -0.0413763380 0 -1
-0.0039331280 -0.0422991500 0 -1
-0.0041796600 -0.0427082970 0 -1
-0.0037749290 -0.0425665250 0 -1
-0.0027664260 -0.0418874870 0 -1
-0.0012628080 -0.0407312630 0 -1
0.0005961760 -0.0391972510 0 -1
0.0026617060 -0.0374165220 0 -1
0.0047847610 -0.0355430240 0 -1
0.0068182390 -0.0337421080 0 -1
0.0086200100 -0.0321761200 0 -1
0.0100605480 -0.0309881210 0 -1
0.0110337850 -0.0302857140 0 -1
0.0114662370 -0.0301275350 0 -1
0.0113210480 -0.0305146190 0 -1
0.0106002630 -0.0313878320 0 -1
0.0093518660 -0.0326323510 0 -1
0.0076803360 -0.0340905770 0 -1
0.0057493160 -0.0355829450 0 -1
0.0037666170 -0.0369321130 0 -1
0.0019539340 -0.0379841500 0 -1
0.0005130780 -0.0386228790 0 -1
-0.0004008240 -0.0387780630 0 -1
-0.0006961150 -0.0384306240 0 -1
-0.0003525870 -0.0376162060 0 -1
0.0005779260 -0.0364244520 0 -1
0.0019771510 -0.0349899060 0 -1
0.0036721160 -0.0334733870 0 -1
0.0054545510 -0.0320384110 0 -1
0.0071074190 -0.0308303500 0 -1
0.0084325940 -0.0299632140 0 0
0.0092725720 -0.0295135390 0 0
0.0095243770 -0.0295183580 0 0
0.0091476080 -0.0299751760 0 0
0.0081676530 -0.0308436250 0 -1
0.0066731840 -0.0320487470 0 -1
0.0048063560 -0.0334853630 0 -1
0.0027459120 -0.0350240480 0 -1
0.0006867330 -0.0365207400 0 -1
-0.0011792430 -0.0378306610 0 -1
-0.0026781930 -0.0388240720 0 -1
-0.0036668770 -0.0394002920 0 -1
-0.0040446120 -0.0394973030 0 -1
-0.0037646020 -0.0390959130 0 -1
-0.0028422700 -0.0382191370 0 -1
-0.0013581750 -0.0369286120 0 -1
0.0005458280 -0.0353198070 0 -1
0.0026779750 -0.0335163190 0 -1
0.0048158470 -0.0316621610 0 -1
0.0067320000 -0.0299110770 0 0
0.0082222080 -0.0284129360 0 0
0.0091304320 -0.0272979420 0 0
0.0093644450 -0.0266605670 0 0
0.0089003920 -0.0265466730 0 0
0.0077797720 -0.0269478070 0 0
0.0061024260 -0.0278044470 0 0
0.0040168220 -0.0290160840 0 0
0.0017079290 -0.0304536210 0 -1
-0.0006184830 -0.0319712110 0 -1
-0.0027569430 -0.0334179730 0 -1
-0.0045282440 -0.0346504280 0 -1
-0.0058053050 -0.0355445640 0 -1
-0.0065292190 -0.0360061760 0 -1
-0.0067061930 -0.0359799720 0 -1
-0.0063871100 -0.0354572730 0 -1
-0.0056445300 -0.0344796410 0 -1
-0.0045614460 -0.0331362980 0 -1
-0.0032334640 -0.0315562960 0 -1
-0.0017763090 -0.0298972920 0 0
-0.0003293700 -0.0283315230 0 0
0.0009524280 -0.0270292500 0 0
0.0019208270 -0.0261408700 0 0
0.0024618070 -0.0257793950 0 0
0.0025149430 -0.0260049620 0 0
0.0020794690 -0.0268137620 0 0
0.0012106110 -0.0281343870 0 0
0.0000096590 -0.0298338390 0 0
-0.0013904300 -0.0317336100 0 -1
-0.0028399100 -0.0336332830 0 -1
-0.0041833770 -0.0353360500 0 -1
-0.0052681390 -0.0366702140 0 -1
-0.0059544400 -0.0375039470 0 -1
-0.0061294850 -0.0377542110 0 -1
-0.0057229760 -0.0373916990 0 -1
-0.0047202550 -0.0364417280 0 -1
-0.0031695630 -0.0349799550 0 -1
-0.0011809010 -0.0331233630 0 -1
0.0010843770 -0.0310189660 0 -1
0.0034316830 -0.0288324740 0 0
0.0056551070 -0.0267371520 0 0
0.0075591670 -0.0249018650 0 0
0.0089787790 -0.0234781200 0 0
0.0097957150 -0.0225870200 0 0
0.0099469950 -0.0223073970 0 0
0.0094234020 -0.0226664570 0 0
0.0082647930 -0.0236342520 0 0
0.0065599490 -0.0251238330 0 0
0.0044493370 -0.0269989080 0 0
0.0021222340 -0.0290887740 0 0
-0.0001979080 -0.0312073550 0 -1
-0.0022794810 -0.0331721020 0 -1
-0.0039138700 -0.0348202120 0 -1
-0.0049431560 -0.0360228590 0 -1
-0.0052798360 -0.0366986980 0 -1
-0.0049197380 -0.0368239540 0 -1
-0.0039471930 -0.0364335770 0 -1
-0.0025258570 -0.0356117670 0 -1
-0.0008706440 -0.0344769010 0 -1
0.0007939190 -0.0331674810 0 -1
0.0022734120 -0.0318309400 0 -1
0.0034253930 -0.0306127270 0 -1
0.0041606390 -0.0296438180 0 0
0.0044337720 -0.0290281450 0 0
0.0042334020 -0.0288328130 0 0
0.0035778400 -0.0290821060 0 0
0.0025182610 -0.0297541290 0 0
0.0011426990 -0.0307805000 0 -1
-0.0004271750 -0.0320521190 0 -1
-0.0020438460 -0.0334320380 0 -1
-0.0035413860 -0.0347718810 0 -1
-0.0047469790 -0.0359271090 0 -1
-0.0055018670 -0.0367690050 0 -1
-0.0056881610 -0.0371939470 0 -1
-0.0052527800 -0.0371321290 0 -1
-0.0042208140 -0.0365571090 0 -1
-0.0026941830 -0.0354943200 0 -1
-0.0008363390 -0.0340239840 0 -1
0.0011525800 -0.0322749560 0 -1
0.0030637140 -0.0304098700 0 -1
0.0047030810 -0.0286054350 0 0
0.0059055980 -0.0270324980 0 0
0.0065422830 -0.0258389790 0 0
0.0065294530 -0.0251368530 0 0
0.0058422050 -0.0249931940 0 0
0.0045233640 -0.0254244930 0 0
0.0026803650 -0.0263935450 0 0
0.0004729400 -0.0278098290 0 0
-0.0019017110 -0.0295350790 0 0
-0.0042239450 -0.0313948770 0 -1
-0.0062689300 -0.0331960750 0 -1
-0.0078278590 -0.0347485930 0 -1
-0.0087320150 -0.0358879050 0 -1
-0.0088765050 -0.0364936440 0 -1
-0.0082390160 -0.0365016920 0 -1
-0.0068877300 -0.0359094900 0 -1
-0.0049752270 -0.0347751690 0 -1
-0.0027197450 -0.0332114110 0 -1
-0.0003746450 -0.0313752870 0 -1
0.0018123670 -0.0294540810 0 0
0.0036383150 -0.0276459160 0 0
0.0049661680 -0.0261361960 0 0
0.0057264890 -0.0250744820 0 0
0.0059099160 -0.0245565760 0 0
0.0055564220 -0.0246144310 0 0
0.0047422780 -0.0252147950 0 0
0.0035684390 -0.0262662500 0 0
0.0021544200 -0.0276326660 0 0
0.0006364990 -0.0291505230 0 0
-0.0008352000 -0.0306481550 0 -1
-0.0021058690 -0.0319653980 0 -1
-0.0030312170 -0.0329712780 0 -1
-0.0034921850 -0.0335766490 0 -1
-0.0034037780 -0.0337400090 0 -1
-0.0027200150 -0.0334673760 0 -1
-0.0014394300 -0.0328080350 0 -1
0.0003879670 -0.0318469540 0 -1
0.0026552690 -0.0306942560 0 -1
0.0052002780 -0.0294730790 0 0
0.0078181060 -0.0283079090 0 0
0.0102824190 -0.0273141920 0 0
0.0123689530 -0.0265883010 0 0
0.0138780200 -0.0261977940 0 0
0.0146568750 -0.0261741370 0 0
0.0146216320 -0.0265098140 0 0
0.0137728090 -0.0271598550 0 0
0.0121963270 -0.0280471630 0 0
0.0100506120 -0.0290705410 0 0
0.0075500790 -0.0301137450 0 -1
0.0049494820 -0.0310555300 0 -1
0.0025222860 -0.0317816440 0 -1
0.0005290400 -0.0321975230 0 -1
-0.0008172590 -0.0322384000 0 -1
-0.0013779030 -0.0318745350 0 -1
-0.0011021690 -0.0311118820 0 -1
-0.0000298189 -0.0299903820 0 0
0.0017149250 -0.0285815710 0 0
0.0039386870 -0.0269850960 0 0
0.0064039510 -0.0253229980 0 0
0.0088590170 -0.0237315080 0 0
0.0110656240 -0.0223506300 0 0
0.0128210590 -0.0213120920 0 0
0.0139754290 -0.0207269130 0 0
0.0144419640 -0.0206734410 0 0
0.0141949590 -0.0211856920 0 0
0.0132569020 -0.0222429420 0 0
0.0116890590 -0.0237648600 0 0
0.0095976420 -0.0256170910 0 0
0.0071479370 -0.0276277180 0 0
0.0045666090 -0.0296099490 0 0
0.0021212550 -0.0313855500 0 -1
0.0000816690 -0.0328051490 0 -1
-0.0013232810 -0.0337623330 0 -1
-0.0019381510 -0.0341993490 0 -1
-0.0016958620 -0.0341055930 0 -1
-0.0006181760 -0.0335135810 0 -1
0.0011922230 -0.0324959630 0 -1
0.0035643500 -0.0311628820 0 -1
0.0062755660 -0.0296568470 0 0
0.0090730870 -0.0281429830 0 0
0.0116992930 -0.0267940250 0 0
0.0139171920 -0.0257711210 0 0
0.0155324600 -0.0252036760 0 0
0.0164100660 -0.0251729190 0 0
0.0164850580 -0.0257029050 0 0
0.0157676390 -0.0267598410 0 0
0.0143416890 -0.0282582270 0 0
0.0123558790 -0.0300710530 0 -1
0.0100076700 -0.0320410420 0 -1
0.0075219530 -0.0339920150 0 -1
0.0051285850 -0.0357419940 0 -1
0.0030432860 -0.0371193050 0 -1
0.0014516910 -0.0379808990 0 -1
0.0004935770 -0.0382307870 0 -1
0.0002473230 -0.0378347610 0 -1
0.0007185990 -0.0368267410 0 -1
0.0018386520 -0.0353047590 0 -1
0.0034747800 -0.0334187200 0 -1
0.0054484700 -0.0313534900 0 -1
0.0075537850 -0.0293095770 0 0
0.0095743830 -0.0274827400 0 0
0.0113024340 -0.0260447190 0 0
0.0125595710 -0.0251274840 0 0
0.0132158950 -0.0248118960 0 0
0.0132036130 -0.0251207350 0 0
0.0125240810 -0.0260170920 0 0
0.0112476280 -0.0274096320 0 0
0.0095049940 -0.0291641410 0 0
0.0074710770 -0.0311183300 0 -1
0.0053459450 -0.0330974420 0 -1
0.0033370210 -0.0349295890 0 -1
0.0016402980 -0.0364595190 0 -1
0.0004194490 -0.0375601220 0 -1
-0.0002120450 -0.0381424960 0 -1
-0.0002018220 -0.0381642810 0 -1
0.0004363230 -0.0376343320 0 -1
0.0016227900 -0.0366123960 0 -1
0.0032196610 -0.0352038500 0 -1
0.0050460970 -0.0335503430 0 -1
0.0068992330 -0.0318171520 0 -1
0.0085755560 -0.0301773780 0 -1
0.0098886910 -0.0287933260 0 0
0.0106830770 -0.0277968400 0 0
0.0108443220 -0.0272715490 0 0
0.0103064910 -0.0272409170 0 0
0.0090590130 -0.0276662010 0 0
0.0071572530 -0.0284563520 0 0
0.0047328430 -0.0294867660 0 0
0.0019915340 -0.0306198390 0 -1
-0.0008080710 -0.0317211020 0 -1
-0.0033885950 -0.0326690960 0 -1
-0.0054892600 -0.0333613780 0 -1
-0.0068953240 -0.0337200170 0 -1
-0.0074601260 -0.0336972800 0 -1
-0.0071199200 -0.0332793210 0 -1
-0.0059012700 -0.0324859680 0 -1
-0.0039209970 -0.0313677480 0 -1
-0.0013773290 -0.0300030600 0 -1
0.0014706880 -0.0284958610 0 0
0.0043349200 -0.0269704700 0 0
0.0069334140 -0.0255607870 0 0
0.0090201140 -0.0243957500 0 0
0.0104065700 -0.0235849550 0 0
0.0109776600 -0.0232066890 0 0
0.0106999760 -0.0232987610 0 0
0.0096197210 -0.0238527080 0 0
0.0078517860 -0.0248128090 0 0
0.0055639810 -0.0260813960 0 0
0.0029587570 -0.0275302940 0 0
0.0002553850 -0.0290157610 0 0
-0.0023258680 -0.0303936270 0 -1
-0.0045806000 -0.0315329310 0 -1
-0.0063384170 -0.0323279860 0 -1
-0.0074773290 -0.0327082610 0 -1
-0.0079329560 -0.0326443390 0 -1
-0.0077046950 -0.0321488600 0 -1
-0.0068576640 -0.0312734820 0 -1
-0.0055175850 -0.0301034600 0 -1
-0.0038580590 -0.0287500590 0 0
-0.0020818780 -0.0273403860 0 0
-0.0003989620 -0.0260048300 0 0
0.0009963150 -0.0248626580 0 0
0.0019454470 -0.0240075790 0 0
0.0023412110 -0.0234969570 0 0
0.0021364990 -0.0233476130 0 0
0.0013443380 -0.0235383100 0 0
0.0000292784 -0.0240163210 0 0
-0.0017026680 -0.0247044530 0 0
-0.0037091110 -0.0255068100 0 0
-0.0058154070 -0.0263148980 0 0
-0.0078250470 -0.0270164710 0 0
-0.0095372640 -0.0275070930 0 0
-0.0107702370 -0.0277016960 0 0
-0.0113874550 -0.0275432090 0 0
-0.0113191540 -0.0270074420 0 0
-0.0105695060 -0.0261055830 0 0
-0.0092093690 -0.0248860830 0 0
-0.0073619140 -0.0234351850 0 0
-0.0051869270 -0.0218731980 0 0
-0.0028663710 -0.0203448850 0 0
-0.0005925840 -0.0190050240 0 0
0.0014428840 -0.0180015300 0 0
0.0030646870 -0.0174586000 0 0
0.0041337480 -0.0174618950 0 0
0.0045646790 -0.0180472770 0 0
0.0043342290 -0.0191943410 0 0
0.0034811980 -0.0208257660 0 0
0.0021005120 -0.0228137880 0 0
0.0003332170 -0.0249948630 0 0
-0.0016457460 -0.0271906650 0 0
-0.0036409610 -0.0292298240 0 0
-0.0054521400 -0.0309646230 0 -1
-0.0068925990 -0.0322809250 0 -1
-0.0078098300 -0.0331034600 0 -1
-0.0081054340 -0.0333985290 0 -1
-0.0077498050 -0.0331737850 0 -1
-0.0067870530 -0.0324747540 0 -1
-0.0053290610 -0.0313803040 0 -1
-0.0035420630 -0.0299993350 0 0
-0.0016309290 -0.0284672570 0 0
0.0001777910 -0.0269382270 0 0
0.0016584540 -0.0255713180 0 0
0.0026158210 -0.0245125210 0 0
0.0029133090 -0.0238758360 0 0
0.0024905330 -0.0237268820 0 0
0.0013682280 -0.0240727370 0 0
-0.0003562780 -0.0248607990 0 0
-0.0025202180 -0.0259872120 0 0
-0.0049119580 -0.0273128540 0 0
-0.0072922260 -0.0286827990 0 0
-0.0094181520 -0.0299449470 0 0
-0.0110674310 -0.0309654060 0 -1
-0.0120618550 -0.0316400870 0 -1
-0.0122917510 -0.0319025620 0 -1
-0.0117385150 -0.0317279960 0 -1
-0.0104830350 -0.0311335400 0 -1
-0.0086881250 -0.0301763870 0 -1
-0.0065603870 -0.0289499580 0 0
-0.0043128170 -0.0275772100 0 0
-0.0021426910 -0.0261999970 0 0
-0.0002206200 -0.0249648130 0 0
0.0013182890 -0.0240070850 0 0
0.0023813860 -0.0234371150 0 0
0.0029197870 -0.0233296160 0 0
0.0029254100 -0.0237168970 0 0
0.0024290030 -0.0245846220 0 0
0.0015002100 -0.0258699970 0 0
0.0002445510 -0.0274646520 0 0
-0.0012064970 -0.0292248160 0 0
-0.0027096200 -0.0309877530 0 -1
-0.0041227270 -0.0325900940 0 -1
-0.0053152800 -0.0338844080 0 -1
-0.0061777680 -0.0347527440 0 -1
-0.0066310340 -0.0351167990 0 -1
-0.0066334840 -0.0349440900 0 -1
-0.0061851580 -0.0342499500 0 -1
-0.0053297060 -0.0330960800 0 -1
-0.0041539400 -0.0315860110 0 -1
-0.0027822520 -0.0298566780 0 0
-0.0013641870 -0.0280661960 0 0
-0.0000570562 -0.0263791640 0 0
0.0009924990 -0.0249512190 0 0
0.0016649220 -0.0239150050 0 0
0.0018808760 -0.0233691650 0 0
0.0016100480 -0.0233694620 0 0
0.0008735640 -0.0239203650 0 0
-0.0002612510 -0.0249688420 0 0
-0.0016922510 -0.0264053640 0 0
-0.0032957630 -0.0280749970 0 0
-0.0049373390 -0.0297959700 0 0
-0.0064780590 -0.0313807270 0 -1
-0.0077788950 -0.0326560210 0 -1
-0.0087084770 -0.0334806200 0 -1
-0.0091568780 -0.0337597110 0 -1
-0.0090522250 -0.0334547900 0 -1
-0.0083762680 -0.0325874420 0 -1
-0.0071767940 -0.0312359190 0 -1
-0.0055708600 -0.0295249320 0 0
-0.0037311670 -0.0276114700 0 0
-0.0018579500 -0.0256700600 0 0
-0.0001485720 -0.0238783530 0 0
0.0012255710 -0.0224015430 0 0
0.0021329770 -0.0213755910 0 0
0.0024888810 -0.0208928150 0 0
0.0022583540 -0.0209945510 0 0
0.0014591390 -0.0216717270 0 0
0.0001644110 -0.0228692000 0 0
-0.0015006480 -0.0244899960 0 0
-0.0033737070 -0.0264003230 0 0
-0.0052750680 -0.0284384440 0 0
-0.0070215570 -0.0304281410 0 -1
-0.0084353860 -0.0321947340 0 -1
-0.0093570090 -0.0335809520 0 -1
-0.0096651730 -0.0344606420 0 -1
-0.0092985270 -0.0347495230 0 -1
-0.0082694370 -0.0344135050 0 -1
-0.0066637750 -0.0334753240 0 -1
-0.0046279640 -0.0320182830 0 -1
-0.0023501780 -0.0301832820 0 -1
-0.0000425914 -0.0281557540 0 0
0.0020743720 -0.0261434580 0 0
0.0037908730 -0.0243504020 0 0
0.0049314440 -0.0229529670 0 0
0.0053778620 -0.0220817000 0 0
0.0050841320 -0.0218093590 0 0
0.0040803710 -0.0221444730 0 0
0.0024655500 -0.0230304390 0 0
0.0003921060 -0.0243514970 0 0
-0.0019520270 -0.0259464790 0 0
-0.0043594490 -0.0276289570 0 0
-0.0066183550 -0.0292107410 0 0
-0.0085315030 -0.0305244800 0 -1
-0.0099395470 -0.0314411050 0 -1
-0.0107417590 -0.0318807150 0 -1
-0.0109059940 -0.0318188410 0 -1
-0.0104656190 -0.0312893340 0 -1
-0.0095087710 -0.0303813280 0 -1
-0.0081677750 -0.0292270570 0 0
-0.0066114070 -0.0279819580 0 0
-0.0050360260 -0.0268026660 0 0
-0.0036491530 -0.0258283880 0 0
-0.0026435550 -0.0251692220 0 0
-0.0021694840 -0.0249019810 0 0
-0.0023160910 -0.0250702730 0 0
-0.0031043310 -0.0256842380 0 0
-0.0044863110 -0.0267185030 0 0
-0.0063496500 -0.0281104430 0 0
-0.0085294020 -0.0297613130 0 0
-0.0108268630 -0.0315417740 0 -1
-0.0130307220 -0.0333021880 0 -1
-0.0149366950 -0.0348865180 0 -1
-0.0163649080 -0.0361473710 0 -1
-0.0171757230 -0.0369598040 0 -1
-0.0172832340 -0.0372323250 0 -1
-0.0166649010 -0.0369146310 0 -1
-0.0153668050 -0.0360027220 0 -1
-0.0135026240 -0.0345421140 0 -1
-0.0112432860 -0.0326286700 0 -1
-0.0087977510 -0.0304052160 0 -1
-0.0063881880 -0.0280519650 0 0
-0.0042235300 -0.0257697930 0 0
-0.0024771170 -0.0237573960 0 0
-0.0012728150 -0.0221867030 0 0
-0.0006785750 -0.0211829550 0 0
-0.0007046490 -0.0208132480 0 0
-0.0013066320 -0.0210822750 0 0
-0.0023943660 -0.0219319360 0 0
-0.0038444740 -0.0232441800 0 0
-0.0055126370 -0.0248502930 0 0
-0.0072441900 -0.0265495720 0 0
-0.0088828000 -0.0281350680 0 0
-0.0102769510 -0.0294199180 0 0
-0.0112872000 -0.0302583830 0 -1
-0.0117988810 -0.0305590030 0 -1
-0.0117388440 -0.0302901270 0 -1
-0.0110890990 -0.0294794500 0 0
-0.0098932800 -0.0282085920 0 0
-0.0082569490 -0.0266028690 0 0
-0.0063425370 -0.0248170430 0 0
-0.0043580250 -0.0230190010 0 0
-0.0025377440 -0.0213736400 0 0
-0.0011131080 -0.0200289410 0 0
-0.0002752630 -0.0191053610 0 0
-0.0001401270 -0.0186878250 0 0
-0.0007284620 -0.0188192270 0 0
-0.0019660630 -0.0194963140 0 0
-0.0037006600 -0.0206695570 0 0
-0.0057288830 -0.0222461270 0 0
-0.0078269090 -0.0240938800 0 0
-0.0097780220 -0.0260477050 0 0
-0.0113922760 -0.0279220300 0 0
-0.0125184350 -0.0295300870 0 0
-0.0130504220 -0.0307057400 0 -1
-0.0129297720 -0.0313232510 0 -1
-0.0121464010 -0.0313129150 0 -1
-0.0107398990 -0.0306711770 0 -1
-0.0088004050 -0.0294629350 0 0
-0.0064660600 -0.0278150270 0 0
-0.0039150490 -0.0259021850 0 0
-0.0013514330 -0.0239274430 0 0
0.0010146980 -0.0220992180 0 0
0.0029890140 -0.0206075370 0 0
0.0044117690 -0.0196021080 0 0
0.0051727180 -0.0191756580 0 0
0.0052240030 -0.0193561380 0 0
0.0045905370 -0.0201089140 0 0
0.0033736260 -0.0213464300 0 0
0.0017423960 -0.0229416610 0 0
-0.0000879929 -0.0247429380 0 0
-0.0018860430 -0.0265886110 0 0
-0.0034343200 -0.0283199360 0 0
-0.0045536590 -0.0297912580 0 0
-0.0051164450 -0.0308780580 0 -1
-0.0050512980 -0.0314845350 0 -1
-0.0043459700 -0.0315525380 0 -1
-0.0030496600 -0.0310713610 0 -1
-0.0012687750 -0.0300840890 0 -1
0.0008466000 -0.0286860590 0 0
0.0031204330 -0.0270152080 0 0
0.0053679620 -0.0252367970 0 0
0.0074117200 -0.0235252000 0 0
0.0090942910 -0.0220453750 0 0
0.0102845440 -0.0209361130 0 0
0.0108790250 -0.0202961330 0 0
0.0108069370 -0.0201743930 0 0
0.0100463620 -0.0205662860 0 0
0.0086472200 -0.0214158280 0 0
0.0067445010 -0.0226224160 0 0
0.0045478370 -0.0240511130 0 0
0.0023083930 -0.0255461320 0 0
0.0002781550 -0.0269465490 0 0
-0.0013233270 -0.0281018090 0 0
-0.0023304880 -0.0288851630 0 0
-0.0026441780 -0.0292051670 0 0
-0.0022380960 -0.0290154750 0 0
-0.0011605260 -0.0283214320 0 0
0.0004711370 -0.0271816840 0 0
0.0024861120 -0.0257042550 0 0
0.0046837510 -0.0240370530 0 0
0.0068576450 -0.0223525890 0 0
0.0088139750 -0.0208278430 0 0
0.0103830500 -0.0196224040 0 0
0.0114275160 -0.0188592110 0 0
0.0118504690 -0.0186110510 0 0
0.0116035900 -0.0188935300 0 0
0.0106941240 -0.0196642130 0 0
0.0091890440 -0.0208284870 0 0
0.0072125520 -0.0222523990 0 0
0.0049330770 -0.0237800160 0 0
0.0025425680 -0.0252512240 0 0
0.0002376460 -0.0265172480 0 0
-0.0017919970 -0.0274532670 0 0
-0.0033739290 -0.0279682980 0 0
-0.0043696960 -0.0280121320 0 0
-0.0046934820 -0.0275784680 0 0
-0.0043225100 -0.0267040920 0 0
-0.0032997460 -0.0254650540 0 0
-0.0017356860 -0.0239699780 0 0
0.0001946650 -0.0223500330 0 0
0.0022682460 -0.0207471910 0 0
0.0042418460 -0.0193034010 0 0
0.0058835980 -0.0181502590 0 0
0.0070030360 -0.0173965820 0 0
0.0074751260 -0.0171143090 0 0
0.0072537560 -0.0173272510 0 0
0.0063733380 -0.0180069530 0 0
0.0049393080 -0.0190764300 0 0
0.0031097160 -0.0204198710 0 0
0.0010727660 -0.0218958410 0 0
-0.0009736420 -0.0233520840 0 0
-0.0028371390 -0.0246405380 0 0
-0.0043425060 -0.0256306860 0 0
-0.0053433250 -0.0262195240 0 0
-0.0057349500 -0.0263382230 0 0
-0.0054670380 -0.0259572040 0 0
-0.0045526510 -0.0250905660 0 0
-0.0030706840 -0.0237985560 0 0
-0.0011591290 -0.0221859510 0 0
0.0010006140 -0.0203949180 0 0
0.0032041260 -0.0185919090 0 0
0.0052436660 -0.0169498820 0 0
0.0069248580 -0.0156289020 0 0
0.0080812200 -0.0147580640 0 0
0.0085872900 -0.0144203580 0 0
0.0083703460 -0.0146421060 0 0
0.0074206830 -0.0153889330 0 0
0.0057977780 -0.0165692640 0 0
0.0036260970 -0.0180448690 0 0
0.0010770530 -0.0196472900 0 0
-0.0016562800 -0.0211987530 0 0
-0.0043795730 -0.0225348130 0 0
-0.0069087060 -0.0235240950 0 0
-0.0090786620 -0.0240804630 0 0
-0.0107550800 -0.0241659230 0 0
-0.0118471240 -0.0237869800 0 0
-0.0123186530 -0.0229892190 0 0
-0.0121956520 -0.0218526330 0 0
-0.0115677260 -0.0204864120 0 0
-0.0105812040 -0.0190206640 0 0
-0.0094234500 -0.0175944550 0 0
-0.0083015360 -0.0163426090 0 0
-0.0074198370 -0.0153846700 0 0
-0.0069588490 -0.0148170120 0 0
-0.0070550020 -0.0147065210 0 0
-0.0077826930 -0.0150847750 0 0
-0.0091431610 -0.0159435900 0 0
-0.0110643620 -0.0172328010 0 0
-0.0134116660 -0.0188602020 0 0
-0.0160059030 -0.0206942960 0 0
-0.0186452780 -0.0225723440 0 0
-0.0211293330 -0.0243154820 0 0
-0.0232806710 -0.0257492670 0 0
-0.0249561760 -0.0267254290 0 0
-0.0260465130 -0.0271402370 0 0
-0.0264752490 -0.0269466150 0 0
-0.0262074650 -0.0261593250 0 0
-0.0252645030 -0.0248536790 0 0
-0.0237343900 -0.0231582910 0 0
-0.0217705840 -0.0212423670 0 0
-0.0195770140 -0.0192984640 0 0
-0.0173823640 -0.0175223980 0 0
-0.0154113830 -0.0160925200 0 0
-0.0138605630 -0.0151509640 0 0
-0.0128786940 -0.0147898740 0 0
-0.0125505060 -0.0150443130 0 0
-0.0128870550 -0.0158910830 0 0
-0.0138281180 -0.0172524160 0 0
-0.0152543490 -0.0190047160 0 0
-0.0170018100 -0.0209921740 0 0
-0.0188762000 -0.0230437400 0 0
-0.0206693600 -0.0249908770 0 0
-0.0221794920 -0.0266829830 0 0
-0.0232348440 -0.0279984870 0 0
-0.0237183720 -0.0288518660 0 0
-0.0235840370 -0.0291980570 0 0
-0.0228551890 -0.0290350190 0 0
-0.0216091650 -0.0284042590 0 0
-0.0199623200 -0.0273890970 0 0
-0.0180628470 -0.0261098720 0 0
-0.0160862520 -0.0247144340 0 0
-0.0142255970 -0.0233636950 0 0
-0.0126750190 -0.0222147670 0 0
-0.0116100600 -0.0214048770 0 0
-0.0111674160 -0.0210376450 0 0
-0.0114255060 -0.0211722020 0 0
-0.0123905060 -0.0218153650 0 0
-0.0139935160 -0.0229172860 0 0
-0.0160996600 -0.0243719610 0 0
-0.0185256470 -0.0260251370 0 0
-0.0210614670 -0.0276905820 0 0
-0.0234923150 -0.0291724290 0 0
-0.0256186230 -0.0302894690 0 -1
-0.0272730070 -0.0308975970 0 -1
-0.0283319930 -0.0309076270 0 -1
-0.0287227110 -0.0302962830 0 -1
-0.0284279210 -0.0291083390 0 0
-0.0274905920 -0.0274491370 0 0
-0.0260148210 -0.0254691920 0 0
-0.0241589740 -0.0233445990 0 0
-0.0221199920 -0.0212574250 0 0
-0.0201118450 -0.0193787390 0 0
-0.0183435020 -0.0178544570 0 0
-0.0170008620 -0.0167931040 0 0
-0.0162330730 -0.0162561790 0 0
-0.0161387050 -0.0162537700 0 0
-0.0167469230 -0.0167474370 0 0
-0.0179983270 -0.0176588580 0 0
-0.0197407100 -0.0188799650 0 0
-0.0217488540 -0.0202817130 0 0
-0.0237600290 -0.0217220890 0 0
-0.0255116900 -0.0230552230 0 0
-0.0267758000 -0.0241423370 0 0
-0.0273877320 -0.0248642820 0 0
-0.0272654060 -0.0251351360 0 0
-0.0264134360 -0.0249152530 0 0
-0.0249100680 -0.0242197840 0 0
-0.0228839620 -0.0231183330 0 0
-0.0204955440 -0.0217252440 0 0
-0.0179290940 -0.0201848220 0 0
-0.0153861120 -0.0186566590 0 0
-0.0130711040 -0.0173023320 0 0
-0.0111729680 -0.0162712790 0 0
-0.0098473390 -0.0156853850 0 0
-0.0091999290 -0.0156251550 0 0
-0.0092723010 -0.0161199630 0 0
-0.0100352850 -0.0171431990 0 0
-0.0113926400 -0.0186135410 0 0
-0.0131930660 -0.0204034050 0 0
-0.0152470960 -0.0223530290 0 0
-0.0173458910 -0.0242866960 0 0
-0.0192800080 -0.0260288880 0 0
-0.0208571740 -0.0274206480 0 0
-0.0219191960 -0.0283360980 0 0
-0.0223579620 -0.0286965860 0 0
-0.0221267030 -0.0284793230 0 0
-0.0212412490 -0.0277190850 0 0
-0.0197726770 -0.0265031920 0 0
-0.0178391310 -0.0249606770 0 0
-0.0156007780 -0.0232470770 0 0
-0.0132538480 -0.0215273470 0 0
-0.0110174420 -0.0199602000 0 0
-0.0091112190 -0.0186860300 0 0
-0.0077277320 -0.0178178440 0 0
-0.0070062400 -0.0174334110 0 0
-0.0070138140 -0.0175680290 0 0
-0.0077362820 -0.0182093630 0 0
-0.0090798030 -0.0192967540 0 0
-0.0108835740 -0.0207262410 0 0
-0.0129411220 -0.0223608680 0 0
-0.0150239720 -0.0240451250 0 0
-0.0169030790 -0.0256215890 0 0
-0.0183692820 -0.0269459020 0 0
-0.0192556190 -0.0278971320 0 0
-0.0194587000 -0.0283853190 0 0
-0.0189520350 -0.0283598600 0 0
-0.0177867010 -0.0278178840 0 0
-0.0160794810 -0.0268080070 0 0
-0.0139929850 -0.0254267440 0 0
-0.0117157730 -0.0238089440 0 0
-0.0094484710 -0.0221150420 0 0
-0.0073957300 -0.0205160470 0 0
-0.0057593770 -0.0191757160 0 0
-0.0047254030 -0.0182317200 0 0
-0.0044385580 -0.0177812010 0 0
-0.0049686240 -0.0178745600 0 0
-0.0062849950 -0.0185152750 0 0
-0.0082555710 -0.0196606500 0 0
-0.0106717040 -0.0212218540 0 0
-0.0132874480 -0.0230663100 0 0
-0.0158567880 -0.0250266410 0 0
-0.0181573380 -0.0269173910 0 0
-0.0200012030 -0.0285562080 0 0
-0.0212424300 -0.0297838160 0 0
-0.0217866360 -0.0304785270 0 -1
-0.0216007060 -0.0305646730 0 -1
-0.0207192520 -0.0300173360 0 -1
-0.0192453040 -0.0288660280 0 0
-0.0173422920 -0.0271971350 0 0
-0.0152165050 -0.0251518030 0 0
-0.0130931090 -0.0229159090 0 0
-0.0111913270 -0.0207015340 0 0
-0.0097035530 -0.0187225410 0 0
-0.0087794200 -0.0171691230 0 0
-0.0085131370 -0.0161865800 0 0
-0.0089337540 -0.0158615240 0 0
-0.0100012670 -0.0162157750 0 0
-0.0116116010 -0.0172067320 0 0
-0.0136089540 -0.0187331500 0 0
-0.0158004690 -0.0206457230 0 0
-0.0179727040 -0.0227617990 0 0
-0.0199136370 -0.0248831120 0 0
-0.0214385300 -0.0268150970 0 0
-0.0224124170 -0.0283861560 0 0
-0.0227646910 -0.0294645970 0 0
-0.0224947260 -0.0299709950 0 0
-0.0216681730 -0.0298848420 0 0
-0.0204052400 -0.0292448670 0 0
-0.0188642080 -0.0281425740 0 0
-0.0172242500 -0.0267102990 0 0
-0.0156707950 -0.0251069930 0 0
-0.0143831330 -0.0235044430 0 0
-0.0135216160 -0.0220740680 0 0
-0.0132147410 -0.0209724280 0 0
-0.0135494270 -0.0203239070 0 0
-0.0145635280 -0.0202025030 0 0
-0.0162346960 -0.0206190740 0 0
-0.0184670200 -0.0215199230 0 0
-0.0210886310 -0.0227966410 0 0
-0.0238692510 -0.0243024820 0 0
-0.0265510780 -0.0258710110 0 0
-0.0288805020 -0.0273344490 0 0
-0.0306343830 -0.0285398340 -1 0
-0.0316408200 -0.0293621760 -1 0
-0.0317954510 -0.0297147170 -1 0
-0.0310727880 -0.0295563080 -1 0
-0.0295308570 -0.0288952120 0 0
-0.0273080420 -0.0277884470 0 0
-0.0246111960 -0.0263367480 0 0
-0.0216942170 -0.0246756860 0 0
-0.0188297790 -0.0229626160 0 0
-0.0162814680 -0.0213590940 0 0
-0.0142823690 -0.0200113090 0 0
-0.0130195260 -0.0190337350 0 0
-0.0126190770 -0.0184999120 0 0
-0.0131301700 -0.0184399780 0 0
-0.0145130160 -0.0188419000 0 0
-0.0166383080 -0.0196541470 0 0
-0.0193007050 -0.0207893850 0 0
-0.0222432330 -0.0221294670 0 0
-0.0251867100 -0.0235324160 0 0
-0.0278589740 -0.0248428130 0 0
-0.0300202300 -0.0259062660 -1 0
-0.0314833030 -0.0265867660 -1 0
-0.0321296330 -0.0267847190 -1 0
-0.0319199150 -0.0264529400 -1 0
-0.0308960110 -0.0256067270 -1 0
-0.0291725740 -0.0243242790 0 0
-0.0269209730 -0.0227368600 0 0
-0.0243505860 -0.0210111190 0 0
-0.0216904110 -0.0193268940 0 0
-0.0191701260 -0.0178549180 0 0
-0.0169992200 -0.0167393760 0 0
-0.0153458200 -0.0160874110 0 0
-0.0143189260 -0.0159632920 0 0
-0.0139570750 -0.0163842230 0 0
-0.0142257050 -0.0173180400 0 0
-0.0150252960 -0.0186848840 0 0
-0.0162095140 -0.0203639190 0 0
-0.0176073460 -0.0222050840 0 0
-0.0190416350 -0.0240447830 0 0
-0.0203423770 -0.0257221400 0 0
-0.0213601580 -0.0270920890 0 0
-0.0219822520 -0.0280346550 0 0
-0.0221443100 -0.0284626810 0 0
-0.0218311740 -0.0283293990 0 0
-0.0210726000 -0.0276344280 0 0
-0.0199435480 -0.0264258970 0 0
-0.0185662540 -0.0247983290 0 0
-0.0171010120 -0.0228873100 0 0
-0.0157219220 -0.0208609130 0 0
-0.0145901520 -0.0189060650 0 0
-0.0138372220 -0.0172094790 0 0
-0.0135572700 -0.0159360650 0 0
-0.0138011280 -0.0152085870 0 0
-0.0145697450 -0.0150912380 0 0
-0.0158094430 -0.0155798900 0 0
-0.0174128230 -0.0166018800 0 0
-0.0192289120 -0.0180265490 0 0
-0.0210825420 -0.0196848870 0 0
-0.0227967720 -0.0213936160 0 0
-0.0242112010 -0.0229775360 0 0
-0.0251945440 -0.0242857800 0 0
-0.0256535770 -0.0252015360 0 0
-0.0255400320 -0.0256475340 0 0
-0.0248561360 -0.0255897340 0 0
-0.0236579230 -0.0250398510 0 0
-0.0220539700 -0.0240551340 0 0
-0.0201981560 -0.0227329470 0 0
-0.0182765680 -0.0211997810 0 0
-0.0164895610 -0.0195980470 0 0
-0.0150310600 -0.0180747870 0 0
-0.0140684220 -0.0167724540 0 0
-0.0137254620 -0.0158193170 0 0
-0.0140681640 -0.0153186440 0 0
-0.0150926980 -0.0153373980 0 0
-0.0167208510 -0.0158952430 0 0
-0.0188086320 -0.0169555830 0 0
-0.0211659490 -0.0184221400 0 0
-0.0235795210 -0.0201450810 0 0
-0.0258328350 -0.0219383000 0 0
-0.0277221200 -0.0236048840 0 0
-0.0290698640 -0.0249642030 0 0
-0.0297360740 -0.0258742970 0 0
-0.0296281870 -0.0262462190 0 0
-0.0287119070 -0.0260499030 0 0
-0.0270195350 -0.0253129390 0 0
-0.0246485050 -0.0241147560 0 0
-0.0217506640 -0.0225779650 0 0
-0.0185195160 -0.0208567930 0 0
-0.0151782640 -0.0191221790 0 0
-0.0119659050 -0.0175440150 0 0
-0.0091192040 -0.0162720070 0 0
-0.0068507850 -0.0154179660 0 0
-0.0053244580 -0.0150438520 0 0
-0.0046304710 -0.0151592040 0 0
-0.0047669940 -0.0157272020 0 0
-0.0056362030 -0.0166741530 0 0
-0.0070583950 -0.0178976770 0 0
-0.0087990120 -0.0192732220 0 0
-0.0106008220 -0.0206612940 0 0
-0.0122158090 -0.0219170760 0 0
-0.0134321690 -0.0229025470 0 0
-0.0140920160 -0.0235003330 0 0
-0.0140982020 -0.0236280940 0 0
-0.0134134210 -0.0232512150 0 0
-0.0120580230 -0.0223905040 0 0
-0.0101105450 -0.0211220480 0 0
-0.0077079190 -0.0195689610 0 0
-0.0050381160 -0.0178869870 0 0
-0.0023220070 -0.0162464380 0 0
0.0002113430 -0.0148132020 0 0
0.0023498980 -0.0137317600 0 0
0.0039220400 -0.0131116170 0 0
0.0048168890 -0.0130168980 0 0
0.0049964770 -0.0134594000 0 0
0.0044939850 -0.0143968890 0 0
0.0033992350 -0.0157382830 0 0
0.0018394870 -0.0173546750 0 0
-0.0000369028 -0.0190928740 0 0
-0.0020707640 -0.0207890900 0 0
-0.0040963890 -0.0222827940 0 0
-0.0059432510 -0.0234306310 0 0
-0.0074427520 -0.0241193610 0 0
-0.0084456000 -0.0242769220 0 0
-0.0088461550 -0.0238795180 0 0
-0.0086041270 -0.0229521930 0 0
-0.0077562970 -0.0215636150 0 0
-0.0064150840 -0.0198182980 0 0
-0.0047534190 -0.0178480660 0 0
-0.0029795690 -0.0158024520 0 0
-0.0013092660 -0.0138372850 0 0
0.0000588159 -0.0121019490 0 0
0.0009629960 -0.0107272430 0 0
0.0012948880 -0.0098154700 0 0
0.0010101430 -0.0094323120 0 0
0.0001283320 -0.0095994590 0 0
-0.0012800640 -0.0102887370 0 0
-0.0031119080 -0.0114200560 0 0
-0.0052428380 -0.0128657510 0 0
-0.0075273470 -0.0144634860 0 0
-0.0097938630 -0.0160371410 0 0
-0.0118453480 -0.0174204710 0 0
-0.0134726000 -0.0184769620 0 0
-0.0144798750 -0.0191128080 0 0
-0.0147162160 -0.0192832830 0 0
-0.0141046570 -0.0189938120 0 0
-0.0126623230 -0.0182974100 0 0
-0.0105051240 -0.0172893990 0 0
-0.0078343220 -0.0160982440 0 0
-0.0049093190 -0.0148715000 0 0
-0.0020147390 -0.0137590080 0 0
0.0005729920 -0.0128972880 0 0
0.0026172630 -0.0123973360 0 0
0.0039477980 -0.0123352860 0 0
0.0044775190 -0.0127445170 0 0
0.0042066640 -0.0136090840 0 0
0.0032152250 -0.0148609840 0 0
0.0016493730 -0.0163848060 0 0
-0.0002935250 -0.0180304030 0 0
-0.0023829620 -0.0196303280 0 0
-0.0043787760 -0.0210182120 0 0
-0.0060561310 -0.0220462010 0 0
-0.0072264220 -0.0226005920 0 0
-0.0077533390 -0.0226147510 0 0
-0.0075668470 -0.0220779810 0 0
-0.0066754380 -0.0210376710 0 0
-0.0051698980 -0.0195921030 0 0
-0.0032099070 -0.0178752280 0 0
-0.0009963800 -0.0160389770 0 0
0.0012569590 -0.0142381900 0 0
0.0033440550 -0.0126197930 0 0
0.0050802450 -0.0113153760 0 0
0.0063137040 -0.0104348700 0 0
0.0069377420 -0.0100586660 0 0
0.0069025990 -0.0102279350 0 0
0.0062209150 -0.0109362670 0 0
0.0049644070 -0.0121265610 0 0
0.0032564950 -0.0136950140 0 0
0.0012651100 -0.0155017390 0 0
-0.0008075980 -0.0173862150 0 0
-0.0027438980 -0.0191849160 0 0
-0.0043363600 -0.0207481690 0 0
-0.0054144270 -0.0219543010 0 0
-0.0058656150 -0.0227204690 0 0
-0.0056479290 -0.0230098350 0 0
-0.0047926390 -0.0228343750 0 0
-0.0033988150 -0.0222524400 0 0
-0.0016219300 -0.0213608340 0 0
0.0003415960 -0.0202824980 0 0
0.0022723420 -0.0191514650 0 0
0.0039470320 -0.0180966780 0 0
0.0051596010 -0.0172275440 0 0
0.0057462140 -0.0166247270 0 0
0.0056117380 -0.0163367500 0 0
0.0047470760 -0.0163791620 0 0
0.0032277660 -0.0167332580 0 0
0.0011972160 -0.0173449970 0 0
-0.0011533390 -0.0181274460 0 0
-0.0036032800 -0.0189690960 0 0
-0.0059243080 -0.0197473780 0 0
-0.0079068440 -0.0203443910 0 0
-0.0093840230 -0.0206611370 0 0
-0.0102459070 -0.0206282340 0 0
-0.0104429200 -0.0202135820 0 0
-0.0099822430 -0.0194272960 0 0
-0.0089215640 -0.0183220780 0 0
-0.0073625840 -0.0169871570 0 0
-0.0054445130 -0.0155367780 0 0
-0.0033358630 -0.0140968660 0 0
-0.0012214490 -0.0127930410 0 0
0.0007158750 -0.0117405130 0 0
0.0023130630 -0.0110348700 0 0
0.0034374850 -0.0107436430 0 0
0.0039909800 -0.0108994860 0 0
0.0039148560 -0.0114957220 0 0
0.0032007120 -0.0124846850 0 0
0.0019026140 -0.0137799510 0 0
0.0001399660 -0.0152637900 0 0
-0.0019145320 -0.0167996130 0 0
-0.0040566290 -0.0182472220 0 0
-0.0060731910 -0.0194776730 0 0
-0.0077627290 -0.0203847970 0 0
-0.0089561820 -0.0208925010 0 0
-0.0095380420 -0.0209592380 0 0
-0.0094619760 -0.0205809530 0 0
-0.0087546660 -0.0197922400 0 0
-0.0075067200 -0.0186649500 0 0
-0.0058557380 -0.0173035990 0 0
-0.0039696210 -0.0158372080 0 0
-0.0020342830 -0.0144077820 0 0
-0.0002416620 -0.0131563760 0 0
0.0012284860 -0.0122084930 0 0
0.0022321740 -0.0116609030 0 0
0.0026814510 -0.0115714150 0 0
0.0025535880 -0.0119524880 0 0
0.0018883460 -0.0127694620 0 0
0.0007777710 -0.0139439940 0 0
-0.0006463190 -0.0153625250 0 0
-0.0022245160 -0.0168889330 0 0
-0.0037831640 -0.0183795710 0 0
-0.0051517430 -0.0196979760 0 0
-0.0061822750 -0.0207272150 0 0
-0.0067627500 -0.0213794530 0 0
-0.0068206000 -0.0216023850 0 0
-0.0063233370 -0.0213814350 0 0
-0.0052860510 -0.0207380740 0 0
-0.0037842010 -0.0197266110 0 0
-0.0019581090 -0.0184309630 0 0
0.0000018668 -0.0169607020 0 0
0.0018855370 -0.0154453420 0 0
0.0034951720 -0.0140261800 0 0
0.0046688950 -0.0128450200 0 0
0.0052909080 -0.0120302310 0 0
0.0052921800 -0.0116819710 0 0
0.0046510140 -0.0118581790 0 0
0.0033990370 -0.0125625040 0 0
0.0016281270 -0.0137367700 0 0
-0.0005106740 -0.0152623030 0 0
-0.0028211250 -0.0169730570 0 0
-0.0050861540 -0.0186787240 0 0
-0.0070938490 -0.0201912130 0 0
-0.0086566600 -0.0213472260 0 0
-0.0096237050 -0.0220242330 0 0
-0.0098921730 -0.0221517490 0 0
-0.0094200050 -0.0217187260 0 0
-0.0082354240 -0.0207742700 0 0
-0.0064383360 -0.0194197270 0 0
-0.0041922520 -0.0177946880 0 0
-0.0017079570 -0.0160612570 0 0
0.0007795880 -0.0143889860 0 0
0.0030388000 -0.0129407620 0 0
0.0048675140 -0.0118591420 0 0
0.0061089720 -0.0112526740 0 0
0.0066558500 -0.0111830350 0 0
0.0064517590 -0.0116567420 0 0
0.0055006890 -0.0126253030 0 0
0.0038817540 -0.0139934370 0 0
0.0017548420 -0.0156310170 0 0
-0.0006534310 -0.0173852580 0 0
-0.0030804170 -0.0190931380 0 0
-0.0052639330 -0.0205953700 0 0
-0.0069742240 -0.0217516520 0 0
-0.0080354900 -0.0224552380 0 0
-0.0083376500 -0.0226441500 0 0
-0.0078431780 -0.0223067180 0 0
-0.0065915780 -0.0214810880 0 0
-0.0046991250 -0.0202499940 0 0
-0.0023494470 -0.0187319070 0 0
0.0002268170 -0.0170694500 0 0
0.0027789100 -0.0154164400 0 0
0.0050617200 -0.0139251150 0 0
0.0068570000 -0.0127345910 0 0
0.0079926050 -0.0119603490 0 0
0.0083606980 -0.0116832870 0 0
0.0079304210 -0.0119379470 0 0
0.0067510170 -0.0127030340 0 0
0.0049458700 -0.0138993410 0 0
0.0026989470 -0.0153976140 0 0
0.0002346910 -0.0170340350 0 0
-0.0022060300 -0.0186288100 0 0
-0.0043915550 -0.0200053820 0 0
-0.0061245340 -0.0210098020 0 0
-0.0072611420 -0.0215282040 0 0
-0.0077194270 -0.0214987290 0 0
-0.0074777260 -0.0209166220 0 0
-0.0065679220 -0.0198341260 0 0
-0.0050676520 -0.0183560080 0 0
-0.0030943440 -0.0166295850 0 0
-0.0008025150 -0.0148285820 0 0
0.0016180360 -0.0131328910 0 0
0.0039514280 -0.0117083870 0 0
0.0059792370 -0.0106901750 0 0
0.0075129640 -0.0101701280 0 0
0.0084210980 -0.0101888730 0 0
0.0086420590 -0.0107333310 0 0
0.0081844290 -0.0117405460 0 0
0.0071199160 -0.0131068290 0 0
0.0055728190 -0.0146997010 0 0
0.0037068860 -0.0163696150 0 0
0.0017083690 -0.0179608400 0 0
-0.0002360410 -0.0193238230 0 0
-0.0019627840 -0.0203299250 0 0
-0.0033458970 -0.0208857870 0 0
-0.0042957080 -0.0209434560 0 0
-0.0047496050 -0.0205035830 0 0
-0.0046683000 -0.0196118500 0 0
-0.0040433330 -0.0183517590 0 0
-0.0029114540 -0.0168371710 0 0
-0.0013645510 -0.0152054850 0 0
0.0004544570 -0.0136100740 0 0
0.0023687030 -0.0122095600 0 0
0.0041901000 -0.0111522990 0 0
0.0057426010 -0.0105578380 0 0
0.0068826020 -0.0105006320 0 0
0.0075129710 -0.0110011190 0 0
0.0075896350 -0.0120252160 0 0
0.0071231040 -0.0134896820 0 0
0.0061774690 -0.0152709020 0 0
0.0048664950 -0.0172168950 0 0
0.0033446420 -0.0191627330 0 0
0.0017926880 -0.0209476210 0 0
0.0003992050 -0.0224305700 0 0
-0.0006615810 -0.0235020670 0 0
-0.0012536040 -0.0240906260 0 0
-0.0012991550 -0.0241649340 0 0
-0.0007911020 -0.0237340670 0 0
0.0002039080 -0.0228477870 0 0
0.0015529350 -0.0215963720 0 0
0.0030774160 -0.0201070550 0 0
0.0045836240 -0.0185336020 0 0
0.0058923530 -0.0170384460 0 0
0.0068591550 -0.0157718550 0 0
0.0073844290 -0.0148546900 0 0
0.0074166580 -0.0143677780 0 0
0.0069513610 -0.0143460860 0 0
0.0060281240 -0.0147750390 0 0
0.0047275930 -0.0155892580 0 0
0.0031669880 -0.0166766590 0 0
0.0014907840 -0.0178903050 0 0
-0.0001438750 -0.0190670800 0 0
-0.0015830910 -0.0200485630 0 0
-0.0026888750 -0.0206990530 0 0
-0.0033479100 -0.0209189130 0 0
-0.0034793990 -0.0206539460 0 0
-0.0030440760 -0.0199011430 0 0
-0.0020542100 -0.0187100180 0 0
-0.0005837760 -0.0171779770 0 0
0.0012253110 -0.0154392090 0 0
0.0031722240 -0.0136497450 0 0
0.0050297810 -0.0119728160 0 0
0.0065881550 -0.0105656970 0 0
0.0076850650 -0.0095664230 0 0
0.0082138180 -0.0090798780 0 0
0.0081219170 -0.0091651940 0 0
0.0074124380 -0.0098271620 0 0
0.0061466780 -0.0110137530 0 0
0.0044408680 -0.0126205690 0 0
0.0024541430 -0.0145013970 0 0
0.0003709850 -0.0164829290 0 0
-0.0016155130 -0.0183811520 0 0
-0.0033168490 -0.0200176430 0 0
-0.0045625210 -0.0212359260 0 0
-0.0052166030 -0.0219182120 0 0
-0.0051949890 -0.0220007220 0 0
-0.0044789710 -0.0214837600 0 0
-0.0031207700 -0.0204325380 0 0
-0.0012376350 -0.0189671380 0 0
0.0010038110 -0.0172438000 0 0
0.0034058160 -0.0154323710 0 0
0.0057545020 -0.0136954970 0 0
0.0078335940 -0.0121739600 0 0
0.0094441370 -0.0109788710 0 0
0.0104319210 -0.0101874340 0 0
0.0107134470 -0.0098395070 0 0
0.0102890370 -0.0099357210 0 0
0.0092391360 -0.0104386160 0 0
0.0077077110 -0.0112763860 0 0
0.0058786430 -0.0123485770 0 0
0.0039480290 -0.0135333310 0 0
0.0020964870 -0.0146951390 0 0
0.0004721840 -0.0156931840 0 0
-0.0008083000 -0.0163926660 0 0
-0.0016511640 -0.0166805070 0 0
-0.0019843070 -0.0164829170 0 0
-0.0017650970 -0.0157794490 0 0
-0.0009893190 -0.0146091800 0 0
0.0002988310 -0.0130680150 0 0
0.0019965870 -0.0112986330 0 0
0.0039438500 -0.0094748850 0 0
0.0059416960 -0.0077825940 0 0
0.0077780400 -0.0063992150 0 0
0.0092505190 -0.0054741700 0 0
0.0101877480 -0.0051116100 0 0
0.0104711780 -0.0053586360 0 0
0.0100526470 -0.0062013730 0 0
0.0089605860 -0.0075684210 0 0
0.0072928070 -0.0093396150 0 0
0.0051997050 -0.0113583310 0 0
0.0028642300 -0.0134460480 0 0
0.0004827160 -0.0154183270 0 0
-0.0017520970 -0.0171016840 0 0
-0.0036641740 -0.0183506040 0 0
-0.0051030650 -0.0190627620 0 0
-0.0059529850 -0.0191893450 0 0
-0.0061464410 -0.0187383520 0 0
-0.0056789980 -0.0177711720 0 0
-0.0046170160 -0.0163944810 0 0
-0.0030939580 -0.0147492170 0 0
-0.0012961140 -0.0129972140 0 0
0.0005590950 -0.0113056170 0 0
0.0022484360 -0.0098301730 0 0
0.0035691250 -0.0087002590 0 0
0.0043644410 -0.0080089190 0 0
0.0045455640 -0.0078083360 0 0
0.0041050930 -0.0081082290 0 0
0.0031185580 -0.0088749090 0 0
0.0017312840 -0.0100316510 0 0
0.0001307440 -0.0114632550 0 0
-0.0014887090 -0.0130266170 0 0
-0.0029577680 -0.0145661770 0 0
-0.0041533170 -0.0159312060 0 0
-0.0050072070 -0.0169918680 0 0
-0.0055049950 -0.0176521480 0 0
-0.0056798310 -0.0178591710 0 0
-0.0056060520 -0.0176091350 0 0
-0.0053918710 -0.0169497890 0 0
-0.0051678840 -0.0159780580 0 0
-0.0050733330 -0.0148309300 0 0
-0.0052473690 -0.0136696400 0 0
-0.0058273350 -0.0126602470 0 0
-0.0069450020 -0.0119551990 0 0
-0.0087105710 -0.0116796410 0 0
-0.0111868390 -0.0119230210 0 0
-0.0143676070 -0.0127338940 0 0
-0.0181734890 -0.0141168280 0 0
-0.0224666490 -0.0160321010 0 0
-0.0270739940 -0.0183983150 0 0
-0.0318074860 -0.0210971580 -1 0
-0.0364793400 -0.0239804500 -1 0
-0.0409159020 -0.0268801210 -1 0
-0.0449718500 -0.0296216630 -1 0
-0.0485426520 -0.0320414740 -1 -1
-0.0515716260 -0.0340067950 -1 -1
-0.0540495890 -0.0354340320 -1 -1
-0.0560098340 -0.0363002370 -1 -1
-0.0575233890 -0.0366448350 -1 -1
-0.0586959380 -0.0365622610 -1 -1
-0.0596637580 -0.0361887640 -1 -1
-0.0605866100 -0.0356868680 -1 -1
-0.0616374040 -0.0352297120 -1 -1
-0.0629873170 -0.0349859130 -1 -1
-0.0647861080 -0.0351048010 -1 -1
-0.0671430150 -0.0357024750 -1 -1
-0.0701150470 -0.0368505160 -1 -1
-0.0737031100 -0.0385695740 -1 -1
-0.0778517000 -0.0408288800 -1 -1
-0.0824501450 -0.0435506870 -1 -1
-0.0873371150 -0.0466177450 -1 -1
-0.0923105170 -0.0498830420 -1 -1
-0.0971444190 -0.0531818550 -1 -1
-0.1016145080 -0.0563453810 -1 -1
-0.1055293930 -0.0592146320 -1 -1
-0.1087578850 -0.0616541080 -1 -1
-0.1112418520 -0.0635650620 -1 -1
-0.1129937570 -0.0648967000 -1 -1
-0.1140870680 -0.0656523800 -1 -1
-0.1146468250 -0.0658892110 -1 -1
-0.1148409710 -0.0657118440 -1 -1
-0.1148683600 -0.0652624090 -1 -1
-0.1149397980 -0.0647080880 -1 -1
-0.1152539210 -0.0642264710 -1 -1
-0.1159745130 -0.0639889160 -1 -1
-0.1172138870 -0.0641433830 -1 -1
-0.1190226880 -0.0647981860 -1 -1
-0.1213860340 -0.0660082790 -1 -1
-0.1242273650 -0.0677675370 -1 -1
-0.1274201260 -0.0700102280 -1 -1
-0.1308032030 -0.0726211050 -1 -1
-0.1341946330 -0.0754502460 -1 -1
-0.1374023590 -0.0783288740 -1 -1
-0.1402349810 -0.0810846610 -1 -1
-0.1425162960 -0.0835561980 -1 -1
-0.1441050510 -0.0856062280 -1 -1
-0.1449149350 -0.0871330360 -1 -1
-0.1449263230 -0.0880793810 -1 -1
-0.1441860160 -0.0884383320 -1 -1
-0.1427968380 -0.0882553690 -1 -1
-0.1409014650 -0.0876259790 -1 -1
-0.1386665590 -0.0866876900 -1 -1
-0.1362711410 -0.0856059480 -1 -1
-0.1338977880 -0.0845549870 -1 -1
-0.1317227030 -0.0836970370 -1 -1
-0.1299029810 -0.0831640490 -1 -1
-0.1285627820 -0.0830446220 -1 -1
-0.1277817900 -0.0833768090 -1 -1
-0.1275879480 -0.0841463940 -1 -1
-0.1279522680 -0.0852902100 -1 -1
-0.1287828700 -0.0867043360 -1 -1
-0.1299229980 -0.0882560650 -1 -1
-0.1311636080 -0.0897972730 -1 -1
-0.1322740350 -0.0911778680 -1 -1
-0.1330406320 -0.0922595120 -1 -1
-0.1332989250 -0.0929291360 -1 -1
-0.1329531210 -0.0931108950 -1 -1
-0.1319845950 -0.0927757960 -1 -1
-0.1304502230 -0.0919479650 -1 -1
-0.1284709590 -0.0907051480 -1 -1
-0.1262152500 -0.0891717780 -1 -1
-0.1238820760 -0.0875058520 -1 -1
-0.1216835890 -0.0858818280 -1 -1
-0.1198250970 -0.0844707450 -1 -1
-0.1184828200 -0.0834195030 -1 -1
-0.1177836170 -0.0828333210 -1 -1
-0.1177915470 -0.0827645310 -1 -1
-0.1185027840 -0.0832084210 -1 -1
-0.1198466510 -0.0841061090 -1 -1
-0.1216905460 -0.0853539030 -1 -1
-0.1238503630 -0.0868166920 -1 -1
-0.1261096220 -0.0883424370 -1 -1
-0.1282452330 -0.0897763870 -1 -1
-0.1300511800 -0.0909748200 -1 -1
-0.1313529480 -0.0918179650 -1 -1
-0.1320146230 -0.0922209450 -1 -1
-0.1319463260 -0.0921407270 -1 -1
-0.1311156740 -0.0915779090 -1 -1
-0.1295591720 -0.0905746730 -1 -1
-0.1273861410 -0.0892112080 -1 -1
-0.1247700960 -0.0876011970 -1 -1
-0.1219285010 -0.0858848360 -1 -1
-0.1190977190 -0.0842179480 -1 -1
-0.1165094520 -0.0827575450 -1 -1
-0.1143691300 -0.0816456250 -1 -1
-0.1128348340 -0.0809937860 -1 -1
-0.1120000140 -0.0808713700 -1 -1
-0.1118859480 -0.0812989920 -1 -1
-0.1124455980 -0.0822476490 -1 -1
-0.1135749730 -0.0836421150 -1 -1
-0.1151272620 -0.0853674660 -1 -1
-0.1169274730 -0.0872789480 -1 -1
-0.1187868520 -0.0892154410 -1 -1
-0.1205169820 -0.0910146850 -1 -1
-0.1219448700 -0.0925274720 -1 -1
-0.1229297600 -0.0936295820 -1 -1
-0.1233785310 -0.0942319880 -1 -1
-0.1232547770 -0.0942892650 -1 -1
-0.1225797390 -0.0938048080 -1 -1
-0.1214265880 -0.0928318080 -1 -1
-0.1199109270 -0.0914699600 -1 -1
-0.1181801080 -0.0898579980 -1 -1
-0.1164015310 -0.0881622950 -1 -1
-0.1147488510 -0.0865620770 -1 -1
-0.1133869520 -0.0852312510 -1 -1
-0.1124572870 -0.0843166490 -1 -1
-0.1120638310 -0.0839153690 -1 -1
-0.1122602620 -0.0840582750 -1 -1
-0.1130413670 -0.0847070050 -1 -1
-0.1143430490 -0.0857654820 -1 -1
-0.1160523510 -0.0870999420 -1 -1
-0.1180225240 -0.0885597090 -1 -1
-0.1200865120 -0.0899934780 -1 -1
-0.1220692980 -0.0912594150 -1 -1
-0.1238041930 -0.0922311120 -1 -1
-0.1251525780 -0.0928037720 -1 -1
-0.1260194460 -0.0929038340 -1 -1
-0.1263582090 -0.0925011210 -1 -1
-0.1261675500 -0.0916188800 -1 -1
-0.1254894450 -0.0903366520 -1 -1
-0.1244109220 -0.0887835160 -1 -1
-0.1230610210 -0.0871227480 -1 -1
-0.1215968270 -0.0855318150 -1 -1
-0.1201855320 -0.0841826130 -1 -1
-0.1189904000 -0.0832250360 -1 -1
-0.1181566030 -0.0827733980 -1 -1
-0.1177927610 -0.0828940800 -1 -1
-0.1179551490 -0.0835955590 -1 -1
-0.1186419070 -0.0848249430 -1 -1
-0.1197956410 -0.0864738700 -1 -1
-0.1213098830 -0.0883920440 -1 -1
-0.1230383840 -0.0904045030 -1 -1
-0.1248077100 -0.0923301300 -1 -1
-0.1264329960 -0.0939996890 -1 -1
-0.1277364330 -0.0952711550 -1 -1
-0.1285676450 -0.0960408720 -1 -1
-0.1288234760 -0.0962510920 -1 -1
-0.1284630580 -0.0958945730 -1 -1
-0.1275136600 -0.0950152400 -1 -1
-0.1260654000 -0.0937037150 -1 -1
-0.1242572560 -0.0920881410 -1 -1
-0.1222597700 -0.0903220540 -1 -1
-0.1202595240 -0.0885709910 -1 -1
-0.1184464010 -0.0869984070 -1 -1
-0.1169996950 -0.0857509320 -1 -1
-0.1160694020 -0.0849441300 -1 -1
-0.1157556170 -0.0846508280 -1 -1
-0.1160933880 -0.0848938440 -1 -1
-0.1170478290 -0.0856443390 -1 -1
-0.1185187560 -0.0868252830 -1 -1
-0.1203514080 -0.0883184990 -1 -1
-0.1223513750 -0.0899754840 -1 -1
-0.1243043560 -0.0916336100 -1 -1
-0.1260010570 -0.0931362720 -1 -1
-0.1272638550 -0.0943514070 -1 -1
-0.1279680510 -0.0951830930 -1 -1
-0.1280520770 -0.0955759460 -1 -1
-0.1275172880 -0.0955158420 -1 -1
-0.1264223770 -0.0950294930 -1 -1
-0.1248781380 -0.0941819020 -1 -1
-0.1230450570 -0.0930691740 -1 -1
-0.1211275970 -0.0918060990 -1 -1
-0.1193526350 -0.0905120500 -1 -1
-0.1179291550 -0.0893005170 -1 -1
-0.1170064270 -0.0882740420 -1 -1
-0.1166531920 -0.0875212330 -1 -1
-0.1168633500 -0.0871119290 -1 -1
-0.1175763220 -0.0870901290 -1 -1
-0.1186978950 -0.0874668230 -1 -1
-0.1201143440 -0.0882145400 -1 -1
-0.1216997180 -0.0892653060 -1 -1
-0.1233191600 -0.0905142780 -1 -1
-0.1248306360 -0.0918300770 -1 -1
-0.1260875030 -0.0930703990 -1 -1
-0.1269457350 -0.0941000990 -1 -1
-0.1272780210 -0.0948084030 -1 -1
-0.1269918240 -0.0951218410 -1 -1
-0.1260461000 -0.0950108770 -1 -1
-0.1244641290 -0.0944903320 -1 -1
-0.1223413360 -0.0936149270 -1 -1
-0.1198431730 -0.0924718830 -1 -1
-0.1171879870 -0.0911723790 -1 -1
-0.1146186660 -0.0898425130 -1 -1
-0.1123730240 -0.0886129430 -1 -1
-0.1106580380 -0.0876066410 -1 -1
-0.1096278940 -0.0869261080 -1 -1
-0.1093669150 -0.0866424630 -1 -1
-0.1098797810 -0.0867877770 -1 -1
-0.1110908230 -0.0873503860 -1 -1
-0.1128547640 -0.0882727990 -1 -1
-0.1149786720 -0.0894534190 -1 -1
-0.1172475980 -0.0907545930 -1 -1
-0.1194455170 -0.0920179540 -1 -1
-0.1213709090 -0.0930843140 -1 -1
-0.1228503060 -0.0938138630 -1 -1
-0.1237513780 -0.0941039580 -1 -1
-0.1239960240 -0.0939030820 -1 -1
-0.1235725470 -0.0932187590 -1 -1
-0.1225429060 -0.0921161880 -1 -1
-0.1210386870 -0.0907061300 -1 -1
-0.1192409820 -0.0891259510 -1 -1
-0.1173474940 -0.0875216380 -1 -1
-0.1155410080 -0.0860354600 -1 -1
-0.1139733540 -0.0847975680 -1 -1
-0.1127635780 -0.0839181640 -1 -1
-0.1119966770 -0.0834795050 -1 -1
-0.1117162010 -0.0835282350 -1 -1
-0.1119173530 -0.0840684160 -1 -1
-0.1125476800 -0.0850571660 -1 -1
-0.1135145340 -0.0864062050 -1 -1
-0.1146949300 -0.0879905140 -1 -1
-0.1159461400 -0.0896615240 -1 -1
-0.1171182360 -0.0912608840 -1 -1
-0.1180679740 -0.0926329360 -1 -1
-0.1186701220 -0.0936366710 -1 -1
-0.1188245870 -0.0941583000 -1 -1
-0.1184624170 -0.0941238840 -1 -1
-0.1175534930 -0.0935091030 -1 -1
-0.1161153830 -0.0923422410 -1 -1
-0.1142210170 -0.0906999640 -1 -1
-0.1120012040 -0.0886995840 -1 -1
-0.1096365490 -0.0864899420 -1 -1
-0.1073367330 -0.0842390090 -1 -1
-0.1053122720 -0.0821170510 -1 -1
-0.1037467240 -0.0802784530 -1 -1
-0.1027744840 -0.0788460680 -1 -1
-0.1024669780 -0.0778994300 -1 -1
-0.1028288300 -0.0774673410 -1 -1
-0.1038024450 -0.0775261440 -1 -1
-0.1052768640 -0.0780042610 -1 -1
-0.1070985000 -0.0787921790 -1 -1
-0.1090853140 -0.0797569230 -1 -1
-0.1110445890 -0.0807592030 -1 -1
-0.1127899450 -0.0816694080 -1 -1
-0.1141549560 -0.0823792050 -1 -1
-0.1150066930 -0.0828085540 -1 -1
-0.1152621940 -0.0829090570 -1 -1
-0.1149031940 -0.0826643190 -1 -1
-0.1139793150 -0.0820889290 -1 -1
-0.1125960300 -0.0812283680 -1 -1
-0.1108941050 -0.0801601440 -1 -1
-0.1090291520 -0.0789933600 -1 -1
-0.1071553800 -0.0778626100 -1 -1
-0.1054153930 -0.0769138980 -1 -1
-0.1039368510 -0.0762844590 -1 -1
-0.1028328330 -0.0760821220 -1 -1
-0.1021985930 -0.0763699790 -1 -1
-0.1020993670 -0.0771591590 -1 -1
-0.1025533370 -0.0784093830 -1 -1
-0.1035223930 -0.0800349890 -1 -1
-0.1049190520 -0.0819130840 -1 -1
-0.1066229850 -0.0838916360 -1 -1
-0.1084930160 -0.0857989900 -1 -1
-0.1103703080 -0.0874586790 -1 -1
-0.1120817750 -0.0887101040 -1 -1
-0.1134528590 -0.0894300600 -1 -1
-0.1143294630 -0.0895492850 -1 -1
-0.1146026700 -0.0890612980 -1 -1
-0.1142295680 -0.0880232230 -1 -1
-0.1132455540 -0.0865491000 -1 -1
-0.1117655950 -0.0847966970 -1 -1
-0.1099730630 -0.0829495240 -1 -1
-0.1080966920 -0.0811962060 -1 -1
-0.1063794800 -0.0797097180 -1 -1
-0.1050454210 -0.0786294210 -1 -1
-0.1042696520 -0.0780482350 -1 -1
-0.1041565040 -0.0780054390 -1 -1
-0.1047292210 -0.0784845830 -1 -1
-0.1059325140 -0.0794165140 -1 -1
-0.1076443360 -0.0806874240 -1 -1
-0.1096918690 -0.0821510590 -1 -1
-0.1118708050 -0.0836440130 -1 -1
-0.1139686050 -0.0850031040 -1 -1
-0.1157880550 -0.0860826590 -1 -1
-0.1171653230 -0.0867684140 -1 -1
-0.1179812200 -0.0869856850 -1 -1
-0.1181687690 -0.0867021550 -1 -1
-0.1177187260 -0.0859275900 -1 -1
-0.1166806360 -0.0847124400 -1 -1
-0.1151577460 -0.0831455890 -1 -1
-0.1132982560 -0.0813500900 -1 -1
-0.1112850760 -0.0794754190 -1 -1
-0.1093232210 -0.0776856410 -1 -1
-0.1076231820 -0.0761443570 -1 -1
-0.1063800310 -0.0749979430 -1 -1
-0.1057502440 -0.0743589030 -1 -1
-0.1058300050 -0.0742919100 -1 -1
-0.1066391700 -0.0748050650 -1 -1
-0.1081163210 -0.0758478130 -1 -1
-0.1101310770 -0.0773163310 -1 -1
-0.1125104950 -0.0790659030 -1 -1
-0.1150628440 -0.0809272310 -1 -1
-0.1175878940 -0.0827232510 -1 -1
-0.1198829060 -0.0842855860 -1 -1
-0.1217554380 -0.0854707040 -1 -1
-0.1230406260 -0.0861738440 -1 -1
-0.1236172930 -0.0863379630 -1 -1
-0.1234219570 -0.0859571280 -1 -1
-0.1224596530 -0.0850758190 -1 -1
-0.1208090000 -0.0837846800 -1 -1
-0.1186183230 -0.0822119640 -1 -1
-0.1160904150 -0.0805111840 -1 -1
-0.1134587110 -0.0788472050 -1 -1
-0.1109616040 -0.0773819460 -1 -1
-0.1088180600 -0.0762590160 -1 -1
-0.1072047320 -0.0755874250 -1 -1
-0.1062381610 -0.0754278130 -1 -1
-0.1059666950 -0.0757865230 -1 -1
-0.1063704320 -0.0766195720 -1 -1
-0.1073637610 -0.0778425240 -1 -1
-0.1088006920 -0.0793409830 -1 -1
-0.1104878650 -0.0809801140 -1 -1
-0.1122056890 -0.0826138710 -1 -1
-0.1137328600 -0.0840948660 -1 -1
-0.1148696010 -0.0852859950 -1 -1
-0.1154567550 -0.0860736440 -1 -1
-0.1153899700 -0.0863798280 -1 -1
-0.1146309860 -0.0861702700 -1 -1
-0.1132177360 -0.0854579270 -1 -1
-0.1112696850 -0.0843032430 -1 -1
-0.1089803900 -0.0828113820 -1 -1
-0.1065938060 -0.0811251840 -1 -1
-0.1043709480 -0.0794127540 -1 -1
-0.1025581230 -0.0778498240 -1 -1
-0.1013629950 -0.0765990660 -1 -1
-0.1009370920 -0.0757907040 -1 -1
-0.1013627430 -0.0755086010 -1 -1
-0.1026477910 -0.0757832940 -1 -1
-0.1047307350 -0.0765911070 -1 -1
-0.1074913960 -0.0778580600 -1 -1
-0.1107603940 -0.0794679600 -1 -1
-0.1143275620 -0.0812737010 -1 -1
-0.1179554610 -0.0831099550 -1 -1
-0.1214017890 -0.0848059070 -1 -1
-0.1244465180 -0.0861987340 -1 -1
-0.1269155490 -0.0871489020 -1 -1
-0.1286961980 -0.0875563350 -1 -1
-0.1297438580 -0.0873741990 -1 -1
-0.1300801020 -0.0866160100 -1 -1
-0.1297844030 -0.0853535990 -1 -1
-0.1289834770 -0.0837072730 -1 -1
-0.1278401730 -0.0818310510 -1 -1
-0.1265413370 -0.0798949320 -1 -1
-0.1252829540 -0.0780668700 -1 -1
-0.1242501540 -0.0764983780 -1 -1
-0.1235927200 -0.0753151190 -1 -1
-0.1234023590 -0.0746095250 -1 -1
-0.1236987950 -0.0744327160 -1 -1
-0.1244279180 -0.0747866140 -1 -1
-0.1254724270 -0.0756192730 -1 -1
-0.1266726800 -0.0768266080 -1 -1
-0.1278509010 -0.0782626030 -1 -1
-0.1288307280 -0.0797569280 -1 -1
-0.1294514590 -0.0811357450 -1 -1
-0.1295835630 -0.0822414110 -1 -1
-0.1291463470 -0.0829487940 -1 -1
-0.1281186350 -0.0831778000 -1 -1
-0.1265370610 -0.0829018000 -1 -1
-0.1244877420 -0.0821503400 -1 -1
-0.1220979070 -0.0810045210 -1 -1
-0.1195267090 -0.0795865030 -1 -1
-0.1169524600 -0.0780466990 -1 -1
-0.1145574190 -0.0765505790 -1 -1
-0.1125136400 -0.0752641690 -1 -1
-0.1109719180 -0.0743370630 -1 -1
-0.1100524850 -0.0738839230 -1 -1
-0.1098339740 -0.0739678620 -1 -1
-0.1103404750 -0.0745899490 -1 -1
-0.1115321630 -0.0756881000 -1 -1
-0.1133051410 -0.0771454430 -1 -1
-0.1155005990 -0.0788048160 -1 -1
-0.1179187480 -0.0804860640 -1 -1
-0.1203335580 -0.0820046550 -1 -1
-0.1225085010 -0.0831905550 -1 -1
-0.1242161170 -0.0839056160 -1 -1
-0.1252625300 -0.0840575630 -1 -1
-0.1255136460 -0.0836088310 -1 -1
-0.1249163900 -0.0825792610 -1 -1
-0.1235086130 -0.0810431030 -1 -1
-0.1214149360 -0.0791216250 -1 -1
-0.1188299500 -0.0769719020 -1 -1
-0.1159925000 -0.0747717770 -1 -1
-0.1131549220 -0.0727024770 -1 -1
-0.1105523340 -0.0709319120 -1 -1
-0.1083785130 -0.0696009800 -1 -1
-0.1067711820 -0.0688135400 -1 -1
-0.1058046250 -0.0686297370 -1 -1
-0.1054886300 -0.0690618430 -1 -1
-0.1057751130 -0.0700715060 -1 -1
-0.1065712090 -0.0715685250 -1 -1
-0.1077540220 -0.0734134070 -1 -1
-0.1091820550 -0.0754264710 -1 -1
-0.1107026810 -0.0774042720 -1 -1
-0.1121608980 -0.0791415110 -1 -1
-0.1134121340 -0.0804550390 -1 -1
-0.1143331040 -0.0812063570 -1 -1
-0.1148262020 -0.0813194520 -1 -1
-0.1148235170 -0.0807906970 -1 -1
-0.1142975630 -0.0796876230 -1 -1
-0.1132750380 -0.0781364140 -1 -1
-0.1118431590 -0.0763027900 -1 -1
-0.1101423310 -0.0743718810 -1 -1
-0.1083477330 -0.0725294000 -1 -1
-0.1066470640 -0.0709436460 -1 -1
-0.1052195170 -0.0697484590 -1 -1
-0.1042178450 -0.0690303640 -1 -1
-0.1037554170 -0.0688243650 -1 -1
-0.1038981810 -0.0691187350 -1 -1
-0.1046575500 -0.0698629670 -1 -1
-0.1059836880 -0.0709728710 -1 -1
-0.1077658790 -0.0723328200 -1 -1
-0.1098453860 -0.0738003270 -1 -1
-0.1120379190 -0.0752170270 -1 -1
-0.1141573620 -0.0764254460 -1 -1
-0.1160338630 -0.0772877000 -1 -1
-0.1175254390 -0.0777024000 -1 -1
-0.1185259560 -0.0776170810 -1 -1
-0.1189711560 -0.0770343710 -1 -1
-0.1188431740 -0.0760109490 -1 -1
-0.1181741480 -0.0746496660 -1 -1
-0.1170481590 -0.0730864750 -1 -1
-0.1155987710 -0.0714745310 -1 -1
-0.1139990060 -0.0699681490 -1 -1
-0.1124426650 -0.0687087040 -1 -1
-0.1111204490 -0.0678131010 -1 -1
-0.1101980420 -0.0673645530 -1 -1
-0.1098000950 -0.0674058170 -1 -1
-0.1099962620 -0.0679348570 -1 -1
-0.1107865830 -0.0689026860 -1 -1
-0.1120942640 -0.0702143160 -1 -1
-0.1137751400 -0.0717347390 -1 -1
-0.1156402770 -0.0733013140 -1 -1
-0.1174802610 -0.0747421640 -1 -1
-0.1190856880 -0.0758970580 -1 -1
-0.1202669540 -0.0766355370 -1 -1
-0.1208768440 -0.0768694890 -1 -1
-0.1208337350 -0.0765602870 -1 -1
-0.1201385560 -0.0757209210 -1 -1
-0.1188776390 -0.0744133440 -1 -1
-0.1172064790 -0.0727419390 -1 -1
-0.1153180960 -0.0708448450 -1 -1
-0.1134091950 -0.0688843480 -1 -1
-0.1116573840 -0.0670354750 -1 -1
-0.1102118980 -0.0654708830 -1 -1
-0.1091899050 -0.0643420290 -1 -1
-0.1086709370 -0.0637604580 -1 -1
-0.1086902930 -0.0637846740 -1 -1
-0.1092363720 -0.0644150600 -1 -1
-0.1102539800 -0.0655953790 -1 -1
-0.1116509620 -0.0672187990 -1 -1
-0.1133043220 -0.0691376030 -1 -1
-0.1150660660 -0.0711759500 -1 -1
-0.1167731290 -0.0731451890 -1 -1
-0.1182643500 -0.0748610270 -1 -1
-0.1194016250 -0.0761611560 -1 -1
-0.1200869870 -0.0769214240 -1 -1
-0.1202688860 -0.0770687250 -1 -1
-0.1199390400 -0.0765888960 -1 -1
-0.1191264290 -0.0755285580 -1 -1
-0.1178931960 -0.0739904860 -1 -1
-0.1163330820 -0.0721226020 -1 -1
-0.1145697820 -0.0701019390 -1 -1
-0.1127513710 -0.0681166950 -1 -1
-0.1110391880 -0.0663496600 -1 -1
-0.1095929090 -0.0649638090 -1 -1
-0.1085539330 -0.0640886120 -1 -1
-0.1080280020 -0.0638065300 -1 -1
-0.1080688400 -0.0641419240 -1 -1
-0.1086668550 -0.0650562210 -1 -1
-0.1097469640 -0.0664514550 -1 -1
-0.1111769220 -0.0681807750 -1 -1
-0.1127857210 -0.0700635290 -1 -1
-0.1143882460 -0.0719039220 -1 -1
-0.1158067720 -0.0735115400 -1 -1
-0.1168820660 -0.0747204780 -1 -1
-0.1174781610 -0.0754044650 -1 -1
-0.1174905840 -0.0754875420 -1 -1
-0.1168612590 -0.0749508730 -1 -1
-0.1155944320 -0.0738357140 -1 -1
-0.1137655580 -0.0722414590 -1 -1
-0.1115174910 -0.0703169940 -1 -1
-0.1090430320 -0.0682445610 -1 -1
-0.1065596010 -0.0662180980 -1 -1
-0.1042845010 -0.0644206920 -1 -1
-0.1024137550 -0.0630063110 -1 -1
-0.1011025650 -0.0620882690 -1 -1
-0.1004479180 -0.0617330260 -1 -1
-0.1004778830 -0.0619568270 -1 -1
-0.1011507950 -0.0627246320 -1 -1
-0.1023633090 -0.0639524630 -1 -1
-0.1039648260 -0.0655142100 -1 -1
-0.1057764680 -0.0672528590 -1 -1
-0.1076117870 -0.0689951710 -1 -1
-0.1092947350 -0.0705687250 -1 -1
-0.1106723300 -0.0718197780 -1 -1
-0.1116247580 -0.0726290030 -1 -1
-0.1120769350 -0.0729222190 -1 -1
-0.1120089310 -0.0726756730 -1 -1
-0.1114568690 -0.0719176270 -1 -1
-0.1105008460 -0.0707270470 -1 -1
-0.1092474870 -0.0692278200 -1 -1
-0.1078171870 -0.0675765880 -1 -1
-0.1063379210 -0.0659444870 -1 -1
-0.1049413640 -0.0644961390 -1 -1
-0.1037569440 -0.0633710370 -1 -1
-0.1029012410 -0.0626703260 -1 -1
-0.1024637780 -0.0624486150 -1 -1
-0.1024936310 -0.0627105070 -1 -1
-0.1029901970 -0.0634124750 -1 -1
-0.1039001060 -0.0644695140 -1 -1
-0.1051220220 -0.0657655430 -1 -1
-0.1065171900 -0.0671665550 -1 -1
-0.1079215190 -0.0685340360 -1 -1
-0.1091599670 -0.0697360510 -1 -1
-0.1100665220 -0.0706562320 -1 -1
-0.1105080880 -0.0712029910 -1 -1
-0.1104058000 -0.0713191600 -1 -1
-0.1097472490 -0.0709889270 -1 -1
-0.1085866670 -0.0702397120 -1 -1
-0.1070348040 -0.0691399220 -1 -1
-0.1052425250 -0.0677942170 -1 -1
-0.1033819480 -0.0663361450 -1 -1
-0.1016285650 -0.0649175690 -1 -1
-0.1001469520 -0.0636959320 -1 -1
-0.0990803790 -0.0628208200 -1 -1
-0.0985420980 -0.0624191740 -1 -1
-0.0986057530 -0.0625773720 -1 -1
-0.0992945430 -0.0633222570 -1 -1
-0.1005711750 -0.0646085680 -1 -1
-0.1023322550 -0.0663195720 -1 -1
-0.1044119140 -0.0682812020 -1 -1
-0.1065979750 -0.0702850310 -1 -1
-0.1086586730 -0.0721149180 -1 -1
-0.1103729000 -0.0735729320 -1 -1
-0.1115560140 -0.0745009920 -1 -1
-0.1120769590 -0.0747963390 -1 -1
-0.1118678760 -0.0744208520 -1 -1
-0.1109292980 -0.0734047010 -1 -1
-0.1093305350 -0.0718434580 -1 -1
-0.1072022680 -0.0698871290 -1 -1
-0.1047220210 -0.0677216670 -1 -1
-0.1020973680 -0.0655463220 -1 -1
-0.0995495260 -0.0635512070 -1 -1
-0.0972960100 -0.0618989630 -1 -1
-0.0955315680 -0.0607128330 -1 -1
-0.0944095960 -0.0600709860 -1 -1
-0.0940278040 -0.0600048340 -1 -1
-0.0944207670 -0.0604989170 -1 -1
-0.0955580400 -0.0614916310 -1 -1
-0.0973442760 -0.0628783820 -1 -1
-0.0996216240 -0.0645193670 -1 -1
-0.1021797720 -0.0662525330 -1 -1
-0.1047767710 -0.0679098580 -1 -1
-0.1071664550 -0.0693338600 -1 -1
-0.1091254950 -0.0703920950 -1 -1
-0.1104768060 -0.0709892620 -1 -1
-0.1111086290 -0.0710767000 -1 -1
-0.1109866680 -0.0706579200 -1 -1
-0.1101551970 -0.0697886960 -1 -1
-0.1087261560 -0.0685714690 -1 -1
-0.1068600770 -0.0671442950 -1 -1
-0.1047447340 -0.0656649420 -1 -1
-0.1025765370 -0.0642927040 -1 -1
-0.1005478210 -0.0631719220 -1 -1
-0.0988393320 -0.0624193390 -1 -1
-0.0976121520 -0.0621152160 -1 -1
-0.0969925090 -0.0622979630 -1 -1
-0.0970501510 -0.0629612390 -1 -1
-0.0977799670 -0.0640525710 -1 -1
-0.0990967520 -0.0654752640 -1 -1
-0.1008452610 -0.0670964670 -1 -1
-0.1028215750 -0.0687613980 -1 -1
-0.1047998890 -0.0703106020 -1 -1
-0.1065591650 -0.0715964160 -1 -1
-0.1079071440 -0.0724963760 -1 -1
-0.1087026400 -0.0729232230 -1 -1
-0.1088752670 -0.0728317390 -1 -1
-0.1084362700 -0.0722226540 -1 -1
-0.1074729410 -0.0711440140 -1 -1
-0.1061264330 -0.0696898950 -1 -1
-0.1045618310 -0.0679949850 -1 -1
-0.1029416590 -0.0662234350 -1 -1
-0.1014085940 -0.0645528450 -1 -1
-0.1000765540 -0.0631558820 -1 -1
-0.0990286970 -0.0621811010 -1 -1
-0.0983216330 -0.0617341760 -1 -1
-0.0979904390 -0.0618626560 -1 -1
-0.0980469010 -0.0625492360 -1 -1
-0.0984715140 -0.0637164810 -1 -1
-0.0992076310 -0.0652402220 -1 -1
-0.1001634790 -0.0669655730 -1 -1
-0.1012209110 -0.0687224580 -1 -1
-0.1022472230 -0.0703412830 -1 -1
-0.1031075280 -0.0716688720 -1 -1
-0.1036768100 -0.0725824750 -1 -1
-0.1038519870 -0.0729994310 -1 -1
-0.1035638550 -0.0728813830 -1 -1
-0.1027873720 -0.0722334080 -1 -1
-0.1015478770 -0.0710997030 -1 -1
-0.0999211260 -0.0695584830 -1 -1
-0.0980273000 -0.0677180360 -1 -1
-0.0960208830 -0.0657126480 -1 -1
-0.0940769550 -0.0636948900 -1 -1
-0.0923737980 -0.0618224010 -1 -1
-0.0910740030 -0.0602409700 -1 -1
-0.0903070720 -0.0590678160 -1 -1
-0.0901551050 -0.0583788930 -1 -1
-0.0906426980 -0.0582025670 -1 -1
-0.0917325110 -0.0585195060 -1 -1
-0.0933272560 -0.0592666790 -1 -1
-0.0952773970 -0.0603435410 -1 -1
-0.0973935490 -0.0616204920 -1 -1
-0.0994629220 -0.0629509750 -1 -1
-0.1012697880 -0.0641871080 -1 -1
-0.1026217890 -0.0651961130 -1 -1
-0.1033803240 -0.0658740610 -1 -1
-0.1034816440 -0.0661550820 -1 -1
-0.1029349820 -0.0660165220 -1 -1
-0.1018040810 -0.0654807360 -1 -1
-0.1001918520 -0.0646125870 -1 -1
-0.0982352230 -0.0635121600 -1 -1
-0.0960985870 -0.0623045470 -1 -1
-0.0939573580 -0.0611288240 -1 -1
-0.0919802390 -0.0601268570 -1 -1
-0.0903206590 -0.0594315850 -1 -1
-0.0891137730 -0.0591539830 -1 -1
-0.0884689930 -0.0593691650 -1 -1
-0.0884538220 -0.0601043840 -1 -1
-0.0890746360 -0.0613313690 -1 -1
-0.0902656990 -0.0629642030 -1 -1
-0.0918924770 -0.0648649000 -1 -1
-0.0937664540 -0.0668584040 -1 -1
-0.0956668080 -0.0687545930 -1 -1
-0.0973659820 -0.0703715610 -1 -1
-0.0986562120 -0.0715546970 -1 -1
-0.0993734380 -0.0721894250 -1 -1
-0.0994148250 -0.0722095740 -1 -1
-0.0987468060 -0.0716040220 -1 -1
-0.0974035280 -0.0704209640 -1 -1
-0.0954790480 -0.0687666250 -1 -1
-0.0931168390 -0.0667962080 -1 -1
-0.0904980270 -0.0646974440 -1 -1
-0.0878286020 -0.0626695030 -1 -1
-0.0853253360 -0.0609009890 -1 -1
-0.0831988680 -0.0595507210 -1 -1
-0.0816323280 -0.0587338570 -1 -1
-0.0807573490 -0.0585136730 -1 -1
-0.0806346640 -0.0588977030 -1 -1
-0.0812476330 -0.0598374410 -1 -1
-0.0825097750 -0.0612321040 -1 -1
-0.0842782710 -0.0629371260 -1 -1
-0.0863668590 -0.0647773170 -1 -1
-0.0885606270 -0.0665639650 -1 -1
-0.0906373320 -0.0681145460 -1 -1
-0.0923932510 -0.0692726510 -1 -1
-0.0936669700 -0.0699248310 -1 -1
-0.0943563090 -0.0700120100 -1 -1
-0.0944274630 -0.0695348920 -1 -1
-0.0939184160 -0.0685532710 -1 -1
-0.0929379600 -0.0671788850 -1 -1
-0.0916544610 -0.0655618270 -1 -1
-0.0902665110 -0.0638720750 -1 -1
-0.0889627080 -0.0622796570 -1 -1
-0.0878910420 -0.0609369900 -1 -1
-0.0871485530 -0.0599647970 -1 -1
-0.0867857200 -0.0594418730 -1 -1
-0.0868174260 -0.0593994830 -1 -1
-0.0872339700 -0.0598208980 -1 -1
-0.0880041010 -0.0606457650 -1 -1
-0.0890668830 -0.0617786830 -1 -1
-0.0903218800 -0.0631007290 -1 -1
-0.0916332220 -0.0644815370 -1 -1
-0.0928517520 -0.0657892010 -1 -1
-0.0938407750 -0.0668970210 -1 -1
-0.0944882940 -0.0676889740 -1 -1
-0.0947054010 -0.0680667740 -1 -1
-0.0944247610 -0.0679595360 -1 -1
