0.0012061400 0.0299588300 0 0
0.0015413760 0.0306961660 0 1
0.0014570330 0.0308762830 0 1
0.0009689170 0.0304483940 0 1
0.0001210040 0.0294203140 0 0
-0.0010195130 0.0278584470 0 0
-0.0023631510 0.0258814350 0 0
-0.0037954500 0.0236480920 0 0
-0.0051752660 0.0213405000 0 0
-0.0063421840 0.0191446200 0 0
-0.0071365820 0.0172320040 0 0
-0.0074262690 0.0157453120 0 0
-0.0071303380 0.0147876190 0 0
-0.0062344140 0.0144135900 0 0
-0.0047944580 0.0146227540 0 0
-0.0029279570 0.0153584090 0 0
-0.0007951110 0.0165148010 0 0
0.0014229870 0.0179510300 0 0
0.0035425870 0.0195074890 0 0
0.0053902290 0.0210214220 0 0
0.0068129660 0.0223406110 0 0
0.0076891390 0.0233355520 0 0
0.0079403000 0.0239099230 0 0
0.0075413350 0.0240084180 0 0
0.0065247140 0.0236213770 0 0
0.0049765910 0.0227863720 0 0
0.0030275550 0.0215864280 0 0
0.0008439580 0.0201436250 0 0
-0.0013796720 0.0186076760 0 0
-0.0034332310 0.0171413970 0 0
-0.0051117450 0.0159051190 0 0
-0.0062392730 0.0150397870 0 0
-0.0066893590 0.0146489420 0 0
-0.0063994160 0.0147836020 0 0
-0.0053786730 0.0154351060 0 0
-0.0037100560 0.0165372710 0 0
-0.0015468550 0.0179755540 0 0
0.0008978110 0.0196003100 0 0
0.0033732360 0.0212424310 0 0
0.0056245750 0.0227301160 0 0
0.0074284730 0.0239051890 0 0
0.0086196030 0.0246375350 0 0
0.0091038360 0.0248371820 0 0
0.0088619580 0.0244637210 0 0
0.0079473680 0.0235321200 0 0
0.0064765650 0.0221137260 0 0
0.0046128790 0.0203314400 0 0
0.0025484650 0.0183485620 0 0
0.0004879710 0.0163524670 0 0
-0.0013671360 0.0145352170 0 0
-0.0028354270 0.0130723880 0 0
-0.0037730800 0.0121018370 0 0
-0.0040886770 0.0117061640 0 0
-0.0037510050 0.0119030790 0 0
-0.0027899480 0.0126456650 0 0
-0.0012944140 0.0138314780 0 0
0.0005919270 0.0153171230 0 0
0.0026808940 0.0169343140 0 0
0.0047581800 0.0185049090 0 0
0.0066064370 0.0198550900 0 0
0.0080271180 0.0208299540 0 0
0.0088584130 0.0213084560 0 0
0.0089908350 0.0212168370 0 0
0.0083808850 0.0205376780 0 0
0.0070590200 0.0193119820 0 0
0.0051279650 0.0176333500 0 0
0.0027513610 0.0156361850 0 0
0.0001357110 0.0134815160 0 0
-0.0024910550 0.0113432640 0 0
-0.0049016020 0.0093952760 0 0
-0.0068907400 0.0077977900 0 0
-0.0082966070 0.0066822930 0 0
-0.0090173660 0.0061360080 0 0
-0.0090151410 0.0061896280 0 0
-0.0083075290 0.0068118600 0 0
-0.0069596870 0.0079121290 0 0
-0.0050858060 0.0093508370 0 0
-0.0028528790 0.0109561020 0 0
-0.0004735360 0.0125448040 0 0
0.0018177140 0.0139435210 0 0
0.0037992300 0.0150046830 0 0
0.0052953660 0.0156168450 0 0
0.0061967860 0.0157111890 0 0
0.0064648050 0.0152659390 0 0
0.0061240760 0.0143084550 0 0
0.0052499310 0.0129144160 0 0
0.0039552320 0.0112037840 0 0
0.0023796410 0.0093326180 0 0
0.0006813020 0.0074795410 0 0
-0.0009723950 0.0058271490 0 0
-0.0024175680 0.0045414330 0 0
-0.0035088580 0.0037535570 0 0
-0.0041333300 0.0035465250 0 0
-0.0042207980 0.0039470160 0 0
-0.0037509110 0.0049226670 0 0
-0.0027593710 0.0063856160 0 0
-0.0013429160 0.0082014170 0 0
0.0003428860 0.0102012600 0 0
0.0020985120 0.0121966140 0 0
0.0037057980 0.0139959040 0 0
0.0049560770 0.0154219410 0 0
0.0056750470 0.0163285650 0 0
0.0057422240 0.0166148600 0 0
0.0051047440 0.0162353230 0 0
0.0037835250 0.0152055110 0 0
0.0018682030 0.0136026990 0 0
-0.0004976560 0.0115599410 0 0
-0.0031331470 0.0092527350 0 0
-0.0058339860 0.0068802970 0 0
-0.0083875730 0.0046452850 0 0
-0.0105925390 0.0027348700 0 0
-0.0122798070 0.0013038560 0 0
-0.0133307160 0.0004600810 0 0
-0.0136900670 0.0002538520 0 0
-0.0133706310 0.0006736600 0 0
-0.0124457330 0.0016489340 0 0
-0.0110338450 0.0030589210 0 0
-0.0092825780 0.0047461980 0 0
-0.0073541020 0.0065332480 0 0
-0.0054126600 0.0082398420 0 0
-0.0036162050 0.0096985760 0 0
-0.0021099330 0.0107677230 0 0
-0.0010178580 0.0113425230 0 0
-0.0004320640 0.0113655110 0 0
-0.0004008100 0.0108345290 0 0
-0.0009183400 0.0098057330 0 0
-0.0019209960 0.0083890180 0 0
-0.0032914820 0.0067355670 0 0
-0.0048702650 0.0050202100 0 0
-0.0064725030 0.0034221930 0 0
-0.0079070210 0.0021065130 0 0
-0.0089938230 0.0012063970 0 0
-0.0095801550 0.0008079230 0 0
-0.0095567290 0.0009392290 0 0
-0.0088735810 0.0015673770 0 0
-0.0075508210 0.0026037800 0 0
-0.0056775950 0.0039161060 0 0
-0.0033979760 0.0053434970 0 0
-0.0008897200 0.0067128660 0 0
0.0016571060 0.0078554180 0 0
0.0040583160 0.0086233410 0 0
0.0061508720 0.0089058520 0 0
0.0078070290 0.0086422300 0 0
0.0089480180 0.0078288950 0 0
0.0095548540 0.0065187200 0 0
0.0096723910 0.0048130770 0 0
0.0094048870 0.0028486930 0 0
0.0089034750 0.0007814380 0 0
0.0083459530 -0.0012303530 0 0
0.0079121640 -0.0030401610 0 0
0.0077626070 -0.0045243530 0 0
0.0080247820 -0.0055912290 0 0
0.0087844280 -0.0061880770 0 0
0.0100786760 -0.0063049910 0 0
0.0118938600 -0.0059752730 0 0
0.0141710330 -0.0052729380 0 0
0.0168145400 -0.0043070690 0 0
0.0196960880 -0.0032129370 0 0
0.0226554520 -0.0021405210 0 0
0.0255066350 -0.0012410510 0 0
0.0280547200 -0.0006525110 0 0
0.0301201900 -0.0004859470 1 0
0.0315622800 -0.0008141730 1 0
0.0322942250 -0.0016637540 1 0
0.0322906200 -0.0030114820 1 0
0.0315919300 -0.0047865840 1 0
0.0303066120 -0.0068781450 1 0
0.0286053690 -0.0091459500 0 0
0.0267037890 -0.0114329690 0 0
0.0248360840 -0.0135780190 0 0
0.0232268730 -0.0154280470 0 0
0.0220670400 -0.0168507180 0 0
0.0214948990 -0.0177473410 0 0
0.0215813710 -0.0180642020 0 0
0.0223202520 -0.0177998620 0 0
0.0236269710 -0.0170070640 0 0
0.0253480820 -0.0157891720 0 0
0.0272813040 -0.0142913020 0 0
0.0292039620 -0.0126861720 0 0
0.0309043050 -0.0111558580 1 0
0.0322068740 -0.0098724110 1 0
0.0329859290 -0.0089800640 1 0
0.0331692640 -0.0085806140 1 0
0.0327392820 -0.0087231510 1 0
0.0317350620 -0.0093993330 1 0
0.0302530090 -0.0105446030 1 0
0.0284404270 -0.0120448940 0 0
0.0264792610 -0.0137483550 0 0
0.0245634320 -0.0154818480 0 0
0.0228760260 -0.0170709770 0 0
0.0215717690 -0.0183605730 0 0
0.0207669840 -0.0192315830 0 0
0.0205348000 -0.0196116350 0 0
0.0209023460 -0.0194791370 0 0
0.0218485110 -0.0188624470 0 0
0.0233022160 -0.0178353380 0 0
0.0251436560 -0.0165093290 0 0
0.0272133380 -0.0150237620 0 0
0.0293294770 -0.0135346880 0 0
0.0313075970 -0.0122028090 1 0
0.0329764670 -0.0111800340 1 0
0.0341903710 -0.0105948020 1 0
0.0348409510 -0.0105375840 1 0
0.0348694280 -0.0110491800 1 0
0.0342750380 -0.0121147110 1 0
0.0331158190 -0.0136642730 1 0
0.0315041110 -0.0155793030 1 0
0.0295999850 -0.0177034940 0 0
0.0275997270 -0.0198569170 0 0
0.0257167870 -0.0218518350 0 0
0.0241591990 -0.0235097560 0 0
0.0231071880 -0.0246798810 0 0
0.0226904160 -0.0252573210 0 0
0.0229680200 -0.0251970710 0 0
0.0239187760 -0.0245198210 0 0
0.0254429560 -0.0233083290 0 0
0.0273721140 -0.0216958500 0 0
0.0294875150 -0.0198496580 0 0
0.0315504850 -0.0179532210 1 0
0.0333385770 -0.0161894870 1 0
0.0346731180 -0.0147258600 1 0
0.0354307410 -0.0137001600 1 0
0.0355446420 -0.0132072850 1 0
0.0350036260 -0.0132883130 1 0
0.0338497220 -0.0139252760 1 0
0.0321716020 -0.0150436050 1 0
0.0300945080 -0.0165214110 1 0
0.0277706520 -0.0182029340 0 0
0.0253722640 -0.0199137380 0 0
0.0230848170 -0.0214764880 0 0
0.0210957340 -0.0227269000 0 0
0.0195768100 -0.0235291600 0 0
0.0186624530 -0.0237896010 0 0
0.0184273150 -0.0234672620 0 0
0.0188689680 -0.0225796540 0 0
0.0199030880 -0.0212026370 0 0
0.0213752040 -0.0194642640 0 0
0.0230861930 -0.0175326440 0 0
0.0248234150 -0.0155982010 0 0
0.0263881390 -0.0138525080 0 0
0.0276140780 -0.0124677370 0 0
0.0283788220 -0.0115802850 0 0
0.0286123140 -0.0112792670 0 0
0.0283017960 -0.0115986570 0 0
0.0274886280 -0.0125129220 0 0
0.0262568260 -0.0139377970 0 0
0.0247206380 -0.0157375670 0 0
0.0230165850 -0.0177383340 0 0
0.0212975630 -0.0197454690 0 0
0.0197249440 -0.0215631550 0 0
0.0184574420 -0.0230143750 0 0
0.0176366640 -0.0239596150 0 0
0.0173709650 -0.0243116020 0 0
0.0177219710 -0.0240433290 0 0
0.0186962360 -0.0231888660 0 0
0.0202397560 -0.0218384590 0 0
0.0222345310 -0.0201289580 0 0
0.0245025230 -0.0182299510 0 0
0.0268227020 -0.0163266080 0 0
0.0289599140 -0.0146009920 0 0
0.0306974630 -0.0132136600 1 0
0.0318639600 -0.0122878950 1 0
0.0323492130 -0.0118988840 1 0
0.0321098600 -0.0120685340 1 0
0.0311687000 -0.0127649780 1 0
0.0296099010 -0.0139061320 0 0
0.0275689390 -0.0153676260 0 0
0.0252178100 -0.0169948450 0 0
0.0227505040 -0.0186176170 0 0
0.0203710300 -0.0200665820 0 0
0.0182805610 -0.0211908770 0 0
0.0166621650 -0.0218749730 0 0
0.0156645160 -0.0220508570 0 0
0.0153840290 -0.0217034470 0 0
0.0158474490 -0.0208699320 0 0
0.0170029900 -0.0196346140 0 0
0.0187260260 -0.0181201230 0 0
0.0208365400 -0.0164758160 0 0
0.0231208750 -0.0148642250 0 0
0.0253529990 -0.0134463260 0 0
0.0273142480 -0.0123666250 0 0
0.0288109540 -0.0117397400 0 0
0.0296896430 -0.0116399900 0 0
0.0298514490 -0.0120940620 0 0
0.0292671810 -0.0130762770 0 0
0.0279894510 -0.0145074990 0 0
0.0261536470 -0.0162602140 0 0
0.0239627420 -0.0181712420 0 0
0.0216602440 -0.0200601390 0 0
0.0195015830 -0.0217488100 0 0
0.0177299220 -0.0230786500 0 0
0.0165527570 -0.0239242680 0 0
0.0161159940 -0.0242043890 0 0
0.0164831070 -0.0238898610 0 0
0.0176289130 -0.0230077220 0 0
0.0194469450 -0.0216404250 0 0
0.0217631480 -0.0199197170 0 0
0.0243526630 -0.0180150850 0 0
0.0269620350 -0.0161176410 0 0
0.0293374220 -0.0144212720 0 0
0.0312532100 -0.0131033190 1 0
0.0325351580 -0.0123064440 1 0
0.0330765290 -0.0121225690 1 0
0.0328458550 -0.0125809570 1 0
0.0318842640 -0.0136438460 1 0
0.0302950080 -0.0152112410 1 0
0.0282318410 -0.0171334560 0 0
0.0258886060 -0.0192286660 0 0
0.0234860480 -0.0213025200 0 0
0.0212522290 -0.0231666380 0 0
0.0193984160 -0.0246537010 0 0
0.0180971960 -0.0256292100 0 0
0.0174694750 -0.0260017200 0 0
0.0175803070 -0.0257319280 0 0
0.0184377460 -0.0248381680 0 0
0.0199906750 -0.0233954900 0 0
0.0221267740 -0.0215279780 0 0
0.0246761140 -0.0193965090 0 0
0.0274252510 -0.0171845130 0 0
0.0301394690 -0.0150826140 1 0
0.0325876390 -0.0132720450 1 0
0.0345679890 -0.0119075510 1 0
0.0359314600 -0.0111014380 1 0
0.0365955490 -0.0109105310 1 0
0.0365464440 -0.0113282360 1 0
0.0358341220 -0.0122838270 1 0
0.0345646500 -0.0136497490 1 0
0.0328889680 -0.0152565010 1 0
0.0309858720 -0.0169136190 1 0
0.0290419590 -0.0184333750 0 0
0.0272348280 -0.0196525620 0 0
0.0257200300 -0.0204487590 0 0
0.0246178070 -0.0207498580 0 0
0.0240009090 -0.0205374280 0 0
0.0238878870 -0.0198449700 0 0
0.0242425160 -0.0187518550 0 0
0.0249787220 -0.0173737320 0 0
0.0259706550 -0.0158507720 0 0
0.0270661100 -0.0143350890 0 0
0.0281024270 -0.0129780890 0 0
0.0289246210 -0.0119182190 0 0
0.0294023260 -0.0112695910 0 0
0.0294417720 -0.0111115780 0 0
0.0289927470 -0.0114798360 0 0
0.0280523390 -0.0123605060 0 0
0.0266669670 -0.0136897140 0 0
0.0249328180 -0.0153586230 0 0
0.0229915160 -0.0172226330 0 0
0.0210163810 -0.0191136690 0 0
0.0191895130 -0.0208554170 0 0
0.0176767510 -0.0222806140 0 0
0.0166080850 -0.0232479520 0 0
0.0160656360 -0.0236562780 0 0
0.0160774960 -0.0234555430 0 0
0.0166163830 -0.0226542250 0 0
0.0176030640 -0.0213216410 0 0
0.0189143830 -0.0195833960 0 0
0.0203959650 -0.0176095600 0 0
0.0218788180 -0.0155969040 0 0
0.0231975090 -0.0137476730 0 0
0.0242075610 -0.0122478320 0 0
0.0247996740 -0.0112469130 0 0
0.0249070670 -0.0108407090 0 0
0.0245048940 -0.0110592660 0 0
0.0236074640 -0.0118641180 0 0
0.0222692300 -0.0131565500 0 0
0.0205872200 -0.0147938440 0 0
0.0186984080 -0.0166078510 0 0
0.0167708840 -0.0184221810 0 0
0.0149914770 -0.0200671170 0 0
0.0135494110 -0.0213926350 0 0
0.0126148190 -0.0222801340 0 0
0.0123162870 -0.0226523840 0 0
0.0127237400 -0.0224794440 0 0
0.0138386700 -0.0217792570 0 0
0.0155911040 -0.0206141230 0 0
0.0178444830 -0.0190849710 0 0
0.0204097410 -0.0173245790 0 0
0.0230662980 -0.0154896980 0 0
0.0255856740 -0.0137506010 0 0
0.0277555170 -0.0122761690 0 0
0.0294027990 -0.0112152580 0 0
0.0304116860 -0.0106786370 1 0
0.0307315530 -0.0107259570 1 0
0.0303766360 -0.0113593370 1 0
0.0294218590 -0.0125233710 0 0
0.0279964250 -0.0141112790 0 0
0.0262735820 -0.0159763250 0 0
0.0244539150 -0.0179463230 0 0
0.0227417740 -0.0198393520 0 0
0.0213204490 -0.0214798540 0 0
0.0203336720 -0.0227143940 0 0
0.0198757210 -0.0234260860 0 0
0.0199882600 -0.0235467040 0 0
0.0206613040 -0.0230655060 0 0
0.0218353020 -0.0220335610 0 0
0.0234040550 -0.0205617340 0 0
0.0252226690 -0.0188107900 0 0
0.0271224740 -0.0169742740 0 0
0.0289283000 -0.0152570430 0 0
0.0304735540 -0.0138525340 1 0
0.0316139310 -0.0129208470 1 0
0.0322419540 -0.0125699430 1 0
0.0323006420 -0.0128433840 1 0
0.0317919600 -0.0137168320 1 0
0.0307786370 -0.0151021650 1 0
0.0293816640 -0.0168569630 0 0
0.0277727910 -0.0187988350 0 0
0.0261572160 -0.0207251940 0 0
0.0247473310 -0.0224371930 0 0
0.0237369810 -0.0237632980 0 0
0.0232821310 -0.0245775600 0 0
0.0234851120 -0.0248103560 0 0
0.0243813160 -0.0244518560 0 0
0.0259328770 -0.0235496820 0 0
0.0280315480 -0.0222024140 0 0
0.0305090270 -0.0205498910 1 0
0.0331532140 -0.0187603650 1 0
0.0357286110 -0.0170150760 1 0
0.0379982800 -0.0154919230 1 0
0.0397466220 -0.0143497740 1 0
0.0408026860 -0.0137136050 1 0
0.0410606720 -0.0136607800 1 0
0.0404928500 -0.0142105730 1 0
0.0391520220 -0.0153200540 1 0
0.0371628850 -0.0168881390 1 0
0.0347044490 -0.0187669350 1 0
0.0319886590 -0.0207775290 1 0
0.0292400300 -0.0227277970 0 0
0.0266775080 -0.0244314510 0 0
0.0244967500 -0.0257271210 0 0
0.0228510960 -0.0264945130 0 0
0.0218341210 -0.0266649850 0 0
0.0214710300 -0.0262261710 0 0
0.0217228880 -0.0252217640 0 0
0.0224998340 -0.0237472550 0 0
0.0236756510 -0.0219417020 0 0
0.0250984930 -0.0199756840 0 0
0.0265978140 -0.0180361690 0 0
0.0279915220 -0.0163096060 0 0
0.0290976330 -0.0149650030 0 0
0.0297521300 -0.0141386270 0 0
0.0298305230 -0.0139211620 0 0
0.0292669650 -0.0143479070 0 0
0.0280644870 -0.0153931560 0 0
0.0262939220 -0.0169701170 0 0
0.0240846300 -0.0189371840 0 0
0.0216119190 -0.0211102860 0 0
0.0190825710 -0.0232801860 0 0
0.0167165500 -0.0252336070 0 0
0.0147243850 -0.0267766400 0 0
0.0132834960 -0.0277569880 0 0
0.0125184190 -0.0280806200 0 0
0.0124881110 -0.0277199850 0 0
0.0131797810 -0.0267136890 0 0
0.0145080290 -0.0251594600 0 0
0.0163213280 -0.0232030810 0 0
0.0184186640 -0.0210256340 0 0
0.0205741750 -0.0188297630 0 0
0.0225635440 -0.0168240820 0 0
0.0241876260 -0.0152049740 0 0
0.0252910780 -0.0141369330 0 0
0.0257733300 -0.0137345320 0 0
0.0255914490 -0.0140492240 0 0
0.0247592180 -0.0150625820 0 0
0.0233455360 -0.0166861520 0 0
0.0214700430 -0.0187680180 0 0
0.0192931540 -0.0211066880 0 0
0.0170011510 -0.0234720700 0 0
0.0147893100 -0.0256311720 0 0
0.0128451300 -0.0273744100 0 0
0.0113312220 -0.0285383480 0 0
0.0103678730 -0.0290218480 0 0
0.0100189700 -0.0287940180 0 0
0.0102846940 -0.0278938600 0 0
0.0111009910 -0.0264230270 0 0
0.0123469290 -0.0245333750 0 0
0.0138618330 -0.0224102140 0 0
0.0154676990 -0.0202528450 0 0
0.0169888010 -0.0182555730 0 0
0.0182654360 -0.0165919710 0 0
0.0191637560 -0.0154022120 0 0
0.0195841780 -0.0147817610 0 0
0.0194696480 -0.0147713920 0 0
0.0188137440 -0.0153512130 0 0
0.0176671060 -0.0164418310 0 0
0.0161386740 -0.0179138560 0 0
0.0143880760 -0.0196036670 0 0
0.0126091070 -0.0213312580 0 0
0.0110082090 -0.0229171800 0 0
0.0097819380 -0.0241982710 0 0
0.0090950950 -0.0250426200 0 0
0.0090619230 -0.0253627740 0 0
0.0097348610 -0.0251247360 0 0
0.0111008200 -0.0243509610 0 0
0.0130795390 -0.0231178100 0 0
0.0155228270 -0.0215483000 0 0
0.0182215310 -0.0197999560 0 0
0.0209267300 -0.0180480660 0 0
0.0233822210 -0.0164666700 0 0
0.0253570240 -0.0152107570 0 0
0.0266692640 -0.0144024280 0 0
0.0272019460 -0.0141214080 0 0
0.0269138680 -0.0143989750 0 0
0.0258451930 -0.0152154870 0 0
0.0241158300 -0.0165024300 0 0
0.0219150170 -0.0181489130 0 0
0.0194801860 -0.0200114190 0 0
0.0170666990 -0.0219262800 0 0
0.0149161140 -0.0237246590 0 0
0.0132318720 -0.0252484200 0 0
0.0121652240 -0.0263646060 0 0
0.0118073220 -0.0269778000 0 0
0.0121836970 -0.0270400440 0 0
0.0132523870 -0.0265568310 0 0
0.0149085970 -0.0255877650 0 0
0.0169954710 -0.0242419600 0 0
0.0193173070 -0.0226685730 0 0
0.0216531690 -0.0210427350 0 0
0.0237728130 -0.0195480890 0 0
0.0254566210 -0.0183577580 0 0
0.0265178330 -0.0176152900 0 0
0.0268240190 -0.0174174320 0 0
0.0263144900 -0.0178008930 0 0
0.0250095440 -0.0187349520 0 0
0.0230099630 -0.0201219910 0 0
0.0204884720 -0.0218079240 0 0
0.0176740050 -0.0236017210 0 0
0.0148283960 -0.0252996310 0 0
0.0122182120 -0.0267090310 0 0
0.0100867990 -0.0276686980 0 0
0.0086295720 -0.0280641320 0 0
0.0079746010 -0.0278368940 0 0
0.0081706560 -0.0269874820 0 0
0.0091808360 -0.0255730030 0 0
0.0108799600 -0.0237018680 0 0
0.0130620500 -0.0215258640 0 0
0.0154651480 -0.0192279590 0 0
0.0178102190 -0.0170051090 0 0
0.0198419890 -0.0150482250 0 0
0.0213591380 -0.0135229020 0 0
0.0222290960 -0.0125535820 0 0
0.0223919910 -0.0122120040 0 0
0.0218591840 -0.0125102910 0 0
0.0207072000 -0.0133993200 0 0
0.0190672810 -0.0147726690 0 0
0.0171117420 -0.0164758580 0 0
0.0150368860 -0.0183202970 0 0
0.0130433780 -0.0201012080 0 0
0.0113186920 -0.0216180390 0 0
0.0100252060 -0.0226951030 0 0
0.0092908280 -0.0232002360 0 0
0.0091965390 -0.0230589760 0 0
0.0097624600 -0.0222615810 0 0
0.0109403690 -0.0208620680 0 0
0.0126167770 -0.0189710750 0 0
0.0146255660 -0.0167448750 0 0
0.0167685900 -0.0143712130 0 0
0.0188404070 -0.0120515760 0 0
0.0206501390 -0.0099814040 0 0
0.0220360920 -0.0083316770 0 0
0.0228746970 -0.0072338320 0 0
0.0230871140 -0.0067675930 0 0
0.0226443080 -0.0069519060 0 0
0.0215701940 -0.0077415460 0 0
0.0199431780 -0.0090319250 0 0
0.0178955730 -0.0106714310 0 0
0.0156080210 -0.0124784340 0 0
0.0132956880 -0.0142607350 0 0
0.0111861170 -0.0158357700 0 0
0.0094923290 -0.0170489430 0 0
0.0083865430 -0.0177872260 0 0
0.0079799920 -0.0179866710 0 0
0.0083124160 -0.0176342250 0 0
0.0093510150 -0.0167652070 0 0
0.0109970120 -0.0154584730 0 0
0.0130983240 -0.0138307030 0 0
0.0154654280 -0.0120290490 0 0
0.0178868190 -0.0102206610 0 0
0.0201443660 -0.0085789680 0 0
0.0220316220 -0.0072673980 0 0
0.0233746600 -0.0064221400 0 0
0.0240511830 -0.0061368600 0 0
0.0240046340 -0.0064520760 0 0
0.0232520590 -0.0073501960 0 0
0.0218839750 -0.0087564300 0 0
0.0200546370 -0.0105456830 0 0
0.0179641150 -0.0125545990 0 0
0.0158366100 -0.0145973470 0 0
0.0138992790 -0.0164838200 0 0
0.0123625890 -0.0180382850 0 0
0.0114004170 -0.0191164430 0 0
0.0111297560 -0.0196197670 0 0
0.0115938430 -0.0195056070 0 0
0.0127537700 -0.0187909480 0 0
0.0144911210 -0.0175496170 0 0
0.0166211090 -0.0159044230 0 0
0.0189144870 -0.0140154230 0 0
0.0211259260 -0.0120647280 0 0
0.0230238310 -0.0102388070 0 0
0.0244146750 -0.0087104840 0 0
0.0251584070 -0.0076227590 0 0
0.0251762420 -0.0070749110 0 0
0.0244533340 -0.0071107980 0 0
0.0230381190 -0.0077112020 0 0
0.0210392480 -0.0087934340 0 0
0.0186191280 -0.0102199640 0 0
0.0159816930 -0.0118149620 0 0
0.0133537200 -0.0133855810 0 0
0.0109620040 -0.0147439020 0 0
0.0090099150 -0.0157263620 0 0
0.0076563720 -0.0162093440 0 0
0.0070002040 -0.0161203240 0 0
0.0070733860 -0.0154443280 0 0
0.0078438330 -0.0142256530 0 0
0.0092237640 -0.0125643510 0 0
0.0110797770 -0.0106070120 0 0
0.0132443950 -0.0085327750 0 0
0.0155288210 -0.0065363170 0 0
0.0177358840 -0.0048091810 0 0
0.0196752980 -0.0035205020 0 0
0.0211831020 -0.0027994720 0 0
0.0221413050 -0.0027227130 0 0
0.0224919010 -0.0033076810 0 0
0.0222428350 -0.0045106960 0 0
0.0214665030 -0.0062290110 0 0
0.0202922030 -0.0083085630 0 0
0.0188925620 -0.0105585700 0 0
0.0174630340 -0.0127713940 0 0
0.0161964600 -0.0147438300 0 0
0.0152584190 -0.0162962930 0 0
0.0147692600 -0.0172888650 0 0
0.0147954640 -0.0176346300 0 0
0.0153485900 -0.0173093030 0 0
0.0163880350 -0.0163540660 0 0
0.0178257680 -0.0148695070 0 0
0.0195337090 -0.0130023130 0 0
0.0213537370 -0.0109288220 0 0
0.0231087480 -0.0088382200 0 0
0.0246156200 -0.0069161250 0 0
0.0257033560 -0.0053290180 0 0
0.0262354790 -0.0042102660 0 0
0.0261295550 -0.0036483290 0 0
0.0253680770 -0.0036782050 0 0
0.0240008000 -0.0042779450 0 0
0.0221398780 -0.0053711890 0 0
0.0199469890 -0.0068347790 0 0
0.0176127630 -0.0085105940 0 0
0.0153329530 -0.0102216900 0 0
0.0132879690 -0.0117912870 0 0
0.0116297170 -0.0130610190 0 0
0.0104741990 -0.0139058950 0 0
0.0098952460 -0.0142457550 0 0
0.0099171930 -0.0140532080 0 0
0.0105081410 -0.0133568650 0 0
0.0115775460 -0.0122387690 0 0
0.0129827850 -0.0108265210 0 0
0.0145462870 -0.0092809150 0 0
0.0160781490 -0.0077791790 0 0
0.0173978570 -0.0064951970 0 0
0.0183523270 -0.0055801440 0 0
0.0188289720 -0.0051462730 0 0
0.0187636920 -0.0052547270 0 0
0.0181454170 -0.0059085490 0 0
0.0170171230 -0.0070533220 0 0
0.0154718520 -0.0085861770 0 0
0.0136441010 -0.0103700730 0 0
0.0116972410 -0.0122492550 0 0
0.0098070560 -0.0140637710 0 0
0.0081435090 -0.0156623230 0 0
0.0068539310 -0.0169133970 0 0
0.0060494730 -0.0177149010 0 0
0.0057959870 -0.0180022920 0 0
0.0061100900 -0.0177546280 0 0
0.0069595950 -0.0169974750 0 0
0.0082665590 -0.0158017090 0 0
0.0099121030 -0.0142780440 0 0
0.0117442170 -0.0125675680 0 0
0.0135897500 -0.0108288960 0 0
0.0152689630 -0.0092231480 0 0
0.0166101850 -0.0078983990 0 0
0.0174646750 -0.0069750250 0 0
0.0177232680 -0.0065330630 0 0
0.0173335480 -0.0066033650 0 0
0.0163113420 -0.0071645450 0 0
0.0147407850 -0.0081463960 0 0
0.0127647580 -0.0094385920 0 0
0.0105708850 -0.0109025010 0 0
0.0083729000 -0.0123842920 0 0
0.0063854950 -0.0137285550 0 0
0.0047979420 -0.0147919880 0 0
0.0037551030 -0.0154562080 0 0
0.0033476740 -0.0156387200 0 0
0.0036072550 -0.0153014910 0 0
0.0045041280 -0.0144565010 0 0
0.0059503050 -0.0131671040 0 0
0.0078099840 -0.0115437900 0 0
0.0099152500 -0.0097341070 0 0
0.0120821340 -0.0079084460 0 0
0.0141230750 -0.0062440140 0 0
0.0158566170 -0.0049078730 0 0
0.0171197950 -0.0040390470 0 0
0.0177864580 -0.0037312720 0 0
0.0177864300 -0.0040202970 0 0
0.0171169990 -0.0048795560 0 0
0.0158434870 -0.0062248990 0 0
0.0140908110 -0.0079257600 0 0
0.0120288590 -0.0098197710 0 0
0.0098553710 -0.0117294200 0 0
0.0077791880 -0.0134795290 0 0
0.0060031090 -0.0149134400 0 0
0.0047055190 -0.0159059420 0 0
0.0040229690 -0.0163723090 0 0
0.0040359700 -0.0162736820 0 0
0.0047590980 -0.0156188430 0 0
0.0061365600 -0.0144627440 0 0
0.0080441660 -0.0129026390 0 0
0.0102991530 -0.0110718240 0 0
0.0126793570 -0.0091300880 0 0
0.0149495760 -0.0072511260 0 0
0.0168883020 -0.0056083830 0 0
0.0183088390 -0.0043599300 0 0
0.0190751170 -0.0036320200 0 0
0.0191159550 -0.0035025970 0 0
0.0184373730 -0.0039885110 0 0
0.0171266320 -0.0050402060 0 0
0.0153425090 -0.0065456040 0 0
0.0132943290 -0.0083430520 0 0
0.0112172060 -0.0102415880 0 0
0.0093469850 -0.0120443860 0 0
0.0078957750 -0.0135705770 0 0
0.0070312680 -0.0146732040 0 0
0.0068616600 -0.0152534470 0 0
0.0074252020 -0.0152703420 0 0
0.0086851250 -0.0147439930 0 0
0.0105320680 -0.0137511560 0 0
0.0127939770 -0.0124143600 0 0
0.0152526110 -0.0108874410 0 0
0.0176664950 -0.0093404600 0 0
0.0197976220 -0.0079450120 0 0
0.0214365600 -0.0068588990 0 0
0.0224220190 -0.0062098350 0 0
0.0226530220 -0.0060800950 0 0
0.0220937920 -0.0064946130 0 0
0.0207744540 -0.0074148800 0 0
0.0187908860 -0.0087413050 0 0
0.0163014000 -0.0103252490 0 0
0.0135136530 -0.0119888550 0 0
0.0106611450 -0.0135488010 0 0
0.0079774370 -0.0148396490 0 0
0.0056749010 -0.0157328520 0 0
0.0039280750 -0.0161487570 0 0
0.0028607040 -0.0160604050 0 0
0.0025374010 -0.0154900710 0 0
0.0029585280 -0.0145016470 0 0
0.0040560280 -0.0131918690 0 0
0.0056933260 -0.0116813990 0 0
0.0076757890 -0.0101056830 0 0
0.0097725970 -0.0086058020 0 0
0.0117444700 -0.0073195340 0 0
0.0133717110 -0.0063717780 0 0
0.0144789080 -0.0058631110 0 0
0.0149525340 -0.0058571740 0 0
0.0147489740 -0.0063702220 0 0
0.0138943840 -0.0073664920 0 0
0.0124793930 -0.0087609200 0 0
0.0106488710 -0.0104284090 0 0
0.0085853930 -0.0122176660 0 0
0.0064884690 -0.0139670980 0 0
0.0045550820 -0.0155201730 0 0
0.0029647990 -0.0167389640 0 0
0.0018673510 -0.0175158710 0 0
0.0013701830 -0.0177827740 0 0
0.0015272170 -0.0175162290 0 0
0.0023313590 -0.0167386190 0 0
0.0037122340 -0.0155164960 0 0
0.0055405120 -0.0139567240 0 0
0.0076395180 -0.0121998790 0 0
0.0098030590 -0.0104102290 0 0
0.0118171960 -0.0087621480 0 0
0.0134826560 -0.0074234220 0 0
0.0146344700 -0.0065367820 0 0
0.0151570620 -0.0062021840 0 0
0.0149954780 -0.0064629440 0 0
0.0141634340 -0.0072984170 0 0
0.0127458390 -0.0086246570 0 0
0.0108921500 -0.0103028550 0 0
0.0087992860 -0.0121543000 0 0
0.0066860440 -0.0139805710 0 0
0.0047646300 -0.0155868630 0 0
0.0032167270 -0.0168041940 0 0
0.0021780780 -0.0175064530 0 0
0.0017306020 -0.0176210940 0 0
0.0019002140 -0.0171340350 0 0
0.0026595640 -0.0160888740 0 0
0.0039349780 -0.0145809230 0 0
0.0056167260 -0.0127477440 0 0
0.0075708390 -0.0107569420 0 0
0.0096492080 -0.0087905140 0 0
0.0116967420 -0.0070264870 0 0
0.0135580240 -0.0056211880 0 0
0.0150863030 -0.0046953310 0 0
0.0161564740 -0.0043245840 0 0
0.0166817800 -0.0045334820 0 0
0.0166298760 -0.0052925210 0 0
0.0160317530 -0.0065200820 0 0
0.0149799960 -0.0080901610 0 0
0.0136171590 -0.0098444980 0 0
0.0121179840 -0.0116073620 0 0
0.0106698440 -0.0132026120 0 0
0.0094533340 -0.0144722150 0 0
0.0086229150 -0.0152932360 0 0
0.0082895650 -0.0155896900 0 0
0.0085089910 -0.0153377550 0 0
0.0092774810 -0.0145652650 0 0
0.0105351000 -0.0133475200 0 0
0.0121724630 -0.0118008730 0 0
0.0140375660 -0.0100738510 0 0
0.0159462670 -0.0083348130 0 0
0.0177026360 -0.0067566540 0 0
0.0191263280 -0.0055005920 0 0
0.0200771180 -0.0047008060 0 0
0.0204717390 -0.0044508080 0 0
0.0202932490 -0.0047927520 0 0
0.0195897800 -0.0057114360 0 0
0.0184612570 -0.0071340710 0 0
0.0170421870 -0.0089360140 0 0
0.0154886230 -0.0109525380 0 0
0.0139680040 -0.0129958170 0 0
0.0126471910 -0.0148750760 0 0
0.0116774760 -0.0164172220 0 0
0.0111786460 -0.0174847380 0 0
0.0112253100 -0.0179880160 0 0
0.0118388080 -0.0178913190 0 0
0.0129867030 -0.0172133440 0 0
0.0145874780 -0.0160239050 0 0
0.0165145890 -0.0144376660 0 0
0.0185989720 -0.0126044770 0 0
0.0206373920 -0.0106950870 0 0
0.0224120200 -0.0088830730 0 0
0.0237169450 -0.0073270110 0 0
0.0243840450 -0.0061566170 0 0
0.0243039300 -0.0054630520 0 0
0.0234398760 -0.0052916550 0 0
0.0218333520 -0.0056373640 0 0
0.0195998940 -0.0064447120 0 0
0.0169153410 -0.0076131820 0 0
0.0139963770 -0.0090071740 0 0
0.0110802480 -0.0104697370 0 0
0.0084054380 -0.0118388140 0 0
0.0061933450 -0.0129637700 0 0
0.0046306800 -0.0137201640 0 0
0.0038520010 -0.0140217520 0 0
0.0039234900 -0.0138288910 0 0
0.0048322560 -0.0131523870 0 0
0.0064856750 -0.0120526920 0 0
0.0087212710 -0.0106349990 0 0
0.0113239850 -0.0090401910 0 0
0.0140475680 -0.0074309430 0 0
0.0166379820 -0.0059738800 0 0
0.0188568000 -0.0048211740 0 0
0.0205025300 -0.0040950670 0 0
0.0214289030 -0.0038768210 0 0
0.0215603240 -0.0042003720 0 0
0.0209028610 -0.0050502690 0 0
0.0195458360 -0.0063628720 0 0
0.0176504000 -0.0080303130 0 0
0.0154270770 -0.0099082660 0 0
0.0131096570 -0.0118285970 0 0
0.0109331580 -0.0136160890 0 0
0.0091161450 -0.0151066300 0 0
0.0078413600 -0.0161643320 0 0
0.0072339850 -0.0166962030 0 0
0.0073454420 -0.0166630980 0 0
0.0081487700 -0.0160854110 0 0
0.0095441240 -0.0150426930 0 0
0.0113707510 -0.0136667920 0 0
0.0134234070 -0.0121281080 0 0
0.0154729960 -0.0106156720 0 0
0.0172921140 -0.0093141800 0 0
0.0186832740 -0.0083829010 0 0
0.0195025740 -0.0079404180 0 0
0.0196716220 -0.0080557190 0 0
0.0191772080 -0.0087439690 0 0
0.0180652370 -0.0099659270 0 0
0.0164355510 -0.0116311970 0 0
0.0144368250 -0.0136060240 0 0
0.0122547810 -0.0157256920 0 0
0.0100903200 -0.0178103610 0 0
0.0081335300 -0.0196823390 0 0
0.0065436520 -0.0211829530 0 0
0.0054385460 -0.0221879280 0 0
0.0048894470 -0.0226203920 0 0
0.0049174800 -0.0224596990 0 0
0.0054926400 -0.0217438100 0 0
0.0065355870 -0.0205646700 0 0
0.0079213130 -0.0190582490 0 0
0.0094867320 -0.0173911120 0 0
0.0110459400 -0.0157443720 0 0
0.0124120340 -0.0142961740 0 0
0.0134188790 -0.0132046010 0 0
0.0139378450 -0.0125923740 0 0
0.0138898210 -0.0125347050 0 0
0.0132540520 -0.0130524020 0 0
0.0120726870 -0.0141112500 0 0
0.0104479030 -0.0156266620 0 0
0.0085299260 -0.0174724350 0 0
0.0064982040 -0.0194933680 0 0
0.0045409090 -0.0215208670 0 0
0.0028369740 -0.0233894300 0 0
0.0015416430 -0.0249518680 0 0
0.0007750290 -0.0260921230 0 0
0.0006137520 -0.0267347810 0 0
0.0010855610 -0.0268508490 0 0
0.0021661910 -0.0264600170 0 0
0.0037791110 -0.0256291230 0 0
0.0058005960 -0.0244659470 0 0
0.0080704190 -0.0231081460 0 0
0.0104051640 -0.0217089570 0 0
0.0126125270 -0.0204223800 0 0
0.0145067740 -0.0193892360 0 0
0.0159250450 -0.0187240670 0 0
0.0167460640 -0.0185037790 0 0
0.0169116460 -0.0187594880 0 0
0.0164418310 -0.0194719080 0 0
0.0154325350 -0.0205705800 0 0
0.0140377590 -0.0219386110 0 0
0.0124463560 -0.0234244310 0 0
0.0108590670 -0.0248597580 0 0
0.0094678110 -0.0260804470 0 0
0.0084384920 -0.0269457650 0 0
0.0078964820 -0.0273528600 0 0
0.0079143260 -0.0272458530 0 0
0.0085052120 -0.0266205170 0 0
0.0096256810 -0.0255251430 0 0
0.0111851130 -0.0240572050 0 0
0.0130560220 -0.0223553880 0 0
0.0150827910 -0.0205873560 0 0
0.0170916850 -0.0189340140 0 0
0.0189049900 -0.0175714390 0 0
0.0203586490 -0.0166523990 0 0
0.0213203850 -0.0162895390 0 0
0.0217036560 -0.0165421480 0 0
0.0214742770 -0.0174084530 0 0
0.0206521360 -0.0188250250 0 0
0.0193113190 -0.0206733120 0 0
0.0175756760 -0.0227914810 0 0
0.0156049230 -0.0249897540 0 0
0.0135732110 -0.0270689910 0 0
0.0116482620 -0.0288415290 0 0
0.0099772100 -0.0301505420 0 -1
0.0086789620 -0.0308840950 0 -1
0.0078394930 -0.0309830660 0 -1
0.0075081660 -0.0304443390 0 -1
0.0076950040 -0.0293202560 0 0
0.0083680810 -0.0277141250 0 0
0.0094506540 -0.0257715860 0 0
0.0108213610 -0.0236681310 0 0
0.0123227490 -0.0215931270 0 0
0.0137795570 -0.0197319340 0 0
0.0150213180 -0.0182492730 0 0
0.0159006730 -0.0172757870 0 0
0.0163036310 -0.0168970230 0 0
0.0161559190 -0.0171441230 0 0
0.0154308330 -0.0179876530 0 0
0.0141576290 -0.0193373800 0 0
0.0124246830 -0.0210503640 0 0
0.0103741890 -0.0229470700 0 0
0.0081894950 -0.0248321750 0 0
0.0060766220 -0.0265161800 0 0
0.0042416280 -0.0278350320 0 0
0.0028670590 -0.0286659610 0 0
0.0020907940 -0.0289384290 0 0
0.0019901150 -0.0286396330 0 0
0.0025733770 -0.0278140280 0 0
0.0037797260 -0.0265569150 0 0
0.0054853800 -0.0250033920 0 0
0.0075145960 -0.0233142260 0 0
0.0096546330 -0.0216598530 0 0
0.0116761210 -0.0202034920 0 0
0.0133595530 -0.0190843810 0 0
0.0145239980 -0.0184030580 0 0
0.0150505510 -0.0182113330 0 0
0.0148945590 -0.0185088380 0 0
0.0140864270 -0.0192462270 0 0
0.0127254690 -0.0203328480 0 0
0.0109692950 -0.0216461050 0 0
0.0090165620 -0.0230418220 0 0
0.0070823420 -0.0243664790 0 0
0.0053715810 -0.0254718870 0 0
0.0040577900 -0.0262315530 0 0
0.0032686980 -0.0265558930 0 0
0.0030772200 -0.0264022730 0 0
0.0034982320 -0.0257777480 0 0
0.0044914040 -0.0247354240 0 0
0.0059668030 -0.0233667670 0 0
0.0077908700 -0.0217922910 0 0
0.0097943420 -0.0201522110 0 0
0.0117848360 -0.0185964620 0 0
0.0135653150 -0.0172722890 0 0
0.0149570960 -0.0163096590 0 0
0.0158228720 -0.0158072560 0 0
0.0160838790 -0.0158220420 0 0
0.0157277470 -0.0163637310 0 0
0.0148066450 -0.0173937130 0 0
0.0134280540 -0.0188277000 0 0
0.0117427050 -0.0205422910 0 0
0.0099325270 -0.0223858890 0 0
0.0081968600 -0.0241932520 0 0
0.0067340520 -0.0258018220 0 0
0.0057185830 -0.0270678700 0 0
0.0052778270 -0.0278810140 0 0
0.0054757350 -0.0281758020 0 0
0.0063083530 -0.0279387380 0 0
0.0077096600 -0.0272093570 0 0
0.0095641970 -0.0260753030 0 0
0.0117231590 -0.0246621740 0 0
0.0140200460 -0.0231187320 0 0
0.0162841940 -0.0215992390 0 0
0.0183519150 -0.0202470420 0 0
0.0200738540 -0.0191829280 0 0
0.0213197930 -0.0184978800 0 0
0.0219858770 -0.0182477110 0 0
0.0220073290 -0.0184486540 0 0
0.0213737800 -0.0190752130 0 0
0.0201404330 -0.0200615210 0 0
0.0184296250 -0.0213066280 0 0
0.0164219700 -0.0226838530 0 0
0.0143379710 -0.0240535480 0 0
0.0124109950 -0.0252770910 0 0
0.0108560130 -0.0262300980 0 0
0.0098417270 -0.0268139520 0 0
0.0094717300 -0.0269650890 0 0
0.0097762900 -0.0266617470 0 0
0.0107131700 -0.0259279900 0 0
0.0121748410 -0.0248335430 0 0
0.0140014880 -0.0234876960 0 0
0.0160000650 -0.0220274560 0 0
0.0179660260 -0.0206023640 0 0
0.0197030250 -0.0193587900 0 0
0.0210399650 -0.0184251880 0 0
0.0218466010 -0.0178991250 0 0
0.0220462790 -0.0178377860 0 0
0.0216234400 -0.0182537160 0 0
0.0206253150 -0.0191155490 0 0
0.0191575860 -0.0203518860 0 0
0.0173735010 -0.0218566380 0 0
0.0154570440 -0.0234954210 0 0
0.0136022930 -0.0251146770 0 0
0.0119919910 -0.0265552600 0 0
0.0107794220 -0.0276688900 0 0
0.0100771440 -0.0283338120 0 0
0.0099523260 -0.0284675670 0 0
0.0104243680 -0.0280361760 0 0
0.0114608830 -0.0270590170 0 0
0.0129732630 -0.0256087610 0 0
0.0148176230 -0.0238065310 0 0
0.0168060020 -0.0218122700 0 0
0.0187273720 -0.0198101340 0 0
0.0203730900 -0.0179904120 0 0
0.0215609860 -0.0165307430 0 0
0.0221549850 -0.0155785410 0 0
0.0220784890 -0.0152359130 0 0
0.0213203080 -0.0155490050 0 0
0.0199334640 -0.0165032880 0 0
0.0180278730 -0.0180245710 0 0
0.0157579490 -0.0199846600 0 0
0.0133072280 -0.0222111720 0 0
0.0108723540 -0.0245019540 0 0
0.0086479730 -0.0266443250 0 0
0.0068124460 -0.0284377210 0 0
0.0055133570 -0.0297163400 0 0
0.0048531550 -0.0303677120 0 -1
0.0048770260 -0.0303443740 0 -1
0.0055654080 -0.0296674100 0 0
0.0068336180 -0.0284217240 0 0
0.0085402210 -0.0267440800 0 0
0.0105032710 -0.0248060690 0 0
0.0125215540 -0.0227948990 0 0
0.0143972970 -0.0208949520 0 0
0.0159559270 -0.0192720470 0 0
0.0170598920 -0.0180611640 0 0
0.0176174270 -0.0173572590 0 0
0.0175887340 -0.0172079000 0 0
0.0169902710 -0.0176070310 0 0
0.0158948430 -0.0184915400 0 0
0.0144245380 -0.0197440160 0 0
0.0127369100 -0.0212035940 0 0
0.0110075920 -0.0226835140 0 0
0.0094116310 -0.0239921830 0 0
0.0081051860 -0.0249548890 0 0
0.0072095400 -0.0254341670 0 0
0.0067984210 -0.0253469900 0 0
0.0068899550 -0.0246760130 0 0
0.0074463840 -0.0234715500 0 0
0.0083830370 -0.0218431510 0 0
0.0095829000 -0.0199440750 0 0
0.0109107120 -0.0179540100 0 0
0.0122231660 -0.0160623920 0 0
0.0133766480 -0.0144513930 0 0
0.0142365360 -0.0132783890 0 0
0.0146902280 -0.0126602610 0 0
0.0146612380 -0.0126623950 0 0
0.0141194610 -0.0132936310 0 0
0.0130852740 -0.0145064270 0 0
0.0116283510 -0.0162013420 0 0
0.0098626780 -0.0182359910 0 0
0.0079385390 -0.0204386650 0 0
0.0060310380 -0.0226250990 0 0
0.0043243530 -0.0246154540 0 0
0.0029926210 -0.0262492620 0 0
0.0021811750 -0.0273976380 0 0
0.0019918010 -0.0279728370 0 0
0.0024717350 -0.0279352180 0 0
0.0036043860 -0.0272976050 0 0
0.0053038120 -0.0261263750 0 0
0.0074184520 -0.0245378150 0 0
0.0097472950 -0.0226886330 0 0
0.0120653980 -0.0207609680 0 0
0.0141516470 -0.0189435820 0 0
0.0158129180 -0.0174116950 0 0
0.0169027490 -0.0163085120 0 0
0.0173348100 -0.0157314440 0 0
0.0170904630 -0.0157244670 0 0
0.0162185830 -0.0162758330 0 0
0.0148276340 -0.0173197730 0 0
0.0130727340 -0.0187421870 0 0
0.0111406670 -0.0203906210 0 0
0.0092335430 -0.0220875650 0 0
0.0075504550 -0.0236464590 0 0
0.0062676930 -0.0248908080 0 0
0.0055199730 -0.0256750760 0 0
0.0053861110 -0.0259033680 0 0
0.0058819760 -0.0255414120 0 0
0.0069604300 -0.0246191720 0 0
0.0085159720 -0.0232244550 0 0
0.0103937400 -0.0214903550 0 0
0.0124040700 -0.0195797200 0 0
0.0143427010 -0.0176690550 0 0
0.0160144380 -0.0159333980 0 0
0.0172554470 -0.0145325090 0 0
0.0179485980 -0.0135975420 0 0
0.0180304950 -0.0132183830 0 0
0.0174940130 -0.0134342540 0 0
0.0163898390 -0.0142298160 0 0
0.0148257690 -0.0155363850 0 0
0.0129594210 -0.0172372970 0 0
0.0109819640 -0.0191780940 0 0
0.0090959420 -0.0211818880 0 0
0.0074933200 -0.0230674900 0 0
0.0063383300 -0.0246670420 0 0
0.0057566140 -0.0258414580 0 0
0.0058289080 -0.0264929040 0 0
0.0065854870 -0.0265735300 0 0
0.0080000780 -0.0260898830 0 0
0.0099859390 -0.0251026030 0 0
0.0123978190 -0.0237211120 0 0
0.0150422620 -0.0220933660 0 0
0.0176960940 -0.0203914910 0 0
0.0201296880 -0.0187947890 0 0
0.0221305970 -0.0174717900 0 0
0.0235252660 -0.0165627200 0 0
0.0241975210 -0.0161642570 0 0
0.0241013700 -0.0163192240 0 0
0.0232663860 -0.0170126850 0 0
0.0217958280 -0.0181737990 0 0
0.0198575410 -0.0196822470 0 0
0.0176672640 -0.0213787730 0 0
0.0154650270 -0.0230799730 0 0
0.0134871150 -0.0245971300 0 0
0.0119383050 -0.0257573550 0 0
0.0109702730 -0.0264239980 0 0
0.0106699470 -0.0265131280 0 0
0.0110573840 -0.0260035060 0 0
0.0120892880 -0.0249387020 0 0
0.0136641860 -0.0234217710 0 0
0.0156291340 -0.0216042440 0 0
0.0177911570 -0.0196707640 0 0
0.0199350640 -0.0178199520 0 0
0.0218444020 -0.0162430780 0 0
0.0233205110 -0.0151036850 0 0
0.0241988530 -0.0145217150 0 0
0.0243665910 -0.0145639070 0 0
0.0237833740 -0.0152392590 0 0
0.0224985520 -0.0164978770 0 0
0.0206516140 -0.0182338270 0 0
0.0184495630 -0.0202939540 0 0
0.0161310140 -0.0224929330 0 0
0.0139331310 -0.0246326880 0 0
0.0120683570 -0.0265233610 0 0
0.0107087670 -0.0280029090 0 0
0.0099751020 -0.0289527370 0 0
0.0099298080 -0.0293077420 0 0
0.0105741460 -0.0290603520 0 0
0.0118484130 -0.0282584060 0 0
0.0136343580 -0.0269971870 0 0
0.0157624170 -0.0254075570 0 0
0.0180269370 -0.0236433910 0 0
0.0202072610 -0.0218699870 0 0
0.0220904570 -0.0202523640 0 0
0.0234940990 -0.0189420230 0 0
0.0242861900 -0.0180628290 0 0
0.0243961630 -0.0176983540 0 0
0.0238153670 -0.0178831670 0 0
0.0225926080 -0.0185995610 0 0
0.0208288490 -0.0197792080 0 0
0.0186695530 -0.0213085990 0 0
0.0162930320 -0.0230381500 0 0
0.0138960840 -0.0247947980 0 0
0.0116783870 -0.0263969170 0 0
0.0098265680 -0.0276704720 0 0
0.0084989780 -0.0284657600 0 0
0.0078119080 -0.0286736120 0 0
0.0078278410 -0.0282396660 0 0
0.0085468490 -0.0271748510 0 0
0.0099031600 -0.0255589130 0 0
0.0117696450 -0.0235341300 0 0
0.0139711470 -0.0212894040 0 0
0.0163040090 -0.0190379450 0 0
0.0185576290 -0.0169924870 0 0
0.0205343530 -0.0153416140 0 0
0.0220652410 -0.0142308830 0 0
0.0230215600 -0.0137511220 0 0
0.0233242650 -0.0139329850 0 0
0.0229538220 -0.0147458180 0 0
0.0219586180 -0.0161005470 0 0
0.0204555490 -0.0178570440 0 0
0.0186182310 -0.0198358450 0 0
0.0166554810 -0.0218336870 0 0
0.0147866490 -0.0236420800 0 0
0.0132175330 -0.0250683150 0 0
0.0121173740 -0.0259575590 0 0
0.0115992680 -0.0262120240 0 0
0.0117081480 -0.0258023910 0 0
0.0124178100 -0.0247692580 0 0
0.0136360070 -0.0232154510 0 0
0.0152165520 -0.0212916610 0 0
0.0169764370 -0.0191786850 0 0
0.0187152480 -0.0170690990 0 0
0.0202349490 -0.0151502330 0 0
0.0213582520 -0.0135894170 0 0
0.0219442210 -0.0125211660 0 0
0.0219018620 -0.0120354000 0 0
0.0212029820 -0.0121674930 0 0
0.0198918580 -0.0128926800 0 0
0.0180861050 -0.0141268090 0 0
0.0159647720 -0.0157340060 0 0
0.0137442720 -0.0175408330 0 0
0.0116481210 -0.0193554510 0 0
0.0098804630 -0.0209889380 0 0
0.0086098590 -0.0222751610 0 0
0.0079603520 -0.0230863420 0 0
0.0080033870 -0.0233434320 0 0
0.0087495740 -0.0230219490 0 0
0.0101437240 -0.0221539100 0 0
0.0120666750 -0.0208256170 0 0
0.0143459100 -0.0191705490 0 0
0.0167736990 -0.0173570370 0 0
0.0191285520 -0.0155711460 0 0
0.0211971060 -0.0139965320 0 0
0.0227958720 -0.0127944140 0 0
0.0237909120 -0.0120868860 0 0
0.0241114440 -0.0119454350 0 0
0.0237551370 -0.0123850330 0 0
0.0227860410 -0.0133637170 0 0
0.0213261130 -0.0147881340 0 0
0.0195401730 -0.0165246780 0 0
0.0176161380 -0.0184133990 0 0
0.0157455720 -0.0202819360 0 0
0.0141091280 -0.0219592060 0 0
0.0128671120 -0.0232897590 0 0
0.0121513870 -0.0241487920 0 0
0.0120551350 -0.0244565270 0 0
0.0126208430 -0.0241891470 0 0
0.0138289160 -0.0233829050 0 0
0.0155899350 -0.0221298450 0 0
0.0177457580 -0.0205667070 0 0
0.0200840500 -0.0188602830 0 0
0.0223650450 -0.0171914870 0 0
0.0243542300 -0.0157382960 0 0
0.0258535730 -0.0146576700 0 0
0.0267242430 -0.0140684460 0 0
0.0268956960 -0.0140386440 0 0
0.0263620360 -0.0145795640 0 0
0.0251735840 -0.0156460840 0 0
0.0234308540 -0.0171413150 0 0
0.0212796500 -0.0189252520 0 0
0.0189013470 -0.0208277580 0 0
0.0164973660 -0.0226648910 0 0
0.0142721640 -0.0242567830 0 0
0.0124168430 -0.0254453750 0 0
0.0110911200 -0.0261101830 0 0
0.0104033420 -0.0261803330 0 0
0.0103939290 -0.0256420710 0 0
0.0110289390 -0.0245411480 0 0
0.0122053320 -0.0229789030 0 0
0.0137649850 -0.0211018350 0 0
0.0155137190 -0.0190863110 0 0
0.0172414590 -0.0171210540 0 0
0.0187405410 -0.0153900640 0 0
0.0198229410 -0.0140570630 0 0
0.0203384150 -0.0132506100 0 0
0.0201917060 -0.0130501460 0 0
0.0193542570 -0.0134762250 0 0
0.0178674340 -0.0144885480 0 0
0.0158371440 -0.0159921370 0 0
0.0134219760 -0.0178485360 0 0
0.0108175130 -0.0198887410 0 0
0.0082383860 -0.0219274420 0 0
0.0058987820 -0.0237795730 0 0
0.0039927740 -0.0252785200 0 0
0.0026758130 -0.0262934990 0 0
0.0020482540 -0.0267430020 0 0
0.0021432140 -0.0266015080 0 0
0.0029234230 -0.0258988020 0 0
0.0042901880 -0.0247140960 0 0
0.0061011730 -0.0231679260 0 0
0.0081890390 -0.0214127110 0 0
0.0103751160 -0.0196208870 0 0
0.0124787630 -0.0179695840 0 0
0.0143273160 -0.0166224540 0 0
0.0157693590 -0.0157110650 0 0
0.0166894310 -0.0153193240 0 0
0.0170215050 -0.0154738510 0 0
0.0167593910 -0.0161422130 0 0
0.0159604700 -0.0172393890 0 0
0.0147388220 -0.0186405130 0 0
0.0132480960 -0.0201967860 0 0
0.0116599400 -0.0217521890 0 0
0.0101453000 -0.0231591300 0 0
0.0088617490 -0.0242909650 0 0
0.0079444680 -0.0250505540 0 0
0.0074966230 -0.0253758870 0 0
0.0075773710 -0.0252438620 0 0
0.0081905320 -0.0246719430 0 0
0.0092793220 -0.0237168990 0 0
0.0107298770 -0.0224705050 0 0
0.0123822330 -0.0210525400 0 0
0.0140464700 -0.0196014070 0 0
0.0155242470 -0.0182625240 0 0
0.0166368860 -0.0171748410 0 0
0.0172539960 -0.0164561210 0 0
0.0173100360 -0.0161885300 0 0
0.0168038610 -0.0164075470 0 0
0.0157887950 -0.0170972240 0 0
0.0143626070 -0.0181926680 0 0
0.0126615170 -0.0195884950 0 0
0.0108565340 -0.0211508920 0 0
0.0091453630 -0.0227308420 0 0
0.0077338260 -0.0241772040 0 0
0.0068070790 -0.0253495940 0 0
0.0064974110 -0.0261309630 0 0
0.0068600420 -0.0264388120 0 0
0.0078675440 -0.0262334050 0 0
0.0094229320 -0.0255219410 0 0
0.0113814580 -0.0243585370 0 0
0.0135729150 -0.0228404040 0 0
0.0158212870 -0.0211006320 0 0
0.0179582160 -0.0192977430 0 0
0.0198276180 -0.0176022920 0 0
0.0212855860 -0.0161812350 0 0
0.0222046180 -0.0151803840 0 0
0.0224874500 -0.0147058860 0 0
0.0220861320 -0.0148084000 0 0
0.0210156150 -0.0154746040 0 0
0.0193558740 -0.0166281210 0 0
0.0172459330 -0.0181393620 0 0
0.0148729450 -0.0198424970 0 0
0.0124536280 -0.0215558300 0 0
0.0102085190 -0.0231010190 0 0
0.0083372130 -0.0243189880 0 0
0.0070007750 -0.0250832850 0 0
0.0063097230 -0.0253115820 0 0
0.0063138970 -0.0249744780 0 0
0.0069941940 -0.0240998040 0 0
0.0082595200 -0.0227704640 0 0
0.0099530940 -0.0211156170 0 0
0.0118695950 -0.0192976790 0 0
0.0137801960 -0.0174977570 0 0
0.0154600950 -0.0158999480 0 0
0.0167138080 -0.0146739480 0 0
0.0173960010 -0.0139569020 0 0
0.0174265100 -0.0138371200 0 0
0.0167969440 -0.0143426430 0 0
0.0155674430 -0.0154367190 0 0
0.0138562760 -0.0170211410 0 0
0.0118262840 -0.0189470020 0 0
0.0096698250 -0.0210310250 0 0
0.0075918950 -0.0230750680 0 0
0.0057916610 -0.0248867000 0 0
0.0044438920 -0.0262988070 0 0
0.0036814880 -0.0271862140 0 0
0.0035808820 -0.0274779940 0 0
0.0041548020 -0.0271641780 0 0
0.0053553890 -0.0262950480 0 0
0.0070844830 -0.0249723700 0 0
0.0092058650 -0.0233354350 0 0
0.0115573410 -0.0215463520 0 0
0.0139623550 -0.0197764110 0 0
0.0162408370 -0.0181927800 0 0
0.0182204750 -0.0169453510 0 0
0.0197503920 -0.0161545280 0 0
0.0207167480 -0.0159003820 0 0
0.0210568350 -0.0162136420 0 0
0.0207674390 -0.0170702970 0 0
0.0199051970 -0.0183921490 0 0
0.0185802560 -0.0200541710 0 0
0.0169467710 -0.0218971500 0 0
0.0151916330 -0.0237432660 0 0
0.0135186250 -0.0254131520 0 0
0.0121264480 -0.0267432450 0 0
0.0111852380 -0.0276019930 0 0
0.0108176650 -0.0279034080 0 0
0.0110858260 -0.0276161910 0 0
0.0119825700 -0.0267666360 0 0
0.0134291620 -0.0254352670 0 0
0.0152834680 -0.0237488220 0 0
0.0173580390 -0.0218683730 0 0
0.0194426210 -0.0199733300 0 0
0.0213275710 -0.0182426240 0 0
0.0228268060 -0.0168361460 0 0
0.0237969180 -0.0158790540 0 0
0.0241493720 -0.0154504330 0 0
0.0238552460 -0.0155773370 0 0
0.0229433630 -0.0162343570 0 0
0.0214944680 -0.0173475780 0 0
0.0196350510 -0.0188015400 0 0
0.0175303160 -0.0204492440 0 0
0.0153725110 -0.0221257810 0 0
0.0133633840 -0.0236642270 0 0
0.0116930020 -0.0249109630 0 0
0.0105183850 -0.0257390130 0 0
0.0099459660 -0.0260594360 0 0
0.0100198730 -0.0258300890 0 0
0.0107154980 -0.0250602390 0 0
0.0119397040 -0.0238103670 0 0
0.0135412870 -0.0221877380 0 0
0.0153311800 -0.0203380070 0 0
0.0171050270 -0.0184324370 0 0
0.0186614620 -0.0166511600 0 0
0.0198172080 -0.0151643780 0 0
0.0204238810 -0.0141138450 0 0
0.0203875870 -0.0135972310 0 0
0.0196856380 -0.0136580320 0 0
0.0183721010 -0.0142820560 0 0
0.0165693730 -0.0153990600 0 0
0.0144497930 -0.0168883040 0 0
0.0122125860 -0.0185892420 0 0
0.0100609840 -0.0203188360 0 0
0.0081840080 -0.0218931440 0 0
0.0067430780 -0.0231475920 0 0
0.0058599830 -0.0239522600 0 0
0.0056063930 -0.0242226750 0 0
0.0059977980 -0.0239276770 0 0
0.0069916630 -0.0230942120 0 0
0.0084900150 -0.0218073750 0 0
0.0103490610 -0.0202038340 0 0
0.0123953020 -0.0184575250 0 0
0.0144436270 -0.0167588110 0 0
0.0163127650 -0.0152910350 0 0
0.0178364010 -0.0142094750 0 0
0.0188727480 -0.0136261270 0 0
0.0193163060 -0.0136011610 0 0
0.0191116330 -0.0141400840 0 0
0.0182642220 -0.0151954310 0 0
0.0168421840 -0.0166726030 0 0
0.0149670470 -0.0184397500 0 0
0.0127985600 -0.0203407390 0 0
0.0105199660 -0.0222093550 0 0
0.0083255100 -0.0238831980 0 0
0.0064067020 -0.0252167800 0 0
0.0049349670 -0.0260936890 0 0
0.0040430050 -0.0264373750 0 0
0.0038082420 -0.0262197030 0 0
0.0042412650 -0.0254657020 0 0
0.0052832400 -0.0242530570 0 0
0.0068142550 -0.0227058910 0 0
0.0086698640 -0.0209833640 0 0
0.0106613130 -0.0192643930 0 0
0.0125960970 -0.0177303540 0 0
0.0142963620 -0.0165471040 0 0
0.0156139930 -0.0158473930 0 0
0.0164426380 -0.0157156490 0 0
0.0167264190 -0.0161773910 0 0
0.0164641590 -0.0171948330 0 0
0.0157088540 -0.0186694220 0 0
0.0145626210 -0.0204514420 0 0
0.0131668440 -0.0223564260 0 0
0.0116881400 -0.0241869010 0 0
0.0103017860 -0.0257558810 0 0
0.0091733890 -0.0269075410 0 0
0.0084401560 -0.0275315810 0 0
0.0081961040 -0.0275702920 0 0
0.0084847190 -0.0270201740 0 0
0.0092971450 -0.0259309540 0 0
0.0105722640 -0.0244026070 0 0
0.0121993680 -0.0225781710 0 0
0.0140269820 -0.0206302270 0 0
0.0158789580 -0.0187422690 0 0
0.0175745700 -0.0170896080 0 0
0.0189479020 -0.0158241900 0 0
0.0198640520 -0.0150638260 0 0
0.0202316170 -0.0148834570 0 0
0.0200107510 -0.0153073870 0 0
0.0192162610 -0.0163044120 0 0
0.0179163120 -0.0177887820 0 0
0.0162275450 -0.0196278920 0 0
0.0143067600 -0.0216550080 0 0
0.0123381180 -0.0236852110 0 0
0.0105148830 -0.0255334380 0 0
0.0090178010 -0.0270331610 0 0
0.0079946380 -0.0280536260 0 0
0.0075438100 -0.0285132820 0 0
0.0077034180 -0.0283871400 0 0
0.0084479170 -0.0277068660 0 0
0.0096939550 -0.0265544800 0 0
0.0113138610 -0.0250523390 0 0
0.0131529090 -0.0233519870 0 0
0.0150455710 -0.0216225790 0 0
0.0168276040 -0.0200380800 0 0
0.0183450520 -0.0187623640 0 0
0.0194630750 -0.0179323300 0 0
0.0200753400 -0.0176410950 0 0
0.0201132680 -0.0179248570 0 0
0.0195545340 -0.0187566230 0 0
0.0184299590 -0.0200482290 0 0
0.0168267110 -0.0216605660 0 0
0.0148840100 -0.0234201990 0 0
0.0127788070 -0.0251390250 0 0
0.0107043760 -0.0266337920 0 0
0.0088485050 -0.0277434800 0 0
0.0073755970 -0.0283434310 0 0
0.0064119810 -0.0283557030 0 0
0.0060319810 -0.0277554040 0 0
0.0062457240 -0.0265726870 0 0
0.0069941680 -0.0248903950 0 0
0.0081563030 -0.0228380130 0 0
0.0095673020 -0.0205819950 0 0
0.0110416560 -0.0183117420 0 0
0.0123954950 -0.0162221050 0 0
0.0134646360 -0.0144951820 0 0
0.0141183550 -0.0132836840 0 0
0.0142708940 -0.0126966700 0 0
0.0138901390 -0.0127883370 0 0
0.0130008610 -0.0135511680 0 0
0.0116819180 -0.0149148360 0 0
0.0100579470 -0.0167514710 0 0
0.0082865330 -0.0188870510 0 0
0.0065425810 -0.0211186810 0 0
0.0050000000 -0.0232363690 0 0
0.0038115910 -0.0250460610 0 0
0.0030933310 -0.0263907650 0 0
0.0029182840 -0.0271673410 0 0
0.0033166930 -0.0273365180 0 0
0.0042750620 -0.0269243390 0 0
0.0057328370 -0.0260151680 0 0
0.0075808270 -0.0247384570 0 0
0.0096640880 -0.0232528720 0 0
0.0117894230 -0.0217307650 0 0
0.0137385660 -0.0203436130 0 0
0.0152886160 -0.0192472480 0 0
0.0162388600 -0.0185665170 0 0
0.0164397580 -0.0183815040 0 0
0.0158172840 -0.0187184360 0 0
0.0143864330 -0.0195470950 0 0
0.0122519770 -0.0207847460 0 0
0.0095975870 -0.0223054400 0 0
0.0066647710 -0.0239529040 0 0
0.0037247270 -0.0255551620 0 0
0.0010484560 -0.0269399780 0 0
-0.0011207970 -0.0279506770 0 0
-0.0025914920 -0.0284609820 0 0
-0.0032430200 -0.0283872710 0 0
-0.0030378020 -0.0276977240 0 0
-0.0020237580 -0.0264180190 0 0
-0.0003259100 -0.0246321500 0 0
0.0018713010 -0.0224765830 0 0
0.0043470780 -0.0201272230 0 0
0.0068690470 -0.0177805620 0 0
0.0092166400 -0.0156322230 0 0
0.0111992300 -0.0138571120 0 0
0.0126671470 -0.0125941410 0 0
0.0135195120 -0.0119354430 0 0
0.0137136350 -0.0119186940 0 0
0.0132735770 -0.0125230000 0 0
0.0122909400 -0.0136699600 0 0
0.0109141460 -0.0152304140 0 0
0.0093281010 -0.0170366530 0 0
0.0077297800 -0.0188997850 0 0
0.0063057600 -0.0206309290 0 0
0.0052155800 -0.0220631240 0 0
0.0045813390 -0.0230696590 0 0
0.0044813570 -0.0235756720 0 0
0.0049452370 -0.0235623490 0 0
0.0059498910 -0.0230646790 0 0
0.0074190500 -0.0221646900 0 0
0.0092294680 -0.0209821490 0 0
0.0112237470 -0.0196631890 0 0
0.0132259700 -0.0183667320 0 0
0.0150569080 -0.0172498180 0 0
0.0165484810 -0.0164531700 0 0
0.0175581660 -0.0160871720 0 0
0.0179838540 -0.0162188370 0 0
0.0177781100 -0.0168618410 0 0
0.0169573610 -0.0179726610 0 0
0.0156014990 -0.0194551430 0 0
0.0138445820 -0.0211727320 0 0
0.0118611810 -0.0229644660 0 0
0.0098514320 -0.0246612430 0 0
0.0080241100 -0.0261009910 0 0
0.0065752130 -0.0271423300 0 0
0.0056622660 -0.0276771150 0 0
0.0053799620 -0.0276422720 0 0
0.0057444300 -0.0270291690 0 0
0.0066897300 -0.0258870450 0 0
0.0080769990 -0.0243184420 0 0
0.0097153300 -0.0224676200 0 0
0.0113898360 -0.0205050180 0 0
0.0128890240 -0.0186104060 0 0
0.0140264760 -0.0169555850 0 0
0.0146572420 -0.0156876140 0 0
0.0146907060 -0.0149151040 0 0
0.0140985830 -0.0146995540 0 0
0.0129153000 -0.0150511050 0 0
0.0112318750 -0.0159275160 0 0
0.0091864290 -0.0172370200 0 0
0.0069516620 -0.0188467900 0 0
0.0047187350 -0.0205969680 0 0
0.0026791040 -0.0223176140 0 0
0.0010071860 -0.0238454160 0 0
-0.0001534940 -0.0250386310 0 0
-0.0007009370 -0.0257899560 0 0
-0.0005843910 -0.0260365440 0 0
0.0001878450 -0.0257654510 0 0
0.0015458300 -0.0250141370 0 0
0.0033615530 -0.0238672550 0 0
0.0054585860 -0.0224499500 0 0
0.0076278520 -0.0209165150 0 0
0.0096476340 -0.0194347910 0 0
0.0113057100 -0.0181691080 0 0
0.0124228490 -0.0172640180 0 0
0.0128744360 -0.0168294730 0 0
0.0126038450 -0.0169282230 0 0
0.0116245700 -0.0175670680 0 0
0.0100145710 -0.0186935530 0 0
0.0079077970 -0.0201990730 0 0
0.0054838850 -0.0219290810 0 0
0.0029532550 -0.0237004630 0 0
0.0005362370 -0.0253240250 0 0
-0.0015605330 -0.0266278700 0 0
-0.0031652870 -0.0274774090 0 0
-0.0041565950 -0.0277892910 0 0
-0.0044719620 -0.0275379410 0 0
-0.0041096150 -0.0267546300 0 0
-0.0031245430 -0.0255207370 0 0
-0.0016209980 -0.0239579310 0 0
0.0002551650 -0.0222168840 0 0
0.0023228490 -0.0204647970 0 0
0.0043751500 -0.0188718740 0 0
0.0061981800 -0.0175969210 0 0
0.0075977220 -0.0167728290 0 0
0.0084233480 -0.0164940290 0 0
0.0085825230 -0.0168080560 0 0
0.0080471330 -0.0177112900 0 0
0.0068566510 -0.0191478870 0 0
0.0051159390 -0.0210118580 0 0
0.0029843890 -0.0231538530 0 0
0.0006585580 -0.0253938970 0 0
-0.0016472220 -0.0275390080 0 0
-0.0037204970 -0.0294027200 0 0
-0.0053705620 -0.0308236510 0 -1
-0.0064468170 -0.0316809290 0 -1
-0.0068521160 -0.0319050000 0 -1
-0.0065490000 -0.0314833830 0 -1
-0.0055605330 -0.0304614640 0 -1
-0.0039688280 -0.0289381210 0 0
-0.0019107900 -0.0270558190 0 0
0.0004333720 -0.0249857240 0 0
0.0028602680 -0.0229096410 0 0
0.0051661560 -0.0210019040 0 0
0.0071657130 -0.0194146550 0 0
0.0087050400 -0.0182677770 0 0
0.0096706220 -0.0176422190 0 0
0.0099966860 -0.0175749660 0 0
0.0096728920 -0.0180548320 0 0
0.0087518360 -0.0190201640 0 0
0.0073522560 -0.0203610840 0 0
0.0056523390 -0.0219280500 0 0
0.0038713410 -0.0235466840 0 0
0.0022437470 -0.0250374790 0 0
0.0009911920 -0.0262369670 0 0
0.0002939890 -0.0270155360 0 0
0.0002647030 -0.0272887970 0 0
0.0009306350 -0.0270227310 0 0
0.0022312470 -0.0262346590 0 0
0.0040300790 -0.0249912980 0 0
0.0061354510 -0.0234032260 0 0
0.0083232840 -0.0216149890 0 0
0.0103586520 -0.0197919670 0 0
0.0120168050 -0.0181055470 0 0
0.0131044720 -0.0167163570 0 0
0.0134796720 -0.0157555630 0 0
0.0130669650 -0.0153074490 0 0
0.0118653080 -0.0153983370 0 0
0.0099470670 -0.0159943520 0 0
0.0074488220 -0.0170064350 0 0
0.0045564840 -0.0182997890 0 0
0.0014875330 -0.0197067110 0 0
-0.0015284350 -0.0210430920 0 0
-0.0042704050 -0.0221276220 0 0
-0.0065460860 -0.0228010060 0 0
-0.0082092800 -0.0229433170 0 0
-0.0091727590 -0.0224885500 0 0
-0.0094144190 -0.0214335550 0 0
-0.0089753760 -0.0198379020 0 0
-0.0079518660 -0.0178147230 0 0
-0.0064843350 -0.0155159920 0 0
-0.0047456310 -0.0131157540 0 0
-0.0029282500 -0.0107935310 0 0
-0.0012293320 -0.0087194050 0 0
0.0001677710 -0.0070414490 0 0
0.0011146720 -0.0058747350 0 0
0.0015185190 -0.0052908890 0 0
0.0013563150 -0.0053093150 0 0
0.0006776620 -0.0058934570 0 0
-0.0004050120 -0.0069544200 0 0
-0.0017342740 -0.0083608280 0 0
-0.0031277320 -0.0099524000 0 0
-0.0043975110 -0.0115559520 0 0
-0.0053692280 -0.0130029830 0 0
-0.0059002400 -0.0141470230 0 0
-0.0058952110 -0.0148784060 0 0
-0.0053163060 -0.0151346530 0 0
-0.0041845770 -0.0149051630 0 0
-0.0025714970 -0.0142301600 0 0
-0.0005868110 -0.0131954280 0 0
0.0016306040 -0.0119244200 0 0
0.0039219130 -0.0105679660 0 0
0.0061221580 -0.0092910320 0 0
0.0080744270 -0.0082567300 0 0
0.0096402190 -0.0076096030 0 0
0.0107083130 -0.0074609930 0 0
0.0112031180 -0.0078775380 0 0
0.0110918250 -0.0088724760 0 0
0.0103910900 -0.0104006070 0 0
0.0091722270 -0.0123590760 0 0
0.0075615740 -0.0145954360 0 0
0.0057331740 -0.0169231680 0 0
0.0038923930 -0.0191434320 0 0
0.0022518400 -0.0210693600 0 0
0.0010034690 -0.0225473430 0 0
0.0002925850 -0.0234714460 0 0
0.0002008910 -0.0237909250 0 0
0.0007409900 -0.0235125480 0 0
0.0018581760 -0.0226985010 0 0
0.0034371750 -0.0214595890 0 0
0.0053143210 -0.0199442100 0 0
0.0072936030 -0.0183247810 0 0
0.0091649320 -0.0167831020 0 0
0.0107240710 -0.0154946750 0 0
0.0117927620 -0.0146117420 0 0
0.0122379910 -0.0142465000 0 0
0.0119891140 -0.0144575070 0 0
0.0110487540 -0.0152423360 0 0
0.0094934480 -0.0165383230 0 0
0.0074637200 -0.0182307210 0 0
0.0051460090 -0.0201657150 0 0
0.0027500780 -0.0221665930 0 0
0.0004864000 -0.0240520170 0 0
-0.0014522100 -0.0256537130 0 0
-0.0029029200 -0.0268305600 0 0
-0.0037418570 -0.0274789850 0 0
-0.0038935120 -0.0275414130 0 0
-0.0033389350 -0.0270125960 0 0
-0.0021175940 -0.0259412590 0 0
-0.0003229950 -0.0244254490 0 0
0.0019029990 -0.0226030200 0 0
0.0043765260 -0.0206397600 0 0
0.0068843530 -0.0187159140 0 0
0.0092048770 -0.0170102780 0 0
0.0111314920 -0.0156822780 0 0
0.0124925050 -0.0148550280 0 0
0.0131683110 -0.0146029020 0 0
0.0131074240 -0.0149444770 0 0
0.0123371930 -0.0158395950 0 0
0.0109621410 -0.0171905010 0 0
0.0091478360 -0.0188495170 0 0
0.0070958100 -0.0206347820 0 0
0.0050178700 -0.0223516280 0 0
0.0031148390 -0.0238148310 0 0
0.0015607200 -0.0248679180 0 0
0.0004919790 -0.0253976020 0 0
0.0000012552 -0.0253428810 0 0
0.0001333360 -0.0246996330 0 0
0.0008808040 -0.0235217320 0 0
0.0021796720 -0.0219181370 0 0
0.0039093400 -0.0200440150 0 0
0.0059014080 -0.0180850220 0 0
0.0079578710 -0.0162365570 0 0
0.0098742360 -0.0146816400 0 0
0.0114614370 -0.0135715620 0 0
0.0125633660 -0.0130122730 0 0
0.0130702130 -0.0130571840 0 0
0.0129286280 -0.0137056010 0 0
0.0121486940 -0.0149053050 0 0
0.0108062300 -0.0165577530 0 0
0.0090382970 -0.0185254410 0 0
0.0070306030 -0.0206419980 0 0
0.0049962850 -0.0227253440 0 0
0.0031474490 -0.0245935930 0 0
0.0016656860 -0.0260823910 0 0
0.0006808200 -0.0270610430 0 0
0.0002623290 -0.0274450060 0 0
0.0004197560 -0.0272041590 0 0
0.0011071140 -0.0263669410 0 0
0.0022303810 -0.0250193730 0 0
0.0036583970 -0.0232971120 0 0
0.0052358930 -0.0213701490 0 0
0.0067971360 -0.0194229630 0 0
0.0081791110 -0.0176348390 0 0
0.0092334820 -0.0161641100 0 0
0.0098372180 -0.0151371050 0 0
0.0099018580 -0.0146398090 0 0
0.0093811460 -0.0147102980 0 0
0.0082769290 -0.0153325890 0 0
0.0066425540 -0.0164346240 0 0
0.0045821180 -0.0178927220 0 0
0.0022446840 -0.0195431990 0 0
-0.0001859160 -0.0211999390 0 0
-0.0025054750 -0.0226750360 0 0
-0.0045089440 -0.0237992220 0 0
-0.0060140710 -0.0244396370 0 0
-0.0068846310 -0.0245130480 0 0
-0.0070483030 -0.0239932510 0 0
-0.0065064940 -0.0229129530 0 0
-0.0053350170 -0.0213615750 0 0
-0.0036755350 -0.0194793490 0 0
-0.0017193850 -0.0174461250 0 0
0.0003136880 -0.0154631930 0 0
0.0021993220 -0.0137294100 0 0
0.0037321960 -0.0124170290 0 0
0.0047478630 -0.0116534570 0 0
0.0051411230 -0.0115111320 0 0
0.0048773870 -0.0120034620 0 0
0.0039949560 -0.0130845150 0 0
0.0025997060 -0.0146523550 0 0
0.0008523490 -0.0165576550 0 0
-0.0010531120 -0.0186184650 0 0
-0.0029148630 -0.0206389920 0 0
-0.0045431820 -0.0224286540 0 0
-0.0057718030 -0.0238191440 0 0
-0.0064654430 -0.0246794310 0 0
-0.0065289100 -0.0249287810 0 0
-0.0059201480 -0.0245461550 0 0
-0.0046635350 -0.0235729950 0 0
-0.0028557020 -0.0221080350 0 0
-0.0006593640 -0.0202959240 0 0
0.0017140770 -0.0183126250 0 0
0.0040297000 -0.0163494280 0 0
0.0060577250 -0.0145955420 0 0
0.0076012860 -0.0132189840 0 0
0.0085189650 -0.0123479120 0 0
0.0087386370 -0.0120566670 0 0
0.0082612300 -0.0123594120 0 0
0.0071553830 -0.0132114600 0 0
0.0055454090 -0.0145170610 0 0
0.0035949260 -0.0161416150 0 0
0.0014877530 -0.0179259850 0 0
-0.0005920910 -0.0197013360 0 0
-0.0024774950 -0.0213032490 0 0
-0.0040280140 -0.0225838550 0 0
-0.0051323870 -0.0234221300 0 0
-0.0057103010 -0.0237342490 0 0
-0.0057193190 -0.0234848780 0 0
-0.0051652980 -0.0226967780 0 0
-0.0041092450 -0.0214538460 0 0
-0.0026654170 -0.0198943550 0 0
-0.0009894700 -0.0181950140 0 0
0.0007415090 -0.0165495790 0 0
0.0023511530 -0.0151461940 0 0
0.0036808000 -0.0141465800 0 0
0.0046007690 -0.0136690070 0 0
0.0050215590 -0.0137760960 0 0
0.0049062750 -0.0144685570 0 0
0.0042783070 -0.0156859000 0 0
0.0032188230 -0.0173137770 0 0
0.0018550040 -0.0191964890 0 0
0.0003451890 -0.0211538300 0 0
-0.0011333860 -0.0230010100 0 0
-0.0023952140 -0.0245682210 0 0
-0.0032611560 -0.0257159900 0 0
-0.0035782990 -0.0263453240 0 0
-0.0032398190 -0.0264038860 0 0
-0.0021997910 -0.0258893640 0 0
-0.0004818760 -0.0248498750 0 0
0.0018171330 -0.0233808300 0 0
0.0045294120 -0.0216184880 0 0
0.0074263570 -0.0197304030 0 0
0.0102390810 -0.0179020720 0 0
0.0126885300 -0.0163196880 0 0
0.0145216150 -0.0151507960 0 0
0.0155466270 -0.0145254470 0 0
0.0156593110 -0.0145202430 0 0
0.0148535860 -0.0151479930 0 0
0.0132167330 -0.0163556640 0 0
0.0109130160 -0.0180314000 0 0
0.0081619710 -0.0200181360 0 0
0.0052170000 -0.0221300050 0 0
0.0023442060 -0.0241698430 0 0
-0.0002013920 -0.0259483260 0 0
-0.0021991650 -0.0273034820 0 0
-0.0034790760 -0.0281165440 0 0
-0.0039310340 -0.0283213520 0 0
-0.0035141660 -0.0279082280 0 0
-0.0022681570 -0.0269243410 0 0
-0.0003197500 -0.0254706930 0 0
0.0021239260 -0.0236944640 0 0
0.0047980750 -0.0217761710 0 0
0.0074152960 -0.0199124830 0 0
0.0097035020 -0.0182964230 0 0
0.0114357510 -0.0170976180 0 0
0.0124476710 -0.0164454590 0 0
0.0126468420 -0.0164164660 0 0
0.0120196940 -0.0170257100 0 0
0.0106350590 -0.0182229650 0 0
0.0086383790 -0.0198957670 0 0
0.0062340280 -0.0218808290 0 0
0.0036600140 -0.0239822770 0 0
0.0011612090 -0.0259928130 0 0
-0.0010355980 -0.0277143090 0 0
-0.0027426970 -0.0289760650 0 0
-0.0038249700 -0.0296499800 0 0
-0.0042045780 -0.0296621900 0 0
-0.0038623120 -0.0290007690 0 0
-0.0028415530 -0.0277191210 0 0
-0.0012503130 -0.0259344390 0 0
0.0007483880 -0.0238193740 0 0
0.0029571470 -0.0215851870 0 0
0.0051650170 -0.0194577460 0 0
0.0071631860 -0.0176509540 0 0
0.0087608410 -0.0163426910 0 0
0.0098063350 -0.0156570860 0 0
0.0102092810 -0.0156552050 0 0
0.0099532290 -0.0163337590 0 0
0.0090931900 -0.0176293670 0 0
0.0077412040 -0.0194261800 0 0
0.0060472180 -0.0215661320 0 0
0.0041829680 -0.0238619490 0 0
0.0023332680 -0.0261130620 0 0
0.0006894230 -0.0281232460 0 0
-0.0005659960 -0.0297172060 0 0
-0.0012853460 -0.0307547990 0 -1
-0.0013823200 -0.0311445440 0 -1
-0.0008456290 -0.0308568740 0 -1
0.0002620350 -0.0299327170 0 0
0.0018132210 -0.0284814750 0 0
0.0036304940 -0.0266664490 0 0
0.0055078800 -0.0246815320 0 0
0.0072350070 -0.0227268580 0 0
0.0086175770 -0.0209898360 0 0
0.0094940180 -0.0196323100 0 0
0.0097507870 -0.0187805760 0 0
0.0093346580 -0.0185157140 0 0
0.0082603190 -0.0188647500 0 0
0.0066127400 -0.0197951380 0 0
0.0045393650 -0.0212150780 0 0
0.0022279230 -0.0229808490 0 0
-0.0001236370 -0.0249113570 0 0
-0.0023326910 -0.0268086320 0 0
-0.0042452920 -0.0284806200 0 0
-0.0057378420 -0.0297616530 0 0
-0.0067159090 -0.0305279600 0 -1
-0.0071206570 -0.0307081890 0 -1
-0.0069420420 -0.0302896530 0 -1
-0.0062263590 -0.0293200490 0 0
-0.0050696250 -0.0279035210 0 0
-0.0036009320 -0.0261908060 0 0
-0.0019654110 -0.0243646320 0 0
-0.0003122900 -0.0226213290 0 0
0.0012122070 -0.0211492960 0 0
0.0024699280 -0.0201068600 0 0
0.0033365300 -0.0196035850 0 0
0.0037101240 -0.0196879860 0 0
0.0035242150 -0.0203426590 0 0
0.0027633660 -0.0214871710 0 0
0.0014755910 -0.0229885550 0 0
-0.0002256810 -0.0246776880 0 0
-0.0021726640 -0.0263686860 0 0
-0.0041652320 -0.0278789190 0 0
-0.0059997970 -0.0290480060 0 0
-0.0074980120 -0.0297536590 0 0
-0.0085262570 -0.0299225110 0 0
-0.0090018900 -0.0295356470 0 0
-0.0088916580 -0.0286289950 0 0
-0.0082108200 -0.0272879310 0 0
-0.0070243160 -0.0256360670 0 0
-0.0054442830 -0.0238204860 0 0
-0.0036197270 -0.0219974350 0 0
-0.0017195000 -0.0203212220 0 0
0.0000871886 -0.0189354830 0 0
0.0016484210 -0.0179642120 0 0
0.0028422780 -0.0175013420 0 0
0.0035828360 -0.0176001000 0 0
0.0038207910 -0.0182648780 0 0
0.0035435930 -0.0194477800 0 0
0.0027788300 -0.0210506640 0 0
0.0015988440 -0.0229334570 0 0
0.0001205140 -0.0249282850 0 0
-0.0015037320 -0.0268558650 0 0
-0.0031016110 -0.0285404670 0 0
-0.0044988400 -0.0298233570 0 0
-0.0055374210 -0.0305765140 0 -1
-0.0060944920 -0.0307167880 0 -1
-0.0060995220 -0.0302181660 0 -1
-0.0055458050 -0.0291186860 0 0
-0.0044938120 -0.0275191610 0 0
-0.0030661930 -0.0255728380 0 0
-0.0014344730 -0.0234675230 0 0
0.0002023180 -0.0214036180 0 0
0.0016431270 -0.0195722770 0 0
0.0027068820 -0.0181369510 0 0
0.0032475730 -0.0172196170 0 0
0.0031664540 -0.0168916300 0 0
0.0024240600 -0.0171693370 0 0
0.0010483290 -0.0180145700 0 0
-0.0008651420 -0.0193390550 0 0
-0.0031607280 -0.0210116920 0 0
-0.0056373730 -0.0228689650 0 0
-0.0080691320 -0.0247292890 0 0
-0.0102290110 -0.0264106630 0 0
-0.0119131870 -0.0277493850 0 0
-0.0129636630 -0.0286176240 0 0
-0.0132863780 -0.0289377930 0 0
-0.0128602260 -0.0286909010 0 0
-0.0117349030 -0.0279169410 0 0
-0.0100198420 -0.0267080230 0 0
-0.0078675590 -0.0251964490 0 0
-0.0054545450 -0.0235395430 0 0
-0.0029648240 -0.0219030430 0 0
-0.0005798490 -0.0204453500 0 0
0.0015277250 -0.0193042710 0 0
0.0032017090 -0.0185863730 0 0
0.0043146070 -0.0183586150 0 0
0.0047830590 -0.0186430630 0 0
0.0045812060 -0.0194158840 0 0
0.0037478760 -0.0206099340 0 0
0.0023867040 -0.0221189940 0 0
0.0006576130 -0.0238038020 0 0
-0.0012409580 -0.0255023320 0 0
-0.0030949890 -0.0270452390 0 0
-0.0046982990 -0.0282744170 0 0
-0.0058748560 -0.0290612930 0 0
-0.0064985950 -0.0293217130 0 0
-0.0065078570 -0.0290255760 0 0
-0.0059136130 -0.0282010190 0 0
-0.0048023970 -0.0269334510 0 0
-0.0033293990 -0.0253592560 0 0
-0.0016948030 -0.0236535540 0 0
-0.0001079070 -0.0220116970 0 0
0.0012449440 -0.0206261290 0 0
0.0022180020 -0.0196626380 0 0
0.0027125400 -0.0192405220 0 0
0.0026795710 -0.0194196830 0 0
0.0021200630 -0.0201957550 0 0
0.0010804820 -0.0215026530 0 0
-0.0003545530 -0.0232212750 0 0
-0.0020679550 -0.0251934830 0 0
-0.0039132660 -0.0272401490 0 0
-0.0057193510 -0.0291807450 0 0
-0.0073015990 -0.0308511450 0 -1
-0.0084807550 -0.0321166370 0 -1
-0.0091052930 -0.0328794710 0 -1
-0.0090705420 -0.0330836230 0 -1
-0.0083308940 -0.0327195380 0 -1
-0.0069060050 -0.0318281580 0 -1
-0.0048824370 -0.0305010500 0 -1
-0.0024097560 -0.0288741730 0 0
0.0003113880 -0.0271152810 0 0
0.0030500770 -0.0254067250 0 0
0.0055701330 -0.0239263350 0 0
0.0076514980 -0.0228290270 0 0
0.0091064210 -0.0222310160 0 0
0.0097962340 -0.0221979270 0 0
0.0096514580 -0.0227379260 0 0
0.0086890700 -0.0238004010 0 0
0.0070169330 -0.0252802400 0 0
0.0048206210 -0.0270278890 0 0
0.0023374800 -0.0288650770 0 0
-0.0001727160 -0.0306043250 0 -1
-0.0024557090 -0.0320688790 0 -1
-0.0042895910 -0.0331100430 0 -1
-0.0055086170 -0.0336203980 0 -1
-0.0060181610 -0.0335425510 0 -1
-0.0057980070 -0.0328736860 0 -1
-0.0048975370 -0.0316660500 0 -1
-0.0034271150 -0.0300231780 0 -1
-0.0015460180 -0.0280914260 0 0
0.0005533660 -0.0260463330 0 0
0.0026631240 -0.0240743910 0 0
0.0045774320 -0.0223526390 0 0
0.0061100050 -0.0210296540 0 0
0.0071111080 -0.0202115850 0 0
0.0074836010 -0.0199552820 0 0
0.0071964670 -0.0202672930 0 0
0.0062917640 -0.0211055270 0 0
0.0048815210 -0.0223819080 0 0
0.0031351180 -0.0239671870 0 0
0.0012597620 -0.0257002520 0 0
-0.0005239590 -0.0274030590 0 0
-0.0020084960 -0.0288992770 0 0
-0.0030227220 -0.0300332630 0 -1
-0.0034490080 -0.0306874090 0 -1
-0.0032339340 -0.0307967090 0 -1
-0.0023918440 -0.0303575950 0 -1
-0.0010007440 -0.0294274900 0 0
0.0008057680 -0.0281151160 0 0
0.0028479190 -0.0265651700 0 0
0.0049141400 -0.0249409630 0 0
0.0067836030 -0.0234070210 0 0
0.0082526550 -0.0221136090 0 0
0.0091578860 -0.0211848440 0 0
0.0093924200 -0.0207101320 0 0
0.0089158640 -0.0207378000 0 0
0.0077586780 -0.0212715700 0 0
0.0060202230 -0.0222708730 0 0
0.0038585960 -0.0236535190 0 0
0.0014717700 -0.0252990550 0 0
-0.0009269140 -0.0270540000 0 0
-0.0031333270 -0.0287414180 0 0
-0.0049722640 -0.0301760070 0 -1
-0.0063105070 -0.0311847020 0 -1
-0.0070643190 -0.0316309140 0 -1
-0.0072030380 -0.0314368660 0 -1
-0.0067488190 -0.0305965630 0 -1
-0.0057719210 -0.0291755010 0 0
-0.0043830170 -0.0272997360 0 0
-0.0027242400 -0.0251401820 0 0
-0.0009579130 -0.0228955870 0 0
0.0007472100 -0.0207742440 0 0
0.0022297740 -0.0189741310 0 0
0.0033497910 -0.0176627350 0 0
0.0040041290 -0.0169592050 0 0
0.0041401050 -0.0169218470 0 0
0.0037625990 -0.0175430620 0 0
0.0029339020 -0.0187519980 0 0
0.0017660070 -0.0204233790 0 0
0.0004057370 -0.0223905180 0 0
-0.0009833320 -0.0244613880 0 0
-0.0022382280 -0.0264367710 0 0
-0.0032108320 -0.0281281500 0 0
-0.0037781210 -0.0293735260 0 0
-0.0038510910 -0.0300515520 0 -1
-0.0033844040 -0.0300941390 0 -1
-0.0023836830 -0.0294950630 0 0
-0.0009074520 -0.0283112840 0 0
0.0009358170 -0.0266559670 0 0
0.0029961170 -0.0246850810 0 0
0.0050970110 -0.0225808490 0 0
0.0070551740 -0.0205346480 0 0
0.0087002790 -0.0187301180 0 0
0.0098920430 -0.0173263220 0 0
0.0105314670 -0.0164425730 0 0
0.0105650960 -0.0161482780 0 0
0.0099855170 -0.0164591640 0 0
0.0088321650 -0.0173372380 0 0
0.0071914600 -0.0186917980 0 0
0.0051919600 -0.0203832530 0 0
0.0029930690 -0.0222340490 0 0
0.0007700010 -0.0240475680 0 0
-0.0013010680 -0.0256310440 0 0
-0.0030553590 -0.0268173760 0 0
-0.0043507610 -0.0274824130 0 0
-0.0050807960 -0.0275558310 0 0
-0.0051877500 -0.0270246100 0 0
-0.0046716380 -0.0259299340 0 0
-0.0035945160 -0.0243601800 0 0
-0.0020810280 -0.0224424790 0 0
-0.0003114900 -0.0203333140 0 0
0.0014966990 -0.0182073780 0 0
0.0031170890 -0.0162444780 0 0
0.0043443830 -0.0146148240 0 0
0.0050201050 -0.0134636570 0 0
0.0050511940 -0.0128971140 0 0
0.0044219440 -0.0129714030 0 0
0.0031982470 -0.0136861620 0 0
0.0015210660 -0.0149820590 0 0
-0.0004124960 -0.0167434430 0 0
-0.0023786920 -0.0188079110 0 0
-0.0041595550 -0.0209833600 0 0
-0.0055664630 -0.0230699090 0 0
-0.0064500280 -0.0248824590 0 0
-0.0067040320 -0.0262704710 0 0
-0.0062727690 -0.0271327130 0 0
-0.0051615940 -0.0274253510 0 0
-0.0034428690 -0.0271628120 0 0
-0.0012509270 -0.0264126190 0 0
0.0012331950 -0.0252867390 0 0
0.0038013910 -0.0239309090 0 0
0.0062375710 -0.0225114680 0 0
0.0083365260 -0.0211994320 0 0
0.0099252410 -0.0201535190 0 0
0.0108837120 -0.0195046460 0 0
0.0111571510 -0.0193433650 0 0
0.0107566460 -0.0197104780 0 0
0.0097526460 -0.0205907090 0 0
0.0082652380 -0.0219108390 0 0
0.0064524930 -0.0235453620 0 0
0.0044978780 -0.0253309620 0 0
0.0025971950 -0.0270869570 0 0
0.0009439120 -0.0286366350 0 0
-0.0002883190 -0.0298253820 0 0
-0.0009638700 -0.0305340880 0 -1
-0.0009990210 -0.0306879640 0 -1
-0.0003691790 -0.0302610760 0 -1
0.0008893300 -0.0292775580 0 0
0.0026822210 -0.0278111780 0 0
0.0048652910 -0.0259832960 0 0
0.0072565300 -0.0239564940 0 0
0.0096503110 -0.0219214690 0 0
0.0118326590 -0.0200777100 0 0
0.0135985530 -0.0186108530 0 0
0.0147715550 -0.0176705080 0 0
0.0152230980 -0.0173526960 0 0
0.0148889730 -0.0176897110 0 0
0.0137825330 -0.0186477690 0 0
0.0120011730 -0.0201317390 0 0
0.0097189130 -0.0219963930 0 0
0.0071634180 -0.0240628790 0 0
0.0045853750 -0.0261380470 0 0
0.0022295270 -0.0280340790 0 0
0.0003108430 -0.0295865230 0 0
-0.0010042070 -0.0306693000 0 -1
-0.0016097920 -0.0312052550 0 -1
-0.0014646530 -0.0311711630 0 -1
-0.0005894230 -0.0305973470 0 -1
0.0009399920 -0.0295628490 0 0
0.0029993920 -0.0281872570 0 0
0.0054198790 -0.0266199980 0 0
0.0079921460 -0.0250275110 0 0
0.0104816990 -0.0235789670 0 0
0.0126563920 -0.0224321890 0 0
0.0143160360 -0.0217206110 0 0
0.0153152400 -0.0215400190 0 0
0.0155777620 -0.0219349090 0 0
0.0151020540 -0.0228883940 0 0
0.0139573120 -0.0243203740 0 0
0.0122708680 -0.0260950370 0 0
0.0102103630 -0.0280358450 0 0
0.0079670580 -0.0299460640 0 0
0.0057444830 -0.0316322470 0 -1
0.0037485470 -0.0329261410 0 -1
0.0021708380 -0.0337007280 0 -1
0.0011623210 -0.0338801120 0 -1
0.0008056980 -0.0334460030 0 -1
0.0010997470 -0.0324414540 0 -1
0.0019621180 -0.0309692520 0 -1
0.0032468520 -0.0291825170 0 0
0.0047692140 -0.0272674030 0 0
0.0063318790 -0.0254202110 0 0
0.0077485060 -0.0238233820 0 0
0.0088624350 -0.0226257040 0 0
0.0095595960 -0.0219301850 0 0
0.0097749110 -0.0217893100 0 0
0.0094920320 -0.0222053770 0 0
0.0087376560 -0.0231340720 0 0
0.0075726990 -0.0244896640 0 0
0.0060846920 -0.0261505340 0 0
0.0043856020 -0.0279658800 0 0
0.0026129950 -0.0297658280 0 0
0.0009269890 -0.0313755690 0 -1
-0.0005025170 -0.0326318780 0 -1
-0.0015175000 -0.0333997250 0 -1
-0.0019973020 -0.0335876750 0 -1
-0.0018820560 -0.0331611910 0 -1
-0.0011870050 -0.0321515740 0 -1
-0.0000015820 -0.0306566710 0 -1
0.0015263150 -0.0288310000 0 0
0.0032148100 -0.0268669740 0 0
0.0048748360 -0.0249711090 0 0
0.0063333240 -0.0233385130 0 0
0.0074485880 -0.0221292470 0 0
0.0081184060 -0.0214511510 0 0
0.0082839770 -0.0213521780 0 0
0.0079311280 -0.0218217550 0 0
0.0070900290 -0.0227979950 0 0
0.0058357620 -0.0241773640 0 0
0.0042883580 -0.0258246510 0 0
0.0026058090 -0.0275828260 0 0
0.0009663660 -0.0292838700 0 0
-0.0004549320 -0.0307620680 0 -1
-0.0015060590 -0.0318696750 0 -1
-0.0020686510 -0.0324924680 0 -1
-0.0020621320 -0.0325620690 0 -1
-0.0014483170 -0.0320631760 0 -1
-0.0002386640 -0.0310353340 0 -1
0.0015010750 -0.0295696480 0 0
0.0036538140 -0.0278012200 0 0
0.0060610670 -0.0258976130 0 0
0.0085358980 -0.0240432940 0 0
0.0108766610 -0.0224207390 0 0
0.0128832760 -0.0211901830 0 0
0.0143781220 -0.0204706760 0 0
0.0152291470 -0.0203255500 0 0
0.0153694500 -0.0207550660 0 0
0.0148075030 -0.0216973180 0 0
0.0136245680 -0.0230368200 0 0
0.0119614440 -0.0246193780 0 0
0.0100007490 -0.0262705530 0 0
0.0079495260 -0.0278142550 0 0
0.0060228870 -0.0290892740 0 0
0.0044267670 -0.0299633830 0 0
0.0033385310 -0.0303451180 0 -1
0.0028866600 -0.0301924370 0 -1
0.0031323610 -0.0295169250 0 0
0.0040570610 -0.0283828670 0 0
0.0055614260 -0.0269009720 0 0
0.0074797160 -0.0252169190 0 0
0.0096056370 -0.0234961220 0 0
0.0117197760 -0.0219071660 0 0
0.0136122600 -0.0206066920 0 0
0.0151018290 -0.0197272340 0 0
0.0160527540 -0.0193671600 0 0
0.0163861330 -0.0195813950 0 0
0.0160827560 -0.0203740370 0 0
0.0151807880 -0.0216957590 0 0
0.0137720480 -0.0234475930 0 0
0.0119944680 -0.0254900320 0 0
0.0100170380 -0.0276550340 0 0
0.0080210680 -0.0297593190 0 0
0.0061854370 -0.0316187220 0 -1
0.0046762100 -0.0330640750 0 -1
0.0036348440 -0.0339584490 0 -1
0.0031642530 -0.0342141110 0 -1
0.0033171220 -0.0338059280 0 -1
0.0040882000 -0.0327780950 0 -1
0.0054105100 -0.0312424810 0 -1
0.0071577840 -0.0293678670 0 0
0.0091556090 -0.0273602230 0 0
0.0112009400 -0.0254364580 0 0
0.0130866410 -0.0237968430 0 0
0.0146257440 -0.0226019140 0 0
0.0156712810 -0.0219572980 0 0
0.0161309610 -0.0219067160 0 0
0.0159769300 -0.0224315070 0 0
0.0152490500 -0.0234548710 0 0
0.0140492090 -0.0248502880 0 0
0.0125258410 -0.0264548230 0 0
0.0108523260 -0.0280874830 0 0
0.0092075100 -0.0295702010 0 0
0.0077633660 -0.0307470500 0 -1
0.0066744140 -0.0314982570 0 -1
0.0060617760 -0.0317477250 0 -1
0.0059959800 -0.0314650460 0 -1
0.0064882260 -0.0306647150 0 -1
0.0074922440 -0.0294044140 0 0
0.0089122500 -0.0277814830 0 0
0.0106140180 -0.0259260280 0 0
0.0124386080 -0.0239905890 0 0
0.0142180790 -0.0221373440 0 0
0.0157908860 -0.0205240640 0 0
0.0170144360 -0.0192899340 0 0
0.0177751480 -0.0185418110 0 0
0.0179975860 -0.0183421740 0 0
0.0176516910 -0.0187016620 0 0
0.0167573770 -0.0195784560 0 0
0.0153874660 -0.0208840310 0 0
0.0136660200 -0.0224929690 0 0
0.0117573400 -0.0242545770 0 0
0.0098478800 -0.0260049770 0 0
0.0081271660 -0.0275791370 0 0
0.0067694900 -0.0288229980 0 0
0.0059162560 -0.0296067380 0 0
0.0056612130 -0.0298400850 0 0
0.0060402730 -0.0294876550 0 0
0.0070246490 -0.0285783850 0 0
0.0085177490 -0.0272036190 0 0
0.0103615180 -0.0255043940 0 0
0.0123562930 -0.0236531760 0 0
0.0142887530 -0.0218346760 0 0
0.0159581590 -0.0202279190 0 0
0.0171961520 -0.0189902870 0 0
0.0178805770 -0.0182435970 0 0
0.0179435500 -0.0180624750 0 0
0.0173732670 -0.0184665330 0 0
0.0162116790 -0.0194182250 0 0
0.0145510080 -0.0208265890 0 0
0.0125287040 -0.0225554570 0 0
0.0103185380 -0.0244355230 0 0
0.0081174410 -0.0262806000 0 0
0.0061286980 -0.0279065090 0 0
0.0045402190 -0.0291500150 0 0
0.0034987630 -0.0298866580 0 0
0.0030884930 -0.0300458140 0 -1
0.0033237200 -0.0296188500 0 0
0.0041563210 -0.0286575330 0 0
0.0054893790 -0.0272648750 0 0
0.0071890920 -0.0255827860 0 0
0.0090935430 -0.0237783040 0 0
0.0110220010 -0.0220278220 0 0
0.0127882210 -0.0204998580 0 0
0.0142172000 -0.0193389060 0 0
0.0151627070 -0.0186521220 0 0
0.0155242260 -0.0184990020 0 0
0.0152610310 -0.0188845250 0 0
0.0143988840 -0.0197572170 0 0
0.0130269280 -0.0210132870 0 0
0.0112855550 -0.0225077270 0 0
0.0093473900 -0.0240722160 0 0
0.0073954300 -0.0255363780 0 0
0.0056033830 -0.0267468320 0 0
0.0041218900 -0.0275807040 0 0
0.0030711260 -0.0279535800 0 0
0.0025362170 -0.0278229930 0 0
0.0025613230 -0.0271882600 0 0
0.0031419860 -0.0260881900 0 0
0.0042182510 -0.0245989960 0 0
0.0056712260 -0.0228329300 0 0
0.0073263090 -0.0209345120 0 0
0.0089669530 -0.0190704500 0 0
0.0103608010 -0.0174129050 0 0
0.0112938680 -0.0161194650 0 0
0.0116017790 -0.0153141660 0 0
0.0111882360 -0.0150727220 0 0
0.0100307390 -0.0154131430 0 0
0.0081800560 -0.0162918650 0 0
0.0057562720 -0.0176064540 0 0
0.0029388360 -0.0192064720 0 0
-0.0000513503 -0.0209115120 0 0
-0.0029756000 -0.0225319230 0 0
-0.0056026400 -0.0238879710 0 0
-0.0077312010 -0.0248261630 0 0
-0.0092069660 -0.0252328040 0 0
-0.0099331760 -0.0250444650 0 0
-0.0098764000 -0.0242547520 0 0
-0.0090688680 -0.0229165560 0 0
-0.0076069720 -0.0211385610 0 0
-0.0056440470 -0.0190750120 0 0
-0.0033766310 -0.0169093720 0 0
-0.0010265990 -0.0148348380 0 0
0.0011778400 -0.0130354700 0 0
0.0030221620 -0.0116702280 0 0
0.0043277470 -0.0108600880 0 0
0.0049751010 -0.0106774890 0 0
0.0049227880 -0.0111386230 0 0
0.0042144030 -0.0122010150 0 0
0.0029694230 -0.0137678300 0 0
0.0013617730 -0.0156969310 0 0
-0.0004040120 -0.0178117890 0 0
-0.0021108760 -0.0199147180 0 0
-0.0035428420 -0.0218046750 0 0
-0.0045014410 -0.0232987490 0 0
-0.0048277250 -0.0242528810 0 0
-0.0044251960 -0.0245775660 0 0
-0.0032766950 -0.0242468310 0 0
-0.0014503550 -0.0233008110 0 0
0.0009070880 -0.0218422570 0 0
0.0035894340 -0.0200264490 0 0
0.0063593330 -0.0180447610 0 0
0.0089782030 -0.0161043480 0 0
0.0112315150 -0.0144070060 0 0
0.0129483520 -0.0131293930 0 0
0.0140150380 -0.0124062710 0 0
0.0143813440 -0.0123187360 0 0
0.0140591420 -0.0128886250 0 0
0.0131168490 -0.0140778840 0 0
0.0116735260 -0.0157909670 0 0
0.0098906780 -0.0178808820 0 0
0.0079562140 -0.0201617350 0 0
0.0060621280 -0.0224282960 0 0
0.0043846760 -0.0244788860 0 0
0.0030728140 -0.0261367120 0 0
0.0022430150 -0.0272667750 0 0
0.0019748040 -0.0277876260 0 0
0.0023026390 -0.0276778650 0 0
0.0032043110 -0.0269772250 0 0
0.0045911860 -0.0257822410 0 0
0.0063090440 -0.0242365270 0 0
0.0081552310 -0.0225156350 0 0
0.0099074540 -0.0208074800 0 0
0.0113531250 -0.0192916580 0 0
0.0123133850 -0.0181218450 0 0
0.0126617230 -0.0174133710 0 0
0.0123355970 -0.0172357480 0 0
0.0113395400 -0.0176091290 0 0
0.0097417820 -0.0185033320 0 0
0.0076659190 -0.0198385110 0 0
0.0052769690 -0.0214887750 0 0
0.0027637290 -0.0232915080 0 0
0.0003224500 -0.0250632660 0 0
-0.0018558360 -0.0266200950 0 0
-0.0035964780 -0.0277989310 0 0
-0.0047528830 -0.0284768060 0 0
-0.0052178300 -0.0285845550 0 0
-0.0049340220 -0.0281122050 0 0
-0.0039062750 -0.0271059600 0 0
-0.0022139610 -0.0256597150 0 0
-0.0000137834 -0.0239042700 0 0
0.0024760140 -0.0219955240 0 0
0.0050068470 -0.0201014820 0 0
0.0073346390 -0.0183877880 0 0
0.0092476160 -0.0170021930 0 0
0.0105820310 -0.0160593870 0 0
0.0112281880 -0.0156286650 0 0
0.0111338500 -0.0157271390 0 0
0.0103086600 -0.0163194380 0 0
0.0088270510 -0.0173226900 0 0
0.0068260660 -0.0186155550 0 0
0.0044959930 -0.0200505820 0 0
0.0020622740 -0.0214685260 0 0
-0.0002398960 -0.0227127640 0 0
-0.0021924030 -0.0236425960 0 0
-0.0036167500 -0.0241454890 0 0
-0.0043906920 -0.0241485460 0 0
-0.0044600890 -0.0236280850 0 0
-0.0038456550 -0.0226148630 0 0
-0.0026407020 -0.0211924340 0 0
-0.0009974090 -0.0194877680 0 0
0.0008938840 -0.0176563950 0 0
0.0028256990 -0.0158658590 0 0
0.0045931330 -0.0142799180 0 0
0.0060131850 -0.0130440650 0 0
0.0069420330 -0.0122721530 0 0
0.0072877930 -0.0120343060 0 0
0.0070190280 -0.0123474280 0 0
0.0061698410 -0.0131706650 0 0
0.0048390120 -0.0144074700 0 0
0.0031792910 -0.0159144400 0 0
0.0013779930 -0.0175165370 0 0
-0.0003636090 -0.0190276340 0 0
-0.0018470910 -0.0202729490 0 0
-0.0028946390 -0.0211086460 0 0
-0.0033725470 -0.0214360750 0 0
-0.0032140440 -0.0212102510 0 0
-0.0024311630 -0.0204424350 0 0
-0.0011127500 -0.0191969720 0 0
0.0005896070 -0.0175835950 0 0
0.0024858970 -0.0157467080 0 0
0.0043768680 -0.0138525430 0 0
0.0060783650 -0.0120742530 0 0
0.0074344500 -0.0105751640 0 0
0.0083219290 -0.0094917780 0 0
0.0086535560 -0.0089189810 0 0
0.0083837120 -0.0089001970 0 0
0.0075149110 -0.0094254570 0 0
0.0061021280 -0.0104376140 0 0
0.0042528350 -0.0118420900 0 0
0.0021207860 -0.0135152010 0 0
-0.0001085030 -0.0153107740 0 0
-0.0022399460 -0.0170681310 0 0
-0.0040922080 -0.0186241140 0 0
-0.0055136370 -0.0198289460 0 0
-0.0063891640 -0.0205627460 0 0
-0.0066438760 -0.0207489680 0 0
-0.0062488120 -0.0203630450 0 0
-0.0052278950 -0.0194358940 0 0
-0.0036590000 -0.0180516560 0 0
-0.0016652530 -0.0163392510 0 0
0.0005977080 -0.0144590330 0 0
0.0029512850 -0.0125872890 0 0
0.0052017320 -0.0109002480 0 0
0.0071531790 -0.0095571620 0 0
0.0086288200 -0.0086823260 0 0
0.0094951230 -0.0083488930 0 0
0.0096795300 -0.0085691340 0 0
0.0091768990 -0.0092938730 0 0
0.0080472640 -0.0104202120 0 0
0.0064073370 -0.0118048070 0 0
0.0044149580 -0.0132805920 0 0
0.0022484190 -0.0146752450 0 0
0.0000859443 -0.0158290970 0 0
-0.0019106530 -0.0166098480 0 0
-0.0036064820 -0.0169225500 0 0
-0.0049000450 -0.0167155400 0 0
-0.0057311790 -0.0159839230 0 0
-0.0060923290 -0.0147704130 0 0
-0.0060351600 -0.0131618200 0 0
-0.0056626310 -0.0112808560 0 0
-0.0051079150 -0.0092749370 0 0
-0.0045120900 -0.0073035040 0 0
-0.0040088180 -0.0055237030 0 0
-0.0037145600 -0.0040746330 0 0
-0.0037201330 -0.0030626940 0 0
-0.0040816480 -0.0025513800 0 0
-0.0048121200 -0.0025566990 0 0
-0.0058774850 -0.0030470260 0 0
-0.0071996650 -0.0039461820 0 0
-0.0086659660 -0.0051398700 0 0
-0.0101425090 -0.0064860480 0 0
-0.0114896390 -0.0078288570 0 0
-0.0125774720 -0.0090143140 0 0
-0.0132988380 -0.0099056080 0 0
-0.0135778030 -0.0103967570 0 0
-0.0133755530 -0.0104237340 0 0
-0.0126946400 -0.0099707820 0 0
-0.0115783210 -0.0090698790 0 0
-0.0101041800 -0.0077951170 0 0
-0.0083770280 -0.0062557300 0 0
-0.0065239920 -0.0045884250 0 0
-0.0046890520 -0.0029466080 0 0
-0.0030235930 -0.0014855280 0 0
-0.0016722030 -0.0003452490 0 0
-0.0007556940 0.0003653430 0 0
-0.0003550040 0.0005804840 0 0
-0.0005000120 0.0002835560 0 0
-0.0011651930 -0.0004928880 0 0
-0.0022712450 -0.0016710980 0 0
-0.0036923680 -0.0031339460 0 0
-0.0052711480 -0.0047326940 0 0
-0.0068403360 -0.0062984920 0 0
-0.0082440680 -0.0076582830 0 0
-0.0093503610 -0.0086539890 0 0
-0.0100552900 -0.0091627220 0 0
-0.0102861060 -0.0091140050 0 0
-0.0100086070 -0.0084997160 0 0
-0.0092375820 -0.0073753250 0 0
-0.0080431580 -0.0058535140 0 0
-0.0065447970 -0.0040909960 0 0
-0.0048925260 -0.0022694820 0 0
-0.0032445040 -0.0005745090 0 0
-0.0017505810 0.0008228150 0 0
-0.0005439860 0.0017792600 0 0
0.0002637910 0.0021901760 0 0
0.0005907860 0.0019995430 0 0
0.0003957190 0.0012080630 0 0
-0.0003114160 -0.0001241640 0 0
-0.0014635680 -0.0018821920 0 0
-0.0029386340 -0.0039071610 0 0
-0.0045710880 -0.0060120930 0 0
-0.0061716300 -0.0080007970 0 0
-0.0075496780 -0.0096871370 0 0
-0.0085334600 -0.0109127950 0 0
-0.0089847990 -0.0115631290 0 0
-0.0088093330 -0.0115790580 0 0
-0.0079661700 -0.0109617430 0 0
-0.0064785450 -0.0097700330 0 0
-0.0044404260 -0.0081139380 0 0
-0.0020125080 -0.0061461500 0 0
0.0005935040 -0.0040505740 0 0
0.0031388410 -0.0020266230 0 0
0.0053866510 -0.0002704670 0 0
0.0071317970 0.0010440890 0 0
0.0082242960 0.0017832960 0 0
0.0085823530 0.0018685140 0 0
0.0081971030 0.0012864790 0 0
0.0071309680 0.0000920692 0 0
0.0055101060 -0.0015980950 0 0
0.0035140130 -0.0036203430 0 0
0.0013632860 -0.0057832560 0 0
-0.0006995730 -0.0078869540 0 0
-0.0024378920 -0.0097398860 0 0
-0.0036489520 -0.0111738640 0 0
-0.0041855630 -0.0120592650 0 0
-0.0039705490 -0.0123201250 0 0
-0.0030011470 -0.0119449620 0 0
-0.0013403190 -0.0109882020 0 0
0.0008965240 -0.0095610260 0 0
0.0035482730 -0.0078158300 0 0
0.0064115760 -0.0059297870 0 0
0.0092520630 -0.0040893030 0 0
0.0118260310 -0.0024736530 0 0
0.0139074610 -0.0012371720 0 0
0.0153147640 -0.0004928510 0 0
0.0159330800 -0.0003010680 0 0
0.0157288210 -0.0006652790 0 0
0.0147534700 -0.0015340350 0 0
0.0131358840 -0.0028073580 0 0
0.0110653630 -0.0043458960 0 0
0.0087675530 -0.0059827410 0 0
0.0064755590 -0.0075388600 0 0
0.0044022480 -0.0088421490 0 0
0.0027205740 -0.0097473490 0 0
0.0015538440 -0.0101524100 0 0
0.0009731890 -0.0100083590 0 0
0.0009991730 -0.0093221110 0 0
0.0016046410 -0.0081533860 0 0
0.0027144230 -0.0066077540 0 0
0.0042014310 -0.0048267760 0 0
0.0058880900 -0.0029748200 0 0
0.0075623300 -0.0012230950 0 0
0.0090053410 0.0002668520 0 0
0.0100202630 0.0013583290 0 0
0.0104552420 0.0019523000 0 0
0.0102205800 0.0019967310 0 0
0.0092999690 0.0014913110 0 0
0.0077534950 0.0004870040 0 0
0.0057111180 -0.0009192830 0 0
0.0033583990 -0.0025943430 0 0
0.0009168210 -0.0043821030 0 0
-0.0013799360 -0.0061192470 0 0
-0.0033108980 -0.0076502380 0 0
-0.0046893950 -0.0088399640 0 0
-0.0053803050 -0.0095845230 0 0
-0.0053151890 -0.0098208960 0 0
-0.0045039410 -0.0095343430 0 0
-0.0030373060 -0.0087609060 0 0
-0.0010766950 -0.0075830880 0 0
0.0011677690 -0.0061195880 0 0
0.0034669040 -0.0045123470 0 0
0.0056021070 -0.0029139930 0 0
0.0073859040 -0.0014766630 0 0
0.0086699780 -0.0003411490 0 0
0.0093461250 0.0003747760 0 0
0.0093484870 0.0005883270 0 0
0.0086604420 0.0002618630 0 0
0.0073238360 -0.0005908270 0 0
0.0054451230 -0.0019028130 0 0
0.0031912230 -0.0035569440 0 0
0.0007717230 -0.0053942530 0 0
-0.0015872530 -0.0072291320 0 0
-0.0036695640 -0.0088705870 0 0
-0.0052929210 -0.0101457570 0 0
-0.0063276310 -0.0109207940 0 0
-0.0067045940 -0.0111159870 0 0
-0.0064120730 -0.0107144060 0 0
-0.0054894620 -0.0097638450 0 0
-0.0040241300 -0.0083714240 0 0
-0.0021490170 -0.0066908920 0 0
-0.0000360812 -0.0049042890 0 0
0.0021164390 -0.0032010930 0 0
0.0041020740 -0.0017582450 0 0
0.0057273410 -0.0007230620 0 0
0.0068339500 -0.0001989860 0 0
0.0073183800 -0.0002345520 0 0
0.0071431110 -0.0008181370 0 0
0.0063371500 -0.0018805840 0 0
0.0049910630 -0.0033042760 0 0
0.0032512620 -0.0049358560 0 0
0.0013099730 -0.0066018230 0 0
-0.0006145020 -0.0081271430 0 0
-0.0023047080 -0.0093547410 0 0
-0.0035696440 -0.0101613520 0 0
-0.0042633220 -0.0104664320 0 0
-0.0042967180 -0.0102351460 0 0
-0.0036453530 -0.0094789080 0 0
-0.0023533640 -0.0082550450 0 0
-0.0005323950 -0.0066642820 0 0
0.0016484610 -0.0048442960 0 0
0.0039819940 -0.0029584600 0 0
0.0062447430 -0.0011800540 0 0
0.0082157110 0.0003258780 0 0
0.0096943030 0.0014195260 0 0
0.0105211690 0.0019997950 0 0
0.0105989600 0.0020136800 0 0
0.0099066890 0.0014612460 0 0
0.0085041970 0.0003954040 0 0
0.0065250900 -0.0010839180 0 0
0.0041579180 -0.0028401670 0 0
0.0016217780 -0.0047133630 0 0
-0.0008529840 -0.0065350020 0 0
-0.0030365280 -0.0081434560 0 0
-0.0047130110 -0.0093976350 0 0
-0.0057028480 -0.0101879420 0 0
-0.0058882280 -0.0104456050 0 0
-0.0052305540 -0.0101507280 0 0
-0.0037748500 -0.0093370460 0 0
-0.0016439950 -0.0080911230 0 0
0.0009746160 -0.0065454280 0 0
0.0038509260 -0.0048659010 0 0
0.0067410180 -0.0032346350 0 0
0.0094152220 -0.0018291040 0 0
0.0116775820 -0.0008010030 0 0
0.0133766000 -0.0002583490 0 0
0.0144130010 -0.0002539100 0 0
0.0147464420 -0.0007816160 0 0
0.0143981930 -0.0017807870 0 0
0.0134480000 -0.0031463380 0 0
0.0120259910 -0.0047419690 0 0
0.0103006650 -0.0064141500 0 0
0.0084634180 -0.0080068490 0 0
0.0067098840 -0.0093767600 0 0
0.0052195780 -0.0104063620 0 0
0.0041368320 -0.0110122220 0 0
0.0035559010 -0.0111493690 0 0
0.0035123880 -0.0108136510 0 0
0.0039826630 -0.0100418230 0 0
0.0048910260 -0.0089087320 0 0
0.0061216950 -0.0075223810 0 0
0.0075315620 -0.0060171480 0 0
0.0089615360 -0.0045442760 0 0
0.0102479060 -0.0032593070 0 0
0.0112364290 -0.0023068520 0 0
0.0117989500 -0.0018040110 0 0
0.0118491120 -0.0018256610 0 0
0.0113536270 -0.0023950190 0 0
0.0103378420 -0.0034804890 0 0
0.0088861340 -0.0049981120 0 0
0.0071367760 -0.0068187950 0 0
0.0052685880 -0.0087795720 0 0
0.0034779300 -0.0106982070 0 0
0.0019512630 -0.0123905480 0 0
0.0008425390 -0.0136893500 0 0
0.0002597860 -0.0144625200 0 0
0.0002581490 -0.0146283850 0 0
0.0008362790 -0.0141656380 0 0
0.0019363690 -0.0131160420 0 0
0.0034499850 -0.0115796640 0 0
0.0052304800 -0.0097042370 0 0
0.0071080430 -0.0076699020 0 0
0.0089017530 -0.0056696790 0 0
0.0104294050 -0.0038876680 0 0
0.0115214070 -0.0024792480 0 0
0.0120412670 -0.0015568310 0 0
0.0119067500 -0.0011821790 0 0
0.0111028620 -0.0013641420 0 0
0.0096830400 -0.0020600040 0 0
0.0077617240 -0.0031796410 0 0
0.0055031400 -0.0045932570 0 0
0.0031077090 -0.0061438610 0 0
0.0007949010 -0.0076642590 0 0
-0.0012167890 -0.0089957000 0 0
-0.0027304080 -0.0100042270 0 0
-0.0035912690 -0.0105927660 0 0
-0.0037073140 -0.0107091810 0 0
-0.0030643490 -0.0103500610 0 0
-0.0017298420 -0.0095589490 0 0
0.0001560650 -0.0084192410 0 0
0.0023983510 -0.0070445990 0 0
0.0047692750 -0.0055692840 0 0
0.0070325390 -0.0041382320 0 0
0.0089686720 -0.0028958840 0 0
0.0104001320 -0.0019735840 0 0
0.0112113340 -0.0014761690 0 0
0.0113584510 -0.0014692610 0 0
0.0108688540 -0.0019700250 0 0
0.0098335320 -0.0029440380 0 0
0.0083945870 -0.0043084770 0 0
0.0067281830 -0.0059398440 0 0
0.0050235400 -0.0076854270 0 0
0.0034603820 -0.0093790880 0 0
0.0021905230 -0.0108603020 0 0
0.0013297840 -0.0119926880 0 0
0.0009592010 -0.0126782430 0 0
0.0011265400 -0.0128655370 0 0
0.0018419910 -0.0125520510 0 0
0.0030714060 -0.0117822530 0 0
0.0047328230 -0.0106432730 0 0
0.0066977370 -0.0092584260 0 0
0.0087980280 -0.0077775420 0 0
0.0108414340 -0.0063635920 0 0
0.0126343760 -0.0051766080 0 0
0.0140047490 -0.0043574230 0 0
0.0148196350 -0.0040139770 0 0
0.0149995030 -0.0042102250 0 0
0.0145291480 -0.0049559410 0 0
0.0134609610 -0.0061989090 0 0
0.0119084620 -0.0078251520 0 0
0.0100327040 -0.0096711960 0 0
0.0080257820 -0.0115459390 0 0
0.0060952990 -0.0132557180 0 0
0.0044480180 -0.0146268170 0 0
0.0032651970 -0.0155222780 0 0
0.0026699220 -0.0158525640 0 0
0.0027011510 -0.0155811210 0 0
0.0033105810 -0.0147258070 0 0
0.0043834990 -0.0133567920 0 0
0.0057682070 -0.0115915830 0 0
0.0072978160 -0.0095871060 0 0
0.0088027680 -0.0075272110 0 0
0.0101217530 -0.0056043360 0 0
0.0111138530 -0.0039979570 0 0
0.0116683770 -0.0028555070 0 0
0.0117107340 -0.0022795050 0 0
0.0112073980 -0.0023200620 0 0
0.0101722600 -0.0029703490 0 0
0.0086720200 -0.0041649990 0 0
0.0068259170 -0.0057840880 0 0
0.0047962960 -0.0076646150 0 0
0.0027699590 -0.0096185690 0 0
0.0009345980 -0.0114546320 0 0
-0.0005440040 -0.0129998430 0 0
-0.0015409140 -0.0141167290 0 0
-0.0019858060 -0.0147124100 0 0
-0.0018679360 -0.0147400520 0 0
-0.0012300540 -0.0141971170 0 0
-0.0001561300 -0.0131248890 0 0
0.0012409280 -0.0116087970 0 0
0.0028307010 -0.0097749260 0 0
0.0044752550 -0.0077801490 0 0
0.0060344150 -0.0057981460 0 0
0.0073665610 -0.0040047840 0 0
0.0083310890 -0.0025638580 0 0
0.0087984080 -0.0016121380 0 0
0.0086674360 -0.0012435850 0 0
0.0078848890 -0.0014952800 0 0
0.0064580540 -0.0023390030 0 0
0.0044564390 -0.0036812430 0 0
0.0020063130 -0.0053724110 0 0
-0.0007161640 -0.0072241670 0 0
-0.0034956840 -0.0090316880 0 0
-0.0060979900 -0.0105969370 0 0
-0.0082974290 -0.0117500370 0 0
-0.0099038990 -0.0123666580 0 0
-0.0107851550 -0.0123793960 0 0
-0.0108839230 -0.0117822360 0 0
-0.0102256270 -0.0106285660 0 0
-0.0089114030 -0.0090237630 0 0
-0.0070991300 -0.0071139280 0 0
-0.0049824060 -0.0050723200 0 0
-0.0027739390 -0.0030837010 0 0
-0.0006913910 -0.0013270780 0 0
0.0010585220 0.0000406921 0 0
0.0022982580 0.0008981350 0 0
0.0028979980 0.0011697240 0 0
0.0027912110 0.0008349110 0 0
0.0019832740 -0.0000658649 0 0
0.0005518090 -0.0014319100 0 0
-0.0013594700 -0.0031124560 0 0
-0.0035516470 -0.0049250840 0 0
-0.0057861550 -0.0066772980 0 0
-0.0078063080 -0.0081857980 0 0
-0.0093655360 -0.0092915690 0 0
-0.0102591310 -0.0098724900 0 0
-0.0103524460 -0.0098549200 0 0
-0.0095986710 -0.0092229860 0 0
-0.0080435310 -0.0080227410 0 0
-0.0058188990 -0.0063596950 0 0
-0.0031281200 -0.0043898770 0 0
-0.0002231070 -0.0023051040 0 0
0.0026264640 -0.0003134970 0 0
0.0051661360 0.0013825290 0 0
0.0071838500 0.0026076720 0 0
0.0085275530 0.0032320510 0 0
0.0091136540 0.0031851050 0 0
0.0089279360 0.0024637520 0 0
0.0080214400 0.0011329180 0 0
0.0065037840 -0.0006825750 0 0
0.0045341990 -0.0028130840 0 0
0.0023080660 -0.0050623840 0 0
0.0000366729 -0.0072260600 0 0
-0.0020781410 -0.0091091470 0 0
-0.0038666650 -0.0105424110 0 0
-0.0052034800 -0.0113965440 0 0
-0.0060101290 -0.0115942350 0 0
-0.0062563360 -0.0111193060 0 0
-0.0059639280 -0.0100201800 0 0
-0.0052094180 -0.0084055520 0 0
-0.0041200740 -0.0064328810 0 0
-0.0028631980 -0.0042918050 0 0
-0.0016298220 -0.0021844560 0 0
-0.0006124020 -0.0003050810 0 0
0.0000209618 0.0011780600 0 0
0.0001489570 0.0021368790 0 0
-0.0002890790 0.0024940140 0 0
-0.0012889020 0.0022301150 0 0
-0.0027862440 0.0013866150 0 0
-0.0046692480 0.0000619196 0 0
-0.0067936810 -0.0015995920 0 0
-0.0089959820 -0.0034230930 0 0
-0.0111048190 -0.0052194680 0 0
-0.0129536100 -0.0068010550 0 0
-0.0143912270 -0.0079989170 0 0
-0.0152876410 -0.0086821400 0 0
-0.0155385320 -0.0087753440 0 0
-0.0150757580 -0.0082689220 0 0
-0.0138854280 -0.0072192860 0 0
-0.0120277110 -0.0057404230 0 0
-0.0096463320 -0.0039898350 0 0
-0.0069573690 -0.0021516740 0 0
-0.0042193060 -0.0004193390 0 0
-0.0016970210 0.0010214660 0 0
0.0003701340 0.0020094640 0 0
0.0017942880 0.0024244230 0 0
0.0024588570 0.0022019570 0 0
0.0023295550 0.0013430150 0 0
0.0014539880 -0.0000852780 0 0
-0.0000502408 -0.0019584510 0 0
-0.0020153410 -0.0041112160 0 0
-0.0042443830 -0.0063576210 0 0
-0.0065286620 -0.0085105820 0 0
-0.0086614820 -0.0103983910 0 0
-0.0104515970 -0.0118776130 0 0
-0.0117384630 -0.0128421450 0 0
-0.0124078400 -0.0132284610 0 0
-0.0124039320 -0.0130183630 0 0
-0.0117347890 -0.0122407090 0 0
-0.0104698570 -0.0109719710 0 0
-0.0087314650 -0.0093334210 0 0
-0.0066847660 -0.0074828130 0 0
-0.0045282820 -0.0056005940 0 0
-0.0024804340 -0.0038721400 0 0
-0.0007570540 -0.0024680030 0 0
0.0004569760 -0.0015247170 0 0
0.0010337210 -0.0011290790 0 0
0.0009185640 -0.0013086510 0 0
0.0001317100 -0.0020297820 0 0
-0.0012437800 -0.0032021400 0 0
-0.0030757610 -0.0046881180 0 0
-0.0051884260 -0.0063175810 0 0
-0.0073645900 -0.0079085380 0 0
-0.0093574580 -0.0092900360 0 0
-0.0109163390 -0.0103213560 0 0
-0.0118216400 -0.0109048250 0 0
-0.0119194080 -0.0109930080 0 0
-0.0111435190 -0.0105908380 0 0
-0.0095206020 -0.0097520230 0 0
-0.0071647290 -0.0085701450 0 0
-0.0042712740 -0.0071674270 0 0
-0.0011097070 -0.0056849400 0 0
0.0019930660 -0.0042756290 0 0
0.0046841990 -0.0030978960 0 0
0.0066284110 -0.0023054660 0 0
0.0075550120 -0.0020312230 0 0
0.0072970020 -0.0023679020 0 0
0.0058113530 -0.0033519510 0 0
0.0031756520 -0.0049556320 0 0
-0.0004346800 -0.0070890170 0 0
-0.0047770210 -0.0096108690 0 0
-0.0095699320 -0.0123461990 0 0
-0.0145178390 -0.0151070450 0 0
-0.0193342390 -0.0177121990 0 0
-0.0237637100 -0.0200035920 0 0
-0.0276027230 -0.0218597060 0 0
-0.0307178440 -0.0232062780 -1 0
-0.0330569010 -0.0240229260 -1 0
-0.0346511030 -0.0243445180 -1 0
-0.0356106150 -0.0242578010 -1 0
-0.0361136400 -0.0238942720 -1 0
-0.0363853200 -0.0234193340 -1 0
-0.0366675730 -0.0230177670 -1 0
-0.0371883350 -0.0228764360 -1 0
-0.0381385150 -0.0231652940 -1 0
-0.0396590210 -0.0240181000 -1 0
-0.0418358000 -0.0255158820 -1 0
-0.0446993680 -0.0276771830 -1 0
-0.0482247890 -0.0304568160 -1 -1
-0.0523304740 -0.0337509580 -1 -1
-0.0568794150 -0.0374054270 -1 -1
-0.0616884650 -0.0412271140 -1 -1
-0.0665470130 -0.0450008510 -1 -1
-0.0712402810 -0.0485118000 -1 -1
-0.0755712090 -0.0515698790 -1 -1
-0.0793801360 -0.0540315580 -1 -1
-0.0825661260 -0.0558152700 -1 -1
-0.0851078860 -0.0569086200 -1 -1
-0.0870711520 -0.0573679640 -1 -1
-0.0885917980 -0.0573117730 -1 -1
-0.0898409110 -0.0569077650 -1 -1
-0.0909891230 -0.0563535280 -1 -1
-0.0921834350 -0.0558527800 -1 -1
-0.0935401790 -0.0555914050 -1 -1
-0.0951493300 -0.0557169040 -1 -1
-0.0970816290 -0.0563235130 -1 -1
-0.0993913250 -0.0574446030 -1 -1
-0.1021104130 -0.0590533790 -1 -1
-0.1052351180 -0.0610715130 -1 -1
-0.1087116910 -0.0633833450 -1 -1
-0.1124310150 -0.0658515710 -1 -1
-0.1162369640 -0.0683309820 -1 -1
-0.1199457540 -0.0706801370 -1 -1
-0.1233700330 -0.0727723870 -1 -1
-0.1263422280 -0.0745054780 -1 -1
-0.1287332530 -0.0758078400 -1 -1
-0.1304652190 -0.0766422340 -1 -1
-0.1315188920 -0.0770089150 -1 -1
-0.1319363060 -0.0769483470 -1 -1
-0.1318170950 -0.0765411340 -1 -1
-0.1313076710 -0.0759029180 -1 -1
-0.1305855010 -0.0751735320 -1 -1
-0.1298422060 -0.0745012350 -1 -1
-0.1292672450 -0.0740248040 -1 -1
-0.1290319840 -0.0738575240 -1 -1
-0.1292734930 -0.0740759020 -1 -1
-0.1300781700 -0.0747132960 -1 -1
-0.1314674270 -0.0757578300 -1 -1
-0.1333907420 -0.0771546870 -1 -1
-0.1357310060 -0.0788122780 -1 -1
-0.1383216800 -0.0806107860 -1 -1
-0.1409688880 -0.0824121160 -1 -1
-0.1434703410 -0.0840713220 -1 -1
-0.1456281890 -0.0854493040 -1 -1
-0.1472598950 -0.0864260400 -1 -1
-0.1482144440 -0.0869131120 -1 -1
-0.1483960250 -0.0868635780 -1 -1
-0.1477868360 -0.0862774170 -1 -1
-0.1464555040 -0.0852022510 -1 -1
-0.1445438920 -0.0837303490 -1 -1
-0.1422386930 -0.0819925740 -1 -1
-0.1397435240 -0.0801489590 -1 -1
-0.1372624380 -0.0783759350 -1 -1
-0.1349928370 -0.0768509840 -1 -1
-0.1331192130 -0.0757350160 -1 -1
-0.1318018720 -0.0751531980 -1 -1
-0.1311595940 -0.0751774160 -1 -1
-0.1312490260 -0.0758153570 -1 -1
-0.1320484120 -0.0770098240 -1 -1
-0.1334543060 -0.0786483250 -1 -1
-0.1352932070 -0.0805790010 -1 -1
-0.1373434330 -0.0826278230 -1 -1
-0.1393628670 -0.0846149660 -1 -1
-0.1411195730 -0.0863711860 -1 -1
-0.1424200650 -0.0877537710 -1 -1
-0.1431286890 -0.0886594740 -1 -1
-0.1431753880 -0.0890323950 -1 -1
-0.1425549170 -0.0888667850 -1 -1
-0.1413234090 -0.0882057060 -1 -1
-0.1395959310 -0.0871360810 -1 -1
-0.1375418930 -0.0857798760 -1 -1
-0.1353706380 -0.0842820030 -1 -1
-0.1333060410 -0.0827969600 -1 -1
-0.1315589600 -0.0814758070 -1 -1
-0.1303060610 -0.0804535540 -1 -1
-0.1296757450 -0.0798367690 -1 -1
-0.1297386980 -0.0796922530 -1 -1
-0.1305028500 -0.0800389060 -1 -1
-0.1319130360 -0.0808447450 -1 -1
-0.1338545750 -0.0820295720 -1 -1
-0.1361609290 -0.0834727070 -1 -1
-0.1386268560 -0.0850251160 -1 -1
-0.1410274170 -0.0865249530 -1 -1
-0.1431404740 -0.0878143110 -1 -1
-0.1447680520 -0.0887542990 -1 -1
-0.1457537010 -0.0892368790 -1 -1
-0.1459972520 -0.0891939400 -1 -1
-0.1454677200 -0.0886047370 -1 -1
-0.1442094930 -0.0875010350 -1 -1
-0.1423364920 -0.0859672140 -1 -1
-0.1400166100 -0.0841331840 -1 -1
-0.1374533530 -0.0821607030 -1 -1
-0.1348673680 -0.0802255380 -1 -1
-0.1324766160 -0.0784985880 -1 -1
-0.1304765790 -0.0771288020 -1 -1
-0.1290250770 -0.0762297080 -1 -1
-0.1282341150 -0.0758698180 -1 -1
-0.1281653250 -0.0760668670 -1 -1
-0.1288219860 -0.0767869050 -1 -1
-0.1301349340 -0.0779489730 -1 -1
-0.1319514950 -0.0794341970 -1 -1
-0.1340426850 -0.0810972150 -1 -1
-0.1361335500 -0.0827785360 -1 -1
-0.1379454360 -0.0843174150 -1 -1
-0.1392349500 -0.0855647690 -1 -1
-0.1398226570 -0.0863954250 -1 -1
-0.1396120170 -0.0867197140 -1 -1
-0.1385989030 -0.0864948400 -1 -1
-0.1368685780 -0.0857345680 -1 -1
-0.1345784830 -0.0845133910 -1 -1
-0.1319317550 -0.0829613670 -1 -1
-0.1291498830 -0.0812490220 -1 -1
-0.1264498470 -0.0795655260 -1 -1
-0.1240273070 -0.0780954630 -1 -1
-0.1220460320 -0.0769987300 -1 -1
-0.1206315390 -0.0763949540 -1 -1
-0.1198655030 -0.0763516460 -1 -1
-0.1197798740 -0.0768768360 -1 -1
-0.1203519700 -0.0779187160 -1 -1
-0.1215018240 -0.0793730870 -1 -1
-0.1230939760 -0.0810962020 -1 -1
-0.1249473600 -0.0829197800 -1 -1
-0.1268547310 -0.0846668100 -1 -1
-0.1286085000 -0.0861677810 -1 -1
-0.1300263770 -0.0872759490 -1 -1
-0.1309696870 -0.0878803450 -1 -1
-0.1313508370 -0.0879166590 -1 -1
-0.1311330230 -0.0873755970 -1 -1
-0.1303293030 -0.0863067740 -1 -1
-0.1290054280 -0.0848160950 -1 -1
-0.1272828920 -0.0830556360 -1 -1
-0.1253343930 -0.0812069810 -1 -1
-0.1233686490 -0.0794614160 -1 -1
-0.1216085100 -0.0780002940 -1 -1
-0.1202670960 -0.0769764540 -1 -1
-0.1195242250 -0.0764974950 -1 -1
-0.1195059360 -0.0766136920 -1 -1
-0.1202706600 -0.0773134840 -1 -1
-0.1218015600 -0.0785273580 -1 -1
-0.1240018960 -0.0801382320 -1 -1
-0.1266956990 -0.0819947720 -1 -1
-0.1296412690 -0.0839251340 -1 -1
-0.1325598920 -0.0857508710 -1 -1
-0.1351729160 -0.0873014310 -1 -1
-0.1372385100 -0.0884290300 -1 -1
-0.1385824340 -0.0890229820 -1 -1
-0.1391169470 -0.0890219730 -1 -1
-0.1388433070 -0.0884226860 -1 -1
-0.1378407990 -0.0872833660 -1 -1
-0.1362491580 -0.0857207880 -1 -1
-0.1342483110 -0.0838988890 -1 -1
-0.1320376720 -0.0820087930 -1 -1
-0.1298177400 -0.0802438240 -1 -1
-0.1277757970 -0.0787759130 -1 -1
-0.1260756720 -0.0777378420 -1 -1
-0.1248498770 -0.0772120470 -1 -1
-0.1241919030 -0.0772257360 -1 -1
-0.1241470950 -0.0777522960 -1 -1
-0.1247030300 -0.0787176660 -1 -1
-0.1257853790 -0.0800093350 -1 -1
-0.1272666310 -0.0814865740 -1 -1
-0.1289869700 -0.0829921320 -1 -1
-0.1307765260 -0.0843657170 -1 -1
-0.1324679890 -0.0854583260 -1 -1
-0.1338985930 -0.0861458750 -1 -1
-0.1349110110 -0.0863411120 -1 -1
-0.1353641730 -0.0860030980 -1 -1
-0.1351556330 -0.0851428280 -1 -1
-0.1342453020 -0.0838227750 -1 -1
-0.1326677800 -0.0821493780 -1 -1
-0.1305295280 -0.0802607140 -1 -1
-0.1279970750 -0.0783132500 -1 -1
-0.1252827520 -0.0764694950 -1 -1
-0.1226277310 -0.0748853700 -1 -1
-0.1202787650 -0.0736963250 -1 -1
-0.1184584940 -0.0730032480 -1 -1
-0.1173347040 -0.0728600830 -1 -1
-0.1169957450 -0.0732653740 -1 -1
-0.1174372280 -0.0741599030 -1 -1
-0.1185633180 -0.0754314780 -1 -1
-0.1202039250 -0.0769263020 -1 -1
-0.1221425110 -0.0784649620 -1 -1
-0.1241433620 -0.0798605150 -1 -1
-0.1259722610 -0.0809369470 -1 -1
-0.1274147850 -0.0815471260 -1 -1
-0.1282974400 -0.0815889000 -1 -1
-0.1285096800 -0.0810170670 -1 -1
-0.1280207150 -0.0798493930 -1 -1
-0.1268861850 -0.0781655150 -1 -1
-0.1252420480 -0.0760980280 -1 -1
-0.1232859140 -0.0738173500 -1 -1
-0.1212491480 -0.0715148540 -1 -1
-0.1193643220 -0.0693870370 -1 -1
-0.1178343330 -0.0676193900 -1 -1
-0.1168113240 -0.0663690880 -1 -1
-0.1163892910 -0.0657490780 -1 -1
-0.1166066590 -0.0658166670 -1 -1
-0.1174520470 -0.0665681960 -1 -1
-0.1188683400 -0.0679400410 -1 -1
-0.1207539420 -0.0698153820 -1 -1
-0.1229641480 -0.0720356680 -1 -1
-0.1253177040 -0.0744154270 -1 -1
-0.1276104500 -0.0767587360 -1 -1
-0.1296336880 -0.0788754300 -1 -1
-0.1311966490 -0.0805956650 -1 -1
-0.1321548480 -0.0817832160 -1 -1
-0.1324377400 -0.0823484800 -1 -1
-0.1320589940 -0.0822599310 -1 -1
-0.1311009800 -0.0815508710 -1 -1
-0.1296856790 -0.0803193260 -1 -1
-0.1279516440 -0.0787202890 -1 -1
-0.1260456500 -0.0769494170 -1 -1
-0.1241237540 -0.0752187760 -1 -1
-0.1223507710 -0.0737289360 -1 -1
-0.1208918820 -0.0726439600 -1 -1
-0.1198976920 -0.0720744220 -1 -1
-0.1194857000 -0.0720702540 -1 -1
-0.1197200080 -0.0726223280 -1 -1
-0.1205936420 -0.0736696060 -1 -1
-0.1220209640 -0.0751080690 -1 -1
-0.1238460960 -0.0767999390 -1 -1
-0.1258667040 -0.0785847760 -1 -1
-0.1278651560 -0.0802942620 -1 -1
-0.1296367490 -0.0817698230 -1 -1
-0.1310090890 -0.0828794030 -1 -1
-0.1318532820 -0.0835297950 -1 -1
-0.1320904620 -0.0836736490 -1 -1
-0.1316960650 -0.0833119860 -1 -1
-0.1307020480 -0.0824926730 -1 -1
-0.1291955750 -0.0813053740 -1 -1
-0.1273137670 -0.0798736880 -1 -1
-0.1252353470 -0.0783442770 -1 -1
-0.1231663690 -0.0768727230 -1 -1
-0.1213167190 -0.0756077090 -1 -1
-0.1198724130 -0.0746761550 -1 -1
-0.1189729210 -0.0741712860 -1 -1
-0.1186974460 -0.0741442290 -1 -1
-0.1190597040 -0.0745990190 -1 -1
-0.1200100520 -0.0754913690 -1 -1
-0.1214428980 -0.0767321290 -1 -1
-0.1232077310 -0.0781951640 -1 -1
-0.1251235120 -0.0797283030 -1 -1
-0.1269959880 -0.0811666810 -1 -1
-0.1286368350 -0.0823480570 -1 -1
-0.1298824250 -0.0831281820 -1 -1
-0.1306083670 -0.0833938970 -1 -1
-0.1307371660 -0.0830736900 -1 -1
-0.1302405280 -0.0821466580 -1 -1
-0.1291400490 -0.0806494070 -1 -1
-0.1275080680 -0.0786783360 -1 -1
-0.1254670890 -0.0763842460 -1 -1
-0.1231845000 -0.0739578420 -1 -1
-0.1208596090 -0.0716082240 -1 -1
-0.1187022060 -0.0695397790 -1 -1
-0.1169066940 -0.0679317430 -1 -1
-0.1156309630 -0.0669209430 -1 -1
-0.1149878630 -0.0665875020 -1 -1
-0.1150453320 -0.0669461300 -1 -1
-0.1158204760 -0.0679464460 -1 -1
-0.1172611000 -0.0694821990 -1 -1
-0.1192283730 -0.0714053290 -1 -1
-0.1214998290 -0.0735410470 -1 -1
-0.1237979540 -0.0757032870 -1 -1
-0.1258347340 -0.0777112320 -1 -1
-0.1273582620 -0.0794060120 -1 -1
-0.1281900240 -0.0806651080 -1 -1
-0.1282452060 -0.0814122680 -1 -1
-0.1275327110 -0.0816217140 -1 -1
-0.1261395580 -0.0813165150 -1 -1
-0.1242106550 -0.0805626790 -1 -1
-0.1219315640 -0.0794615060 -1 -1
-0.1195135840 -0.0781415210 -1 -1
-0.1171778150 -0.0767492090 -1 -1
-0.1151373420 -0.0754372080 -1 -1
-0.1135784660 -0.0743501360 -1 -1
-0.1126421420 -0.0736096550 -1 -1
-0.1124076610 -0.0733003480 -1 -1
-0.1128823060 -0.0734582670 -1 -1
-0.1140019020 -0.0740646190 -1 -1
-0.1156438250 -0.0750463210 -1 -1
-0.1176453010 -0.0762841220 -1 -1
-0.1198176230 -0.0776277790 -1 -1
-0.1219573090 -0.0789156640 -1 -1
-0.1238618410 -0.0799948610 -1 -1
-0.1253504590 -0.0807382130 -1 -1
-0.1262828300 -0.0810560410 -1 -1
-0.1265704060 -0.0809022030 -1 -1
-0.1261817110 -0.0802762130 -1 -1
-0.1251455520 -0.0792232270 -1 -1
-0.1235534060 -0.0778315380 -1 -1
-0.1215561890 -0.0762256480 -1 -1
-0.1193477330 -0.0745543820 -1 -1
-0.1171348670 -0.0729759600 -1 -1
-0.1151066360 -0.0716429500 -1 -1
-0.1134168380 -0.0706887680 -1 -1
-0.1121809310 -0.0702152080 -1 -1
-0.1114760020 -0.0702806060 -1 -1
-0.1113345300 -0.0708909560 -1 -1
-0.1117346270 -0.0719972500 -1 -1
-0.1125966860 -0.0734995860 -1 -1
-0.1137924130 -0.0752565670 -1 -1
-0.1151627890 -0.0770987470 -1 -1
-0.1165371040 -0.0788447080 -1 -1
-0.1177495430 -0.0803176120 -1 -1
-0.1186542800 -0.0813610090 -1 -1
-0.1191375790 -0.0818544930 -1 -1
-0.1191233100 -0.0817293970 -1 -1
-0.1185742060 -0.0809818100 -1 -1
-0.1174957760 -0.0796784140 -1 -1
-0.1159443510 -0.0779518100 -1 -1
-0.1140333590 -0.0759852520 -1 -1
-0.1119309480 -0.0739900420 -1 -1
-0.1098457000 -0.0721803900 -1 -1
-0.1080012650 -0.0707495860 -1 -1
-0.1066040610 -0.0698498020 -1 -1
-0.1058121740 -0.0695770810 -1 -1
-0.1057149660 -0.0699626350 -1 -1
-0.1063266240 -0.0709714100 -1 -1
-0.1075887260 -0.0725084180 -1 -1
-0.1093769830 -0.0744314850 -1 -1
-0.1115127780 -0.0765671470 -1 -1
-0.1137808900 -0.0787268490 -1 -1
-0.1159520930 -0.0807221960 -1 -1
-0.1178086840 -0.0823791060 -1 -1
-0.1191713460 -0.0835517890 -1 -1
-0.1199240100 -0.0841372540 -1 -1
-0.1200301190 -0.0840882660 -1 -1
-0.1195320700 -0.0834200660 -1 -1
-0.1185320610 -0.0822078260 -1 -1
-0.1171648050 -0.0805759180 -1 -1
-0.1155779250 -0.0786826910 -1 -1
-0.1139260830 -0.0767044460 -1 -1
-0.1123691460 -0.0748207010 -1 -1
-0.1110623720 -0.0732005340 -1 -1
-0.1101401200 -0.0719886520 -1 -1
-0.1097024390 -0.0712912360 -1 -1
-0.1098067680 -0.0711640970 -1 -1
-0.1104613390 -0.0716061160 -1 -1
-0.1116199700 -0.0725592600 -1 -1
-0.1131810720 -0.0739146340 -1 -1
-0.1149932360 -0.0755233890 -1 -1
-0.1168682660 -0.0772117490 -1 -1
-0.1186004850 -0.0787992790 -1 -1
-0.1199890040 -0.0801179700 -1 -1
-0.1208584640 -0.0810288130 -1 -1
-0.1210764120 -0.0814339930 -1 -1
-0.1205702970 -0.0812848440 -1 -1
-0.1193443830 -0.0805856320 -1 -1
-0.1174880560 -0.0793925680 -1 -1
-0.1151672480 -0.0778085820 -1 -1
-0.1126011620 -0.0759751860 -1 -1
-0.1100328200 -0.0740608800 -1 -1
-0.1077002530 -0.0722447650 -1 -1
-0.1058122790 -0.0706966210 -1 -1
-0.1045306090 -0.0695571190 -1 -1
-0.1039574070 -0.0689220420 -1 -1
-0.1041275400 -0.0688331660 -1 -1
-0.1050071060 -0.0692766910 -1 -1
-0.1064994000 -0.0701882850 -1 -1
-0.1084563520 -0.0714627670 -1 -1
-0.1106926050 -0.0729665420 -1 -1
-0.1130011910 -0.0745511280 -1 -1
-0.1151706620 -0.0760662170 -1 -1
-0.1170028740 -0.0773712260 -1 -1
-0.1183303460 -0.0783450280 -1 -1
-0.1190317400 -0.0788945040 -1 -1
-0.1190429220 -0.0789626530 -1 -1
-0.1183614930 -0.0785352140 -1 -1
-0.1170448810 -0.0776434110 -1 -1
-0.1152031900 -0.0763618510 -1 -1
-0.1129878340 -0.0748025990 -1 -1
-0.1105782820 -0.0731060220 -1 -1
-0.1081697270 -0.0714280750 -1 -1
-0.1059618350 -0.0699245720 -1 -1
-0.1041455330 -0.0687343350 -1 -1
-0.1028857480 -0.0679634680 -1 -1
-0.1023017640 -0.0676731280 -1 -1
-0.1024481630 -0.0678731830 -1 -1
-0.1032992590 -0.0685229010 -1 -1
-0.1047427480 -0.0695375190 -1 -1
-0.1065891180 -0.0707980880 -1 -1
-0.1085974110 -0.0721626410 -1 -1
-0.1105096120 -0.0734780320 -1 -1
-0.1120827400 -0.0745930280 -1 -1
-0.1131131830 -0.0753731530 -1 -1
-0.1134556130 -0.0757156590 -1 -1
-0.1130383870 -0.0755615440 -1 -1
-0.1118714110 -0.0749026040 -1 -1
-0.1100428440 -0.0737828090 -1 -1
-0.1077078780 -0.0722942130 -1 -1
-0.1050744810 -0.0705687440 -1 -1
-0.1023862780 -0.0687672420 -1 -1
-0.0999006690 -0.0670656380 -1 -1
-0.0978627430 -0.0656378830 -1 -1
-0.0964778520 -0.0646369170 -1 -1
-0.0958874530 -0.0641766650 -1 -1
-0.0961537460 -0.0643182080 -1 -1
-0.0972555070 -0.0650622360 -1 -1
-0.0990924620 -0.0663487430 -1 -1
-0.1014951640 -0.0680634550 -1 -1
-0.1042413840 -0.0700492810 -1 -1
-0.1070806290 -0.0721213590 -1 -1
-0.1097638100 -0.0740852480 -1 -1
-0.1120714470 -0.0757568550 -1 -1
-0.1138345500 -0.0769813100 -1 -1
-0.1149451600 -0.0776486060 -1 -1
-0.1153578450 -0.0777047710 -1 -1
-0.1150870650 -0.0771570050 -1 -1
-0.1142031390 -0.0760712780 -1 -1
-0.1128245760 -0.0745629890 -1 -1
-0.1111052540 -0.0727837930 -1 -1
-0.1092191250 -0.0709076370 -1 -1
-0.1073458880 -0.0691164430 -1 -1
-0.1056589790 -0.0675847270 -1 -1
-0.1043146870 -0.0664637290 -1 -1
-0.1034400330 -0.0658666930 -1 -1
-0.1031191790 -0.0658566970 -1 -1
-0.1033818640 -0.0664388190 -1 -1
-0.1041990470 -0.0675591450 -1 -1
-0.1054892520 -0.0691111650 -1 -1
-0.1071331350 -0.0709470680 -1 -1
-0.1089876110 -0.0728918460 -1 -1
-0.1108929930 -0.0747599740 -1 -1
-0.1126761790 -0.0763741270 -1 -1
-0.1141573930 -0.0775840510 -1 -1
-0.1151633280 -0.0782831350 -1 -1
-0.1155456760 -0.0784198290 -1 -1
-0.1152042740 -0.0780014530 -1 -1
-0.1141100420 -0.0770903910 -1 -1
-0.1123176580 -0.0757945890 -1 -1
-0.1099623420 -0.0742541380 -1 -1
-0.1072437230 -0.0726252660 -1 -1
-0.1044031440 -0.0710635610 -1 -1
-0.1016987170 -0.0697086260 -1 -1
-0.0993778160 -0.0686721820 -1 -1
-0.0976445460 -0.0680305680 -1 -1
-0.0966266890 -0.0678211370 -1 -1
-0.0963564300 -0.0680412680 -1 -1
-0.0967759380 -0.0686491360 -1 -1
-0.0977624650 -0.0695664960 -1 -1
-0.0991562430 -0.0706842970 -1 -1
-0.1007792360 -0.0718718600 -1 -1
-0.1024458680 -0.0729899700 -1 -1
-0.1039736930 -0.0739064800 -1 -1
-0.1051980660 -0.0745109680 -1 -1
-0.1059887170 -0.0747253730 -1 -1
-0.1062643350 -0.0745099740 -1 -1
-0.1060023240 -0.0738660220 -1 -1
-0.1052416830 -0.0728361550 -1 -1
-0.1040772500 -0.0715024240 -1 -1
-0.1026462260 -0.0699809010 -1 -1
-0.1011110480 -0.0684116900 -1 -1
-0.0996416760 -0.0669441160 -1 -1
-0.0983978300 -0.0657191720 -1 -1
-0.0975127240 -0.0648527790 -1 -1
-0.0970820080 -0.0644228190 -1 -1
-0.0971594690 -0.0644618050 -1 -1
-0.0977561360 -0.0649565910 -1 -1
-0.0988385870 -0.0658546560 -1 -1
-0.1003272860 -0.0670729990 -1 -1
-0.1020998330 -0.0685051170 -1 -1
-0.1040015980 -0.0700255390 -1 -1
-0.1058606980 -0.0714952260 -1 -1
-0.1075037010 -0.0727710950 -1 -1
-0.1087719500 -0.0737198780 -1 -1
-0.1095393570 -0.0742336760 -1 -1
-0.1097300490 -0.0742435920 -1 -1
-0.1093315800 -0.0737287920 -1 -1
-0.1083974560 -0.0727201590 -1 -1
-0.1070362170 -0.0712991870 -1 -1
-0.1053933120 -0.0695926110 -1 -1
-0.1036349380 -0.0677618350 -1 -1
-0.1019362220 -0.0659863570 -1 -1
-0.1004703820 -0.0644428660 -1 -1
-0.0993963130 -0.0632841160 -1 -1
-0.0988441810 -0.0626221340 -1 -1
-0.0988994040 -0.0625181620 -1 -1
-0.0995874210 -0.0629788680 -1 -1
-0.1008637550 -0.0639574710 -1 -1
-0.1026132130 -0.0653587700 -1 -1
-0.1046597310 -0.0670469470 -1 -1
-0.1067872270 -0.0688557700 -1 -1
-0.1087703520 -0.0706025340 -1 -1
-0.1104087760 -0.0721067370 -1 -1
-0.1115526630 -0.0732115190 -1 -1
-0.1121109770 -0.0738029850 -1 -1
-0.1120469600 -0.0738226030 -1 -1
-0.1113716450 -0.0732709320 -1 -1
-0.1101412740 -0.0722042470 -1 -1
-0.1084571750 -0.0707265650 -1 -1
-0.1064638910 -0.0689786970 -1 -1
-0.1043415380 -0.0671252870 -1 -1
-0.1022891720 -0.0653406870 -1 -1
-0.1004993790 -0.0637937510 -1 -1
-0.0991304850 -0.0626314260 -1 -1
-0.0982855400 -0.0619627960 -1 -1
-0.0980048540 -0.0618472290 -1 -1
-0.0982731280 -0.0622895150 -1 -1
-0.0990335240 -0.0632416840 -1 -1
-0.1001970900 -0.0646086260 -1 -1
-0.1016438440 -0.0662552890 -1 -1
-0.1032224470 -0.0680161440 -1 -1
-0.1047574900 -0.0697095140 -1 -1
-0.1060677730 -0.0711575790 -1 -1
-0.1069910700 -0.0722084160 -1 -1
-0.1074057600 -0.0727536050 -1 -1
-0.1072415360 -0.0727373600 -1 -1
-0.1064796250 -0.0721585170 -1 -1
-0.1051502410 -0.0710688990 -1 -1
-0.1033326530 -0.0695690890 -1 -1
-0.1011544160 -0.0678001410 -1 -1
-0.0987839600 -0.0659303830 -1 -1
-0.0964167250 -0.0641387450 -1 -1
-0.0942580950 -0.0625971480 -1 -1
-0.0925039710 -0.0614543320 -1 -1
-0.0913198740 -0.0608224190 -1 -1
-0.0908221290 -0.0607663660 -1 -1
-0.0910646950 -0.0612958040 -1 -1
-0.0920325060 -0.0623596560 -1 -1
-0.0936406020 -0.0638464560 -1 -1
-0.0957406910 -0.0655942500 -1 -1
-0.0981380650 -0.0674100780 -1 -1
-0.1006159510 -0.0690938080 -1 -1
-0.1029573880 -0.0704608090 -1 -1
-0.1049583350 -0.0713614010 -1 -1
-0.1064369210 -0.0716965450 -1 -1
-0.1072470530 -0.0714277520 -1 -1
-0.1072972460 -0.0705788710 -1 -1
-0.1065686780 -0.0692302180 -1 -1
-0.1051254220 -0.0675075660 -1 -1
-0.1031115380 -0.0655682610 -1 -1
-0.1007330950 -0.0635862840 -1 -1
-0.0982291710 -0.0617378390 -1 -1
-0.0958408810 -0.0601879480 -1 -1
-0.0937860970 -0.0590773460 -1 -1
-0.0922413030 -0.0585090340 -1 -1
-0.0913280160 -0.0585361820 -1 -1
-0.0911024680 -0.0591552470 -1 -1
-0.0915505520 -0.0603064080 -1 -1
-0.0925900950 -0.0618798990 -1 -1
-0.0940800560 -0.0637263440 -1 -1
-0.0958367070 -0.0656700130 -1 -1
-0.0976567180 -0.0675238790 -1 -1
-0.0993415500 -0.0691054160 -1 -1
-0.1007161480 -0.0702527370 -1 -1
-0.1016408960 -0.0708407590 -1 -1
-0.1020200440 -0.0707961050 -1 -1
-0.1018093010 -0.0701080410 -1 -1
-0.1010218070 -0.0688320620 -1 -1
-0.0997287750 -0.0670843660 -1 -1
-0.0980532900 -0.0650286890 -1 -1
-0.0961590190 -0.0628584760 -1 -1
-0.0942355700 -0.0607764520 -1 -1
-0.0924811560 -0.0589729740 -1 -1
-0.0910822710 -0.0576052000 -1 -1
-0.0901911010 -0.0567801590 -1 -1
-0.0899048080 -0.0565450580 -1 -1
-0.0902525700 -0.0568862640 -1 -1
-0.0911939590 -0.0577354270 -1 -1
-0.0926273450 -0.0589800130 -1 -1
-0.0944031430 -0.0604763550 -1 -1
-0.0963392100 -0.0620641800 -1 -1
-0.0982405320 -0.0635814840 -1 -1
-0.0999230680 -0.0648785440 -1 -1
-0.1012358230 -0.0658301570 -1 -1
-0.1020752600 -0.0663458180 -1 -1
-0.1023909100 -0.0663778910 -1 -1
-0.1021852450 -0.0659271080 -1 -1
-0.1015109580 -0.0650435720 -1 -1
-0.1004647720 -0.0638222440 -1 -1
-0.0991750940 -0.0623940520 -1 -1
-0.0977860260 -0.0609138510 -1 -1
-0.0964453820 -0.0595448330 -1 -1
-0.0953002560 -0.0584398960 -1 -1
-0.0944939470 -0.0577235810 -1 -1
-0.0941552400 -0.0574785160 -1 -1
-0.0943788410 -0.0577373590 -1 -1
-0.0952047340 -0.0584791740 -1 -1
-0.0966050240 -0.0596298870 -1 -1
-0.0984816450 -0.0610679870 -1 -1
-0.1006756000 -0.0626364700 -1 -1
-0.1029879840 -0.0641602220 -1 -1
-0.1052078210 -0.0654661580 -1 -1
-0.1071362750 -0.0664027350 -1 -1
-0.1086011490 -0.0668563050 -1 -1
-0.1094658170 -0.0667630430 -1 -1
-0.1096393780 -0.0661152750 -1 -1
-0.1090880890 -0.0649608210 -1 -1
-0.1078429740 -0.0633949210 -1 -1
-0.1060007730 -0.0615463390 -1 -1
-0.1037189010 -0.0595610110 -1 -1
-0.1012041530 -0.0575875010 -1 -1
-0.0986931750 -0.0557672780 -1 -1
-0.0964262230 -0.0542294000 -1 -1
-0.0946202120 -0.0530864670 -1 -1
-0.0934460140 -0.0524285780 -1 -1
-0.0930117910 -0.0523144560 -1 -1
-0.0933529310 -0.0527622440 -1 -1
-0.0944280600 -0.0537436150 -1 -1
-0.0961210170 -0.0551831290 -1 -1
-0.0982521160 -0.0569629310 -1 -1
-0.1006007790 -0.0589319230 -1 -1
-0.1029336570 -0.0609181300 -1 -1
-0.1050296820 -0.0627431210 -1 -1
-0.1066993420 -0.0642374150 -1 -1
-0.1077994420 -0.0652560680 -1 -1
-0.1082440390 -0.0656941100 -1 -1
-0.1080113650 -0.0655002680 -1 -1
-0.1071446620 -0.0646852150 -1 -1
-0.1057426930 -0.0633217230 -1 -1
-0.1039397750 -0.0615376050 -1 -1
-0.1018848080 -0.0595032490 -1 -1
-0.0997309480 -0.0574145690 -1 -1
-0.0976368770 -0.0554726900 -1 -1
-0.0957683960 -0.0538627210 -1 -1
-0.0942881990 -0.0527343480 -1 -1
-0.0933327290 -0.0521871930 -1 -1
-0.0929864690 -0.0522630280 -1 -1
-0.0932647600 -0.0529448550 -1 -1
-0.0941092620 -0.0541612200 -1 -1
-0.0953952370 -0.0557947140 -1 -1
-0.0969476940 -0.0576941030 -1 -1
-0.0985615650 -0.0596884680 -1 -1
-0.1000220070 -0.0616015910 -1 -1
-0.1011243710 -0.0632668020 -1 -1
-0.1016953400 -0.0645430010 -1 -1
-0.1016149530 -0.0653301250 -1 -1
-0.1008344600 -0.0655801030 -1 -1
-0.0993830470 -0.0653003370 -1 -1
-0.0973626040 -0.0645496200 -1 -1
-0.0949357380 -0.0634288650 -1 -1
-0.0923094110 -0.0620694880 -1 -1
-0.0897141560 -0.0606208260 -1 -1
-0.0873813850 -0.0592366120 -1 -1
-0.0855199860 -0.0580605850 -1 -1
-0.0842910040 -0.0572119210 -1 -1
-0.0837853120 -0.0567720140 -1 -1
-0.0840140210 -0.0567747950 -1 -1
-0.0849153120 -0.0572026850 -1 -1
-0.0863720160 -0.0579889130 -1 -1
-0.0882306350 -0.0590251270 -1 -1
-0.0903161500 -0.0601730950 -1 -1
-0.0924433050 -0.0612802300 -1 -1
-0.0944266580 -0.0621980260 -1 -1
-0.0960910010 -0.0628002580 -1 -1
-0.0972853090 -0.0629973210 -1 -1
-0.0979012390 -0.0627450770 -1 -1
-0.0978900790 -0.0620487300 -1 -1
-0.0972695250 -0.0609624290 -1 -1
-0.0961182080 -0.0595842520 -1 -1
-0.0945636140 -0.0580466160 -1 -1
-0.0927689050 -0.0565031980 -1 -1
-0.0909186570 -0.0551133300 -1 -1
-0.0892011370 -0.0540248050 -1 -1
-0.0877876110 -0.0533570110 -1 -1
-0.0868127350 -0.0531871480 -1 -1
-0.0863598380 -0.0535420030 -1 -1
-0.0864530200 -0.0543961810 -1 -1
-0.0870590720 -0.0556753850 -1 -1
-0.0881002350 -0.0572625790 -1 -1
-0.0894698300 -0.0590062480 -1 -1
-0.0910396980 -0.0607322160 -1 -1
-0.0926591220 -0.0622608150 -1 -1
-0.0941566360 -0.0634279900 -1 -1
-0.0953549080 -0.0641054240 -1 -1
-0.0960971240 -0.0642151550 -1 -1
-0.0962740760 -0.0637369690 -1 -1
-0.0958413280 -0.0627089470 -1 -1
-0.0948223440 -0.0612224420 -1 -1
-0.0933013270 -0.0594131880 -1 -1
-0.0914121350 -0.0574497980 -1 -1
-0.0893257110 -0.0555190950 -1 -1
-0.0872349830 -0.0538071770 -1 -1
-0.0853374620 -0.0524779420 -1 -1
-0.0838181280 -0.0516541460 -1 -1
-0.0828347580 -0.0514056800 -1 -1
-0.0825053950 -0.0517465220 -1 -1
-0.0828954240 -0.0526381980 -1 -1
-0.0840028090 -0.0539961980 -1 -1
-0.0857467580 -0.0556975460 -1 -1
-0.0879705180 -0.0575906610 -1 -1
-0.0904628530 -0.0595089880 -1 -1
-0.0929892660 -0.0612872200 -1 -1
-0.0953194940 -0.0627766480 -1 -1
-0.0972470800 -0.0638572360 -1 -1
-0.0986059690 -0.0644463430 -1 -1
-0.0992863900 -0.0645040870 -1 -1
-0.0992447720 -0.0640350530 -1 -1
-0.0985027980 -0.0630867380 -1 -1
-0.0971385910 -0.0617453830 -1 -1
-0.0952768050 -0.0601297160 -1 -1
-0.0930798120 -0.0583834540 -1 -1
-0.0907375320 -0.0566659940 -1 -1
-0.0884540770 -0.0551391530 -1 -1
-0.0864313650 -0.0539498780 -1 -1
-0.0848508200 -0.0532127350 -1 -1
-0.0838558570 -0.0529966590 -1 -1
-0.0835378630 -0.0533178360 -1 -1
-0.0839248030 -0.0541381430 -1 -1
-0.0849708460 -0.0553680840 -1 -1
-0.0865515780 -0.0568744860 -1 -1
-0.0884726730 -0.0584942640 -1 -1
-0.0904936800 -0.0600535450 -1 -1
-0.0923608370 -0.0613881900 -1 -1
-0.0938405520 -0.0623614930 -1 -1
-0.0947473030 -0.0628772530 -1 -1
-0.0949627540 -0.0628880940 -1 -1
-0.0944449560 -0.0623988250 -1 -1
-0.0932276290 -0.0614645440 -1 -1
-0.0914109840 -0.0601840360 -1 -1
-0.0891474470 -0.0586895510 -1 -1
-0.0866265940 -0.0571336840 -1 -1
-0.0840614120 -0.0556740310 -1 -1
-0.0816737600 -0.0544570320 -1 -1
-0.0796759530 -0.0536030750 -1 -1
-0.0782487720 -0.0531952280 -1 -1
-0.0775195210 -0.0532727490 -1 -1
-0.0775455240 -0.0538283730 -1 -1
-0.0783088930 -0.0548085000 -1 -1
-0.0797237820 -0.0561174460 -1 -1
-0.0816506980 -0.0576267160 -1 -1
-0.0839119480 -0.0591878800 -1 -1
-0.0863070720 -0.0606469510 -1 -1
-0.0886291600 -0.0618589370 -1 -1
-0.0906811580 -0.0627012710 -1 -1
-0.0922915240 -0.0630852360 -1 -1
-0.0933310320 -0.0629649040 -1 -1
-0.0937304330 -0.0623428080 -1 -1
-0.0934933390 -0.0612713380 -1 -1
-0.0926981960 -0.0598491400 -1 -1
-0.0914871790 -0.0582124410 -1 -1
-0.0900440640 -0.0565217950 -1 -1
-0.0885677480 -0.0549449930 -1 -1
-0.0872499790 -0.0536377000 -1 -1
-0.0862598680 -0.0527251580 -1 -1
-0.0857294970 -0.0522891480 -1 -1
-0.0857357930 -0.0523623800 -1 -1
-0.0862844910 -0.0529290290 -1 -1
-0.0873075940 -0.0539286130 -1 -1
-0.0886774910 -0.0552617170 -1 -1
-0.0902298740 -0.0567979940 -1 -1
-0.0917865100 -0.0583874180 -1 -1
-0.0931739500 -0.0598744890 -1 -1
-0.0942371090 -0.0611129980 -1 -1
-0.0948485060 -0.0619789040 -1 -1
-0.0949171400 -0.0623808970 -1 -1
-0.0943994110 -0.0622692240 -1 -1
-0.0933071580 -0.0616423720 -1 -1
-0.0917066580 -0.0605502190 -1 -1
-0.0897096790 -0.0590918090 -1 -1
-0.0874608410 -0.0574063250 -1 -1
-0.0851238070 -0.0556578540 -1 -1
-0.0828690610 -0.0540169090 -1 -1
-0.0808652080 -0.0526427360 -1 -1
-0.0792717300 -0.0516690100 -1 -1
