-0.0204346510 -0.0335344160 0 -1
-0.0199690100 -0.0336600930 0 -1
-0.0193893300 -0.0334562590 0 -1
-0.0187086500 -0.0329557250 0 -1
-0.0179439490 -0.0322232140 0 -1
-0.0171151950 -0.0313483130 0 -1
-0.0162465160 -0.0304357470 0 -1
-0.0153680660 -0.0295937940 0 0
-0.0145162160 -0.0289218520 0 0
-0.0137296320 -0.0284990000 0 0
-0.0130413270 -0.0283753790 0 0
-0.0124712500 -0.0285675010 0 0
-0.0120240170 -0.0290584280 0 0
-0.0116898040 -0.0298030680 0 0
-0.0114434690 -0.0307366700 0 -1
-0.0112428220 -0.0317837890 0 -1
-0.0110316230 -0.0328673830 0 -1
-0.0107486710 -0.0339184560 0 -1
-0.0103385480 -0.0348841520 0 -1
-0.0097587780 -0.0357317450 0 -1
-0.0089812940 -0.0364489700 0 -1
-0.0079906330 -0.0370428370 0 -1
-0.0067845450 -0.0375379010 0 -1
-0.0053800850 -0.0379742970 0 -1
-0.0038218710 -0.0384061020 0 -1
-0.0021863030 -0.0388996440 0 -1
-0.0005787820 -0.0395301690 0 -1
0.0008755380 -0.0403758570 0 -1
0.0020474770 -0.0415093860 0 -1
0.0028265530 -0.0429882770 0 -1
0.0031464420 -0.0448463040 0 -1
0.0030037780 -0.0470885110 0 -1
0.0024631560 -0.0496912490 0 -1
0.0016480400 -0.0526068530 0 -1
0.0007215010 -0.0557706510 0 -1
-0.0001385830 -0.0591077220 0 -1
-0.0007649120 -0.0625384130 0 -1
-0.0010211200 -0.0659827740 0 -1
-0.0008132000 -0.0693642200 0 -1
-0.0000931080 -0.0726129330 0 -1
0.0011413020 -0.0756691810 0 -1
0.0028488370 -0.0784859590 0 -1
0.0049513770 -0.0810304160 0 -1
0.0073434110 -0.0832845040 0 -1
0.0099026190 -0.0852461550 0 -1
0.0125011800 -0.0869313860 0 -1
0.0150177590 -0.0883757170 0 -1
0.0173479710 -0.0896322810 0 -1
0.0194108840 -0.0907653370 0 -1
0.0211515580 -0.0918409180 0 -1
0.0225410380 -0.0929179670 0 -1
0.0235740030 -0.0940417060 0 -1
0.0242629670 -0.0952388580 0 -1
0.0246302100 -0.0965144600 0 -1
0.0247026650 -0.0978508350 0 -1
0.0245142340 -0.0992089690 0 -1
0.0241132800 -0.1005321410 0 -1
0.0235681090 -0.1017522030 0 -1
0.0229651460 -0.1027988930 0 -1
0.0223994800 -0.1036112840 0 -1
0.0219607240 -0.1041488520 0 -1
0.0217190190 -0.1043986740 0 -1
0.0217161550 -0.1043761080 0 -1
0.0219634120 -0.1041192870 0 -1
0.0224431440 -0.1036806890 0 -1
0.0231110180 -0.1031198040 0 -1
0.0239001050 -0.1024987640 0 -1
0.0247300430 -0.1018794590 0 -1
0.0255201190 -0.1013194520 0 -1
0.0262010920 -0.1008656900 0 -1
0.0267235620 -0.1005471330 0 -1
0.0270643410 -0.1003683770 0 -1
0.0272297510 -0.1003066760 0 -1
0.0272524920 -0.1003136940 0 -1
0.0271820510 -0.1003213900 0 -1
0.0270724030 -0.1002502420 0 -1
0.0269716630 -0.1000182280 0 -1
0.0269175580 -0.0995496600 0 -1
0.0269388130 -0.0987833180 0 -1
0.0270582210 -0.0976793550 0 -1
0.0272941820 -0.0962240690 0 -1
0.0276616250 -0.0944317560 0 -1
0.0281726760 -0.0923434980 0 -1
0.0288337950 -0.0900231800 0 -1
0.0296378110 -0.0875516020 0 -1
0.0305559020 -0.0850199260 1 -1
0.0315369200 -0.0825232320 1 -1
0.0325157710 -0.0801539480 1 -1
0.0334257300 -0.0779940150 1 -1
0.0342079020 -0.0761051670 1 -1
0.0348145370 -0.0745193450 1 -1
0.0352086460 -0.0732337160 1 -1
0.0353660340 -0.0722128980 1 -1
0.0352830070 -0.0713961260 1 -1
0.0349850440 -0.0707057340 1 -1
0.0345288340 -0.0700559150 1 -1
0.0339953860 -0.0693619710 1 -1
0.0334775170 -0.0685490840 1 -1
0.0330651900 -0.0675588040 1 -1
0.0328312090 -0.0663522990 1 -1
0.0328212180 -0.0649107000 1 -1
0.0330511470 -0.0632339530 1 -1
0.0335101380 -0.0613405490 1 -1
0.0341643530 -0.0592699900 1 -1
0.0349602370 -0.0570867200 1 -1
0.0358291470 -0.0548813900 1 -1
0.0366944990 -0.0527658480 1 -1
0.0374795500 -0.0508616820 1 -1
0.0381129570 -0.0492846620 1 -1
0.0385314450 -0.0481275250 1 -1
0.0386809340 -0.0474437270 1 -1
0.0385182060 -0.0472365220 1 -1
0.0380158390 -0.0474575670 1 -1
0.0371711010 -0.0480154730 1 -1
0.0360146710 -0.0487906940 1 -1
0.0346133030 -0.0496521120 1 -1
0.0330632860 -0.0504721410 1 -1
0.0314758460 -0.0511383960 1 -1
0.0299600230 -0.0515611950 0 -1
0.0286101390 -0.0516778570 0 -1
0.0275004710 -0.0514557770 0 -1
0.0266830800 -0.0508948730 0 -1
0.0261829070 -0.0500275100 0 -1
0.0259895630 -0.0489144350 0 -1
0.0260519200 -0.0476382590 0 -1
0.0262817290 -0.0462967730 0 -1
0.0265657760 -0.0449958790 0 -1
0.0267806190 -0.0438407600 0 -1
0.0268054800 -0.0429253360 0 -1
0.0265340120 -0.0423214050 0 -1
0.0258861440 -0.0420692510 0 -1
0.0248172850 -0.0421717740 0 -1
0.0233223780 -0.0425931190 0 -1
0.0214362070 -0.0432612230 0 -1
0.0192311980 -0.0440742980 0 -1
0.0168115850 -0.0449122150 0 -1
0.0143031360 -0.0456516450 0 -1
0.0118391570 -0.0461813090 0 -1
0.0095445860 -0.0464142040 0 -1
0.0075212950 -0.0462954150 0 -1
0.0058379020 -0.0458047610 0 -1
0.0045261360 -0.0449544580 0 -1
0.0035833340 -0.0437838370 0 -1
0.0029776540 -0.0423539540 0 -1
0.0026528070 -0.0407434560 0 -1
0.0025326040 -0.0390447810 0 -1
0.0025274170 -0.0373588500 0 -1
0.0025429260 -0.0357873370 0 -1
0.0024893350 -0.0344233780 0 -1
0.0022894290 -0.0333429640 0 -1
0.0018851430 -0.0325989850 0 -1
0.0012420570 -0.0322180680 0 -1
0.0003508310 -0.0321989110 0 -1
-0.0007738970 -0.0325109880 0 -1
-0.0020965240 -0.0330942600 0 -1
-0.0035658990 -0.0338622310 0 -1
-0.0051213140 -0.0347095940 0 -1
-0.0066952670 -0.0355229360 0 -1
-0.0082135980 -0.0361922130 0 -1
-0.0095985180 -0.0366217370 0 -1
-0.0107772090 -0.0367396920 0 -1
-0.0116920550 -0.0365050400 0 -1
-0.0123072610 -0.0359106650 0 -1
-0.0126111340 -0.0349816450 0 -1
-0.0126173190 -0.0337690230 0 -1
-0.0123671940 -0.0323416990 0 -1
-0.0119309590 -0.0307790380 0 -1
-0.0114030580 -0.0291647680 0 0
-0.0108910500 -0.0275816300 0 0
-0.0105012740 -0.0261061030 0 0
-0.0103253090 -0.0248028340 0 0
-0.0104290700 -0.0237189360 0 0
-0.0108448660 -0.0228788310 0 0
-0.0115673240 -0.0222805970 0 0
-0.0125546890 -0.0218951330 0 0
-0.0137356200 -0.0216692240 0 0
-0.0150193180 -0.0215320970 0 0
-0.0163063690 -0.0214034780 0 0
-0.0174989110 -0.0212009080 0 0
-0.0185104020 -0.0208461250 0 0
-0.0192756620 -0.0202723520 0 0
-0.0197598420 -0.0194334310 0 0
-0.0199624680 -0.0183124220 0 0
-0.0199139480 -0.0169250160 0 0
-0.0196667310 -0.0153149770 0 0
-0.0192859580 -0.0135436590 0 0
-0.0188421900 -0.0116789140 0 0
-0.0184048790 -0.0097871250 0 0
-0.0180355660 -0.0079286700 0 0
-0.0177832940 -0.0061559970 0 0
-0.0176836450 -0.0045128750 0 0
-0.0177580610 -0.0030323080 0 0
-0.0180110670 -0.0017326040 0 0
-0.0184282870 -0.0006146560 0 0
-0.0189780860 0.0003368650 0 0
-0.0196144040 0.0011493660 0 0
-0.0202781510 0.0018581790 0 0
-0.0208997810 0.0025036840 0 0
-0.0214059140 0.0031283050 0 0
-0.0217277250 0.0037718790 0 0
-0.0218072820 0.0044664410 0 0
-0.0216018110 0.0052323960 0 0
-0.0210887360 0.0060763290 0 0
-0.0202729940 0.0069891380 0 0
-0.0191942380 0.0079437410 0 0
-0.0179291070 0.0088936480 0 0
-0.0165856850 0.0097750340 0 0
-0.0152914530 0.0105138680 0 0
-0.0141771920 0.0110366330 0 0
-0.0133587390 0.0112811870 0 0
-0.0129201160 0.0112051740 0 0
-0.0129022470 0.0107914370 0 0
-0.0132993720 0.0100508690 0 0
-0.0140633740 0.0090230470 0 0
-0.0151146450 0.0077744810 0 0
-0.0163553070 0.0063941840 0 0
-0.0176803960 0.0049866620 0 0
-0.0189862300 0.0036628060 0 0
-0.0201769900 0.0025295310 0 0
-0.0211701010 0.0016797680 0 0
-0.0219025410 0.0011843680 0 0
-0.0223394560 0.0010856910 0 0
-0.0224801490 0.0013915560 0 0
-0.0223547450 0.0020703180 0 0
-0.0220132050 0.0030502330 0 0
-0.0215167130 0.0042255460 0 0
-0.0209371040 0.0054690970 0 0
-0.0203576500 0.0066492050 0 0
-0.0198659070 0.0076473090 0 0
-0.0195394340 0.0083723480 0 0
-0.0194326670 0.0087688510 0 0
-0.0195706090 0.0088184870 0 0
-0.0199493390 0.0085372130 0 0
-0.0205404370 0.0079698990 0 0
-0.0212961380 0.0071827450 0 0
-0.0221540600 0.0062536520 0 0
-0.0230425690 0.0052620660 0 0
-0.0238865750 0.0042806660 0 0
-0.0246115040 0.0033705690 0 0
-0.0251457130 0.0025794450 0 0
-0.0254251230 0.0019405300 0 0
-0.0254026330 0.0014713900 0 0
-0.0250596340 0.0011727100 0 0
-0.0244130650 0.0010282180 0 0
-0.0235140920 0.0010067330 0 0
-0.0224405930 0.0010658510 0 0
-0.0212874480 0.0011558680 0 0
-0.0201563690 0.0012237410 0 0
-0.0191459390 0.0012179130 0 0
-0.0183425940 0.0010941600 0 0
-0.0178129480 0.0008212620 0 0
-0.0175981150 0.0003846470 0 0
-0.0177101890 -0.0002130490 0 0
-0.0181300800 -0.0009538350 0 0
-0.0188064650 -0.0018072550 0 0
-0.0196581470 -0.0027332580 0 0
-0.0205831570 -0.0036842170 0 0
-0.0214745110 -0.0046060690 0 0
-0.0222374680 -0.0054397610 0 0
-0.0228022420 -0.0061243010 0 0
-0.0231297820 -0.0066022440 0 0
-0.0232117820 -0.0068275960 0 0
-0.0230672100 -0.0067743680 0 0
-0.0227370280 -0.0064430860 0 0
-0.0222777480 -0.0058640620 0 0
-0.0217537000 -0.0050978980 0 0
-0.0212283900 -0.0042330560 0 0
-0.0207571150 -0.0033786870 0 0
-0.0203832570 -0.0026519440 0 0
-0.0201381160 -0.0021620350 0 0
-0.0200422620 -0.0019952280 0 0
-0.0201069480 -0.0022043520 0 0
-0.0203346910 -0.0028043470 0 0
-0.0207181270 -0.0037733500 0 0
-0.0212368140 -0.0050576450 0 0
-0.0218534780 -0.0065791120 0 0
-0.0225129630 -0.0082448130 0 0
-0.0231457640 -0.0099581670 0 0
-0.0236747630 -0.0116295420 0 0
-0.0240240260 -0.0131839730 0 0
-0.0241301620 -0.0145660430 0 0
-0.0239546200 -0.0157436470 0 0
-0.0234918560 -0.0167112550 0 0
-0.0227691580 -0.0174911300 0 0
-0.0218393040 -0.0181307290 0 0
-0.0207716070 -0.0186961330 0 0
-0.0196451460 -0.0192624840 0 0
-0.0185424920 -0.0199033730 0 0
-0.0175409780 -0.0206816760 0 0
-0.0167024620 -0.0216428550 0 0
-0.0160655560 -0.0228097430 0 0
-0.0156437010 -0.0241787340 0 0
-0.0154297200 -0.0257195440 0 0
-0.0154043640 -0.0273800190 0 0
-0.0155441360 -0.0290939700 0 0
-0.0158246310 -0.0307884170 0 -1
-0.0162196900 -0.0323891670 0 -1
-0.0166984370 -0.0338262090 0 -1
-0.0172216930 -0.0350397050 0 -1
-0.0177400110 -0.0359855730 0 -1
-0.0181967230 -0.0366397420 0 -1
-0.0185378070 -0.0370010000 0 -1
-0.0187259540 -0.0370923780 0 -1
-0.0187526360 -0.0369602800 0 -1
-0.0186429410 -0.0366703760 0 -1
-0.0184526410 -0.0363003580 0 -1
-0.0182605950 -0.0359318410 0 -1
-0.0181583860 -0.0356444650 0 -1
-0.0182365210 -0.0355128670 0 -1
-0.0185685300 -0.0356045740 0 -1
-0.0191986450 -0.0359766120 0 -1
-0.0201379110 -0.0366704370 0 -1
-0.0213675470 -0.0377062950 0 -1
-0.0228449360 -0.0390783230 0 -1
-0.0245100610 -0.0407515410 0 -1
-0.0262930290 -0.0426622220 0 -1
-0.0281224080 -0.0447224440 0 -1
-0.0299316600 -0.0468276810 0 -1
-0.0316604070 -0.0488654720 -1 -1
-0.0332512810 -0.0507242750 -1 -1
-0.0346481220 -0.0523026360 -1 -1
-0.0358004700 -0.0535184100 -1 -1
-0.0366733590 -0.0543170370 -1 -1
-0.0372578800 -0.0546782760 -1 -1
-0.0375779080 -0.0546208240 -1 -1
-0.0376894460 -0.0542030320 -1 -1
-0.0376721680 -0.0535175060 -1 -1
-0.0376164630 -0.0526790760 -1 -1
-0.0376100290 -0.0518085310 -1 -1
-0.0377267650 -0.0510165400 -1 -1
-0.0380195610 -0.0503913950 -1 -1
-0.0385164100 -0.0499915020 -1 -1
-0.0392182200 -0.0498416750 -1 -1
-0.0400988740 -0.0499327370 -1 -1
-0.0411089480 -0.0502248860 -1 -1
-0.0421819310 -0.0506543700 -1 -1
-0.0432407040 -0.0511419570 -1 -1
-0.0442032370 -0.0516022680 -1 -1
-0.0449876250 -0.0519535080 -1 -1
-0.0455181810 -0.0521261740 -1 -1
-0.0457345070 -0.0520688970 -1 -1
-0.0456022080 -0.0517509310 -1 -1
-0.0451202340 -0.0511624360 -1 -1
-0.0443203140 -0.0503137200 -1 -1
-0.0432592680 -0.0492336090 -1 -1
-0.0420094840 -0.0479668900 -1 -1
-0.0406507720 -0.0465707690 -1 -1
-0.0392625930 -0.0451099510 -1 -1
-0.0379160820 -0.0436502130 -1 -1
-0.0366662690 -0.0422512430 -1 -1
-0.0355447100 -0.0409603190 -1 -1
-0.0345551250 -0.0398082640 -1 -1
-0.0336755860 -0.0388079080 -1 -1
-0.0328674990 -0.0379543440 -1 -1
-0.0320888150 -0.0372268780 -1 -1
-0.0313072750 -0.0365933300 -1 -1
-0.0305084790 -0.0360165800 -1 -1
-0.0296953240 -0.0354617760 0 -1
-0.0288798960 -0.0349013410 0 -1
-0.0280731170 -0.0343154920 0 -1
-0.0272784980 -0.0336890480 0 -1
-0.0264927020 -0.0330086360 0 -1
-0.0257106470 -0.0322640520 0 -1
-0.0249310480 -0.0314534430 0 -1
-0.0241592210 -0.0305885820 0 -1
-0.0234060540 -0.0296967620 0 0
-0.0226846540 -0.0288184750 0 0
-0.0220068190 -0.0280021760 0 0
-0.0213803910 -0.0272975970 0 0
-0.0208081020 -0.0267485380 0 0
-0.0202883340 -0.0263856890 0 0
-0.0198177780 -0.0262202400 0 0
-0.0193957330 -0.0262404020 0 0
-0.0190277970 -0.0264131980 0 0
-0.0187247740 -0.0266907700 0 0
-0.0184952430 -0.0270170640 0 0
-0.0183355960 -0.0273315970 0 0
-0.0182240750 -0.0275710100 0 0
-0.0181235250 -0.0276716110 0 0
-0.0179910130 -0.0275751360 0 0
-0.0177868410 -0.0272372050 0 0
-0.0174783250 -0.0266358490 0 0
-0.0170404460 -0.0257771400 0 0
-0.0164573740 -0.0246966180 0 0
-0.0157265330 -0.0234568740 0 0
-0.0148635860 -0.0221414430 0 0
-0.0139040530 -0.0208446250 0 0
-0.0128987260 -0.0196579930 0 0
-0.0119050870 -0.0186564390 0 0
-0.0109792490 -0.0178877340 0 0
-0.0101697930 -0.0173686650 0 0
-0.0095115730 -0.0170880500 0 0
-0.0090189840 -0.0170142860 0 0
-0.0086822530 -0.0171041200 0 0
-0.0084704740 -0.0173101390 0 0
-0.0083402190 -0.0175856580 0 0
-0.0082441390 -0.0178868470 0 0
-0.0081365670 -0.0181734140 0 0
-0.0079787860 -0.0184097130 0 0
-0.0077449080 -0.0185663790 0 0
-0.0074234150 -0.0186208440 0 0
-0.0070118350 -0.0185563500 0 0
-0.0065093440 -0.0183612130 0 0
-0.0059131920 -0.0180297870 0 0
-0.0052210070 -0.0175650480 0 0
-0.0044377680 -0.0169820080 0 0
-0.0035840220 -0.0163113990 0 0
-0.0027005120 -0.0156025730 0 0
-0.0018454080 -0.0149233040 0 0
-0.0010839050 -0.0143535420 0 0
-0.0004734720 -0.0139727740 0 0
-0.0000500744 -0.0138452710 0 0
0.0001792210 -0.0140088230 0 0
0.0002349370 -0.0144693090 0 0
0.0001577290 -0.0152002130 0 0
-0.0000005267 -0.0161455790 0 0
-0.0001851950 -0.0172258850 0 0
-0.0003471880 -0.0183467940 0 0
-0.0004477670 -0.0194102720 0 0
-0.0004550790 -0.0203269420 0 0
-0.0003355710 -0.0210278430 0 0
-0.0000509218 -0.0214728800 0 0
0.0004336620 -0.0216537740 0 0
0.0011355260 -0.0215918050 0 0
0.0020446240 -0.0213325660 0 0
0.0031208150 -0.0209397570 0 0
0.0042964030 -0.0204883590 0 0
0.0054830420 -0.0200562570 0 0
0.0065831570 -0.0197143260 0 0
0.0075040480 -0.0195173280 0 0
0.0081708220 -0.0194983320 0 0
0.0085344280 -0.0196673780 0 0
0.0085744890 -0.0200137080 0 0
0.0083001280 -0.0205103280 0 0
0.0077499990 -0.0211190020 0 0
0.0069871370 -0.0217943430 0 0
0.0060857200 -0.0224876960 0 0
0.0051163060 -0.0231523660 0 0
0.0041389370 -0.0237496270 0 0
0.0032040790 -0.0242529090 0 0
0.0023532410 -0.0246487740 0 0
0.0016143660 -0.0249357540 0 0
0.0009955040 -0.0251230140 0 0
0.0004830820 -0.0252299800 0 0
0.0000465716 -0.0252863060 0 0
-0.0003540650 -0.0253301010 0 0
-0.0007626100 -0.0254031180 0 0
-0.0012233300 -0.0255442480 0 0
-0.0017779010 -0.0257843880 0 0
-0.0024610650 -0.0261450590 0 0
-0.0032962560 -0.0266403960 0 0
-0.0042922870 -0.0272796150 0 0
-0.0054403200 -0.0280671880 0 0
-0.0067110290 -0.0290005710 0 0
-0.0080542020 -0.0300674190 0 -1
-0.0094031390 -0.0312436350 0 -1
-0.0106837790 -0.0324926300 0 -1
-0.0118253290 -0.0337660460 0 -1
-0.0127677630 -0.0350056980 0 -1
-0.0134644560 -0.0361463560 0 -1
-0.0138828170 -0.0371204790 0 -1
-0.0140067390 -0.0378666910 0 -1
-0.0138409670 -0.0383408870 0 -1
-0.0134139030 -0.0385255510 0 -1
-0.0127768470 -0.0384334090 0 -1
-0.0120010370 -0.0381053930 0 -1
-0.0111724030 -0.0376058230 0 -1
-0.0103818200 -0.0370169670 0 -1
-0.0097128790 -0.0364325040 0 -1
-0.0092330260 -0.0359481740 0 -1
-0.0089905670 -0.0356494370 0 -1
-0.0090153880 -0.0355989310 0 -1
-0.0093202350 -0.0358282200 0 -1
-0.0098995600 -0.0363365380 0 -1
-0.0107245270 -0.0370956670 0 -1
-0.0117377760 -0.0380579060 0 -1
-0.0128544140 -0.0391642750 0 -1
-0.0139714900 -0.0403512670 0 -1
-0.0149847060 -0.0415561500 0 -1
-0.0158100730 -0.0427222750 0 -1
-0.0164028750 -0.0438052770 0 -1
-0.0167624350 -0.0447785130 0 -1
-0.0169192450 -0.0456352090 0 -1
-0.0169143860 -0.0463869580 0 -1
-0.0167845480 -0.0470601330 0 -1
-0.0165574210 -0.0476915930 0 -1
-0.0162542460 -0.0483241520 0 -1
-0.0158951850 -0.0490020680 0 -1
-0.0155043980 -0.0497670120 0 -1
-0.0151122410 -0.0506551140 0 -1
-0.0147535750 -0.0516950520 0 -1
-0.0144636900 -0.0529062700 0 -1
-0.0142742300 -0.0542967180 0 -1
-0.0142103000 -0.0558604190 0 -1
-0.0142879160 -0.0575749450 0 -1
-0.0145098000 -0.0593984190 0 -1
-0.0148593070 -0.0612668960 0 -1
-0.0152960820 -0.0630947190 0 -1
-0.0157585300 -0.0647805940 0 -1
-0.0161746070 -0.0662198760 0 -1
-0.0164771310 -0.0673202590 0 -1
-0.0166173830 -0.0680165760 0 -1
-0.0165721720 -0.0682814120 0 -1
-0.0163438480 -0.0681298020 0 -1
-0.0159568830 -0.0676172590 0 -1
-0.0154538620 -0.0668314180 0 -1
-0.0148903280 -0.0658789110 0 -1
-0.0143283380 -0.0648704260 0 -1
-0.0138314790 -0.0639074470 0 -1
-0.0134629810 -0.0630725600 0 -1
-0.0132840270 -0.0624229870 0 -1
-0.0133473900 -0.0619869690 0 -1
-0.0136853420 -0.0617635580 0 -1
-0.0142973530 -0.0617257990 0 -1
-0.0151457320 -0.0618259590 0 -1
-0.0161624610 -0.0620012540 0 -1
-0.0172621600 -0.0621793650 0 -1
-0.0183532470 -0.0622843470 0 -1
-0.0193442080 -0.0622442100 0 -1
-0.0201479460 -0.0620000860 0 -1
-0.0206882610 -0.0615142080 0 -1
-0.0209086380 -0.0607737930 0 -1
-0.0207802060 -0.0597908400 0 -1
-0.0203053980 -0.0585997640 0 -1
-0.0195155380 -0.0572534050 0 -1
-0.0184634710 -0.0558165050 0 -1
-0.0172144470 -0.0543570220 0 -1
-0.0158378460 -0.0529378520 0 -1
-0.0144012350 -0.0516115470 0 -1
-0.0129682760 -0.0504190660 0 -1
-0.0116003140 -0.0493915400 0 -1
-0.0103583390 -0.0485519810 0 -1
-0.0093018200 -0.0479140740 0 -1
-0.0084836580 -0.0474787380 0 -1
-0.0079427850 -0.0472325050 0 -1
-0.0076972170 -0.0471504320 0 -1
-0.0077392840 -0.0472012700 0 -1
-0.0080321780 -0.0473506260 0 -1
-0.0085081120 -0.0475607090 0 -1
-0.0090719000 -0.0477884490 0 -1
-0.0096117810 -0.0479844530 0 -1
-0.0100144990 -0.0480948570 0 -1
-0.0101815770 -0.0480670220 0 -1
-0.0100448320 -0.0478577980 0 -1
-0.0095769930 -0.0474413690 0 -1
-0.0087934110 -0.0468142700 0 -1
-0.0077456060 -0.0459964600 0 -1
-0.0065128810 -0.0450283880 0 -1
-0.0051981940 -0.0439655030 0 -1
-0.0039249880 -0.0428725600 0 -1
-0.0028236100 -0.0418181630 0 -1
-0.0020048360 -0.0408679700 0 -1
-0.0015341870 -0.0400766540 0 -1
-0.0014221950 -0.0394815390 0 -1
-0.0016313330 -0.0391005360 0 -1
-0.0020890950 -0.0389341680 0 -1
-0.0026997020 -0.0389687890 0 -1
-0.0033550200 -0.0391773790 0 -1
-0.0039466500 -0.0395171060 0 -1
-0.0043777290 -0.0399269290 0 -1
-0.0045722520 -0.0403294130 0 -1
-0.0044822730 -0.0406380710 0 -1
-0.0040931330 -0.0407687820 0 -1
-0.0034242420 -0.0406526530 0 -1
-0.0025229490 -0.0402474110 0 -1
-0.0014527190 -0.0395445540 0 -1
-0.0002805900 -0.0385705870 0 -1
0.0009315880 -0.0373826840 0 -1
0.0021311580 -0.0360604350 0 -1
0.0032749290 -0.0346951760 0 -1
0.0043270970 -0.0333785310 0 -1
0.0052577470 -0.0321923620 0 -1
0.0060451500 -0.0312012960 0 -1
0.0066812430 -0.0304470500 0 -1
0.0071762060 -0.0299438770 0 0
0.0075598040 -0.0296764940 0 0
0.0078797420 -0.0296023420 0 0
0.0081974220 -0.0296578040 0 0
0.0085820630 -0.0297660970 0 0
0.0091051650 -0.0298456190 0 0
0.0098353160 -0.0298187200 0 0
0.0108302810 -0.0296204800 0 0
0.0121247970 -0.0292071490 0 0
0.0137188520 -0.0285640630 0 0
0.0155744310 -0.0277112280 0 0
0.0176227300 -0.0267037510 0 0
0.0197743450 -0.0256260120 0 0
0.0219247270 -0.0245805560 0 0
0.0239570760 -0.0236736000 0 0
0.0257505840 -0.0230003230 0 0
0.0271965340 -0.0226330670 0 0
0.0282174540 -0.0226131780 0 0
0.0287824390 -0.0229455410 0 0
0.0289130970 -0.0235960880 0 0
0.0286778340 -0.0244940090 0 0
0.0281775770 -0.0255393800 0 0
0.0275290950 -0.0266148160 0 0
0.0268498570 -0.0275992250 0 0
0.0262456450 -0.0283817970 0 0
0.0258018310 -0.0288742130 0 0
0.0255782990 -0.0290193090 0 0
0.0256064290 -0.0287957610 0 0
0.0258876120 -0.0282193000 0 0
0.0263937500 -0.0273405340 0 0
0.0270693680 -0.0262387960 0 0
0.0278364800 -0.0250123440 0 0
0.0286050170 -0.0237666470 0 0
0.0292872450 -0.0226026390 0 0
0.0298098780 -0.0216060380 0 0
0.0301205510 -0.0208387110 1 0
0.0301910360 -0.0203335210 1 0
0.0300191370 -0.0200936800 1 0
0.0296274750 -0.0200960570 0 0
0.0290580530 -0.0202965650 0 0
0.0283652420 -0.0206362880 0 0
0.0276106750 -0.0210479930 0 0
0.0268608260 -0.0214620720 0 0
0.0261851520 -0.0218110420 0 0
0.0256514750 -0.0220336990 0 0
0.0253175900 -0.0220801910 0 0
0.0252219340 -0.0219170740 0 0
0.0253760850 -0.0215304050 0 0
0.0257601780 -0.0209258740 0 0
0.0263244920 -0.0201260570 0 0
0.0270005130 -0.0191661700 0 0
0.0277161870 -0.0180906470 0 0
0.0284049640 -0.0169520040 0 0
0.0290070710 -0.0158109420 0 0
0.0294708140 -0.0147346340 0 0
0.0297585710 -0.0137911500 0 0
0.0298540430 -0.0130415500 0 0
0.0297639070 -0.0125334310 0 0
0.0295106970 -0.0122983070 0 0
0.0291225650 -0.0123519700 0 0
0.0286287130 -0.0126952440 0 0
0.0280621090 -0.0133133800 0 0
0.0274647670 -0.0141746010 0 0
0.0268914160 -0.0152297040 0 0
0.0264095970 -0.0164139940 0 0
0.0260957980 -0.0176513530 0 0
0.0260276870 -0.0188600840 0 0
0.0262724780 -0.0199610480 0 0
0.0268737110 -0.0208878840 0 0
0.0278413610 -0.0215969960 0 0
0.0291488390 -0.0220744430 0 0
0.0307369290 -0.0223384090 1 0
0.0325230300 -0.0224370940 1 0
0.0344138990 -0.0224422690 1 0
0.0363188350 -0.0224392770 1 0
0.0381590900 -0.0225145750 1 0
0.0398718600 -0.0227421720 1 0
0.0414113700 -0.0231710450 1 0
0.0427495150 -0.0238161940 1 0
0.0438759450 -0.0246555090 1 0
0.0447973850 -0.0256326010 1 0
0.0455366690 -0.0266638130 1 0
0.0461307630 -0.0276477350 1 0
0.0466261590 -0.0284768560 1 0
0.0470716250 -0.0290510510 1 0
0.0475112940 -0.0292913320 1 0
0.0479826090 -0.0291511980 1 0
0.0485210350 -0.0286227350 1 0
0.0491662680 -0.0277359070 1 0
0.0499610580 -0.0265520860 1 0
0.0509406700 -0.0251542910 1 0
0.0521200790 -0.0236361750 1 0
0.0534867800 -0.0220919270 1 0
0.0550016910 -0.0206094660 1 0
0.0566059020 -0.0192663340 1 0
0.0582301590 -0.0181249000 1 0
0.0598049490 -0.0172256420 1 0
0.0612684230 -0.0165815820 1 0
0.0625693240 -0.0161777360 1 0
0.0636659920 -0.0159762690 1 0
0.0645266710 -0.0159246500 1 0
0.0651347220 -0.0159635760 1 0
0.0654966410 -0.0160331250 1 0
0.0656467580 -0.0160770060 1 0
0.0656441740 -0.0160451470 1 0
0.0655631420 -0.0158955290 1 0
0.0654815000 -0.0155968760 1 0
0.0654700470 -0.0151328070 1 0
0.0655834740 -0.0145056780 1 0
0.0658535850 -0.0137374870 1 0
0.0662860810 -0.0128671500 1 0
0.0668612490 -0.0119457600 1 0
0.0675371850 -0.0110314730 1 0
0.0682538150 -0.0101842200 1 0
0.0689382390 -0.0094598890 1 0
0.0695137100 -0.0089040420 1 0
0.0699125120 -0.0085460920 1 0
0.0700885830 -0.0083954880 1 0
0.0700248440 -0.0084410310 1 0
0.0697342520 -0.0086535150 1 0
0.0692569970 -0.0089911340 1 0
0.0686566950 -0.0094061760 1 0
0.0680171740 -0.0098508370 1 0
0.0674377060 -0.0102813370 1 0
0.0670225560 -0.0106613570 1 0
0.0668657150 -0.0109654400 1 0
0.0670369190 -0.0111812640 1 0
0.0675726090 -0.0113097390 1 0
0.0684710370 -0.0113635460 1 0
0.0696913930 -0.0113654710 1 0
0.0711588850 -0.0113468950 1 0
0.0727754570 -0.0113459100 1 0
0.0744323670 -0.0114044880 1 0
0.0760209990 -0.0115643120 1 0
0.0774405830 -0.0118610170 1 0
0.0786036470 -0.0123176040 1 0
0.0794414610 -0.0129398010 1 0
0.0799105270 -0.0137162350 1 0
0.0799985380 -0.0146230510 1 0
0.0797272140 -0.0156295320 1 0
0.0791506920 -0.0167013400 1 0
0.0783501960 -0.0178003850 1 0
0.0774264830 -0.0188827400 1 0
0.0764910830 -0.0198970600 1 0
0.0756573330 -0.0207854610 1 0
0.0750314160 -0.0214874910 1 0
0.0747024790 -0.0219469870 1 0
0.0747321320 -0.0221205810 1 0
0.0751459650 -0.0219853130 1 0
0.0759298420 -0.0215430460 1 0
0.0770319090 -0.0208217740 1 0
0.0783696070 -0.0198747220 1 0
0.0798405000 -0.0187765810 1 0
0.0813352140 -0.0176161730 1 0
0.0827497250 -0.0164865210 1 0
0.0839946230 -0.0154741880 1 0
0.0850012750 -0.0146496530 1 0
0.0857257220 -0.0140601940 1 0
0.0861499080 -0.0137258450 1 0
0.0862794820 -0.0136388430 1 0
0.0861390640 -0.0137673550 1 0
0.0857674170 -0.0140631520 1 0
0.0852142010 -0.0144705540 1 0
0.0845373670 -0.0149334770 1 0
0.0837995720 -0.0153996330 1 0
0.0830635610 -0.0158231580 1 0
0.0823873060 -0.0161668350 1 0
0.0818195620 -0.0164038170 1 0
0.0813961680 -0.0165184570 1 0
0.0811367180 -0.0165062100 1 0
0.0810415250 -0.0163729380 1 0
0.0810904020 -0.0161340070 1 0
0.0812449020 -0.0158134210 1 0
0.0814531540 -0.0154428450 1 0
0.0816550520 -0.0150601280 1 0
0.0817875760 -0.0147065980 1 0
0.0817918860 -0.0144231250 1 0
0.0816221270 -0.0142464150 1 0
0.0812529620 -0.0142063570 1 0
0.0806824410 -0.0143229580 1 0
0.0799291060 -0.0146015530 1 0
0.0790251700 -0.0150282660 1 0
0.0780093430 -0.0155692960 1 0
0.0769219170 -0.0161745200 1 0
0.0758026600 -0.0167823900 1 0
0.0746910170 -0.0173238570 1 0
0.0736274380 -0.0177255270 1 0
0.0726530310 -0.0179131960 1 0
0.0718046430 -0.0178173040 1 0
0.0711063030 -0.0173816160 1 0
0.0705623070 -0.0165736400 1 0
0.0701563580 -0.0153920440 1 0
0.0698561910 -0.0138674150 1 0
0.0696193240 -0.0120571330 1 0
0.0693958440 -0.0100372690 1 0
0.0691285990 -0.0078935990 1 0
0.0687567640 -0.0057123580 1 0
0.0682268990 -0.0035703230 1 0
0.0675065010 -0.0015243540 1 0
0.0665917330 0.0003974880 1 0
0.0655076480 0.0022006140 1 0
0.0643045250 0.0039234900 1 0
0.0630512620 0.0056324220 1 0
0.0618237350 0.0074114370 1 0
0.0606896900 0.0093473430 1 0
0.0596968570 0.0115123780 1 0
0.0588690780 0.0139493800 1 0
0.0582088050 0.0166640210 1 0
0.0577016750 0.0196252870 1 0
0.0573213250 0.0227719300 1 0
0.0570346530 0.0260214250 1 0
0.0568066770 0.0292790640 1 0
0.0566031730 0.0324465260 1 1
0.0563905200 0.0354298620 1 1
0.0561341540 0.0381467050 1 1
0.0557977650 0.0405328560 1 1
0.0553451950 0.0425481140 1 1
0.0547456430 0.0441800190 1 1
0.0539801140 0.0454436020 1 1
0.0530455030 0.0463762260 1 1
0.0519550830 0.0470289880 1 1
0.0507371920 0.0474579240 1 1
0.0494331490 0.0477177210 1 1
0.0480937230 0.0478584860 1 1
0.0467745050 0.0479243380 1 1
0.0455314000 0.0479520390 1 1
0.0444158040 0.0479684830 1 1
0.0434680890 0.0479877400 1 1
0.0427103990 0.0480097130 1 1
0.0421421020 0.0480212240 1 1
0.0417394370 0.0479985750 1 1
0.0414577220 0.0479109570 1 1
0.0412350850 0.0477249500 1 1
0.0409991760 0.0474099580 1 1
0.0406780660 0.0469429280 1 1
0.0402135720 0.0463107130 1 1
0.0395728870 0.0455108390 1 1
0.0387531310 0.0445519730 1 1
0.0377744150 0.0434531850 1 1
0.0366634110 0.0422406370 1 1
0.0354381630 0.0409429860 1 1
0.0341049490 0.0395884990 1 1
0.0326674950 0.0382053340 1 1
0.0311404220 0.0368233710 1 1
0.0295597840 0.0354750920 0 1
0.0279871270 0.0341940890 0 1
0.0265049040 0.0330114210 0 1
0.0252040420 0.0319510720 0 1
0.0241678210 0.0310259370 0 1
0.0234563480 0.0302351190 0 1
0.0230947840 0.0295625780 0 0
0.0230687390 0.0289771190 0 0
0.0233281730 0.0284342750 0 0
0.0237967990 0.0278801810 0 0
0.0243831730 0.0272560760 0 0
0.0249920050 0.0265026020 0 0
0.0255336470 0.0255650730 0 0
0.0259295730 0.0244006400 0 0
0.0261161610 0.0229862460 0 0
0.0260506920 0.0213250880 0 0
0.0257186000 0.0194492460 0 0
0.0251379900 0.0174175270 0 0
0.0243589070 0.0153092120 0 0
0.0234566050 0.0132145090 0 0
0.0225197440 0.0112229280 0 0
0.0216366790 0.0094125150 0 0
0.0208836050 0.0078422500 0 0
0.0203164590 0.0065472930 0 0
0.0199667710 0.0055359370 0 0
0.0198412960 0.0047878310 0 0
0.0199242300 0.0042537800 0 0
0.0201792850 0.0038586020 0 0
0.0205505830 0.0035088510 0 0
0.0209650430 0.0031053190 0 0
0.0213391600 0.0025575720 0 0
0.0215896460 0.0017964710 0 0
0.0216445180 0.0007812810 0 0
0.0214511600 -0.0004997810 0 0
0.0209798620 -0.0020340760 0 0
0.0202244700 -0.0037910680 0 0
0.0192039290 -0.0057275890 0 0
0.0179654550 -0.0077901420 0 0
0.0165846000 -0.0099155340 0 0
0.0151575800 -0.0120327500 0 0
0.0137872680 -0.0140675370 0 0
0.0125695130 -0.0159492250 0 0
0.0115855470 -0.0176189040 0 0
0.0108998260 -0.0190376440 0 0
0.0105586630 -0.0201920400 0 0
0.0105878850 -0.0210946020 0 0
0.0109914020 -0.0217794690 0 0
0.0117504440 -0.0222957920 0 0
0.0128205140 -0.0227000830 0 0
0.0141282080 -0.0230478430 0 0
0.0155757620 -0.0233858690 0 0
0.0170551670 -0.0237473810 0 0
0.0184635910 -0.0241510000 0 0
0.0197128320 -0.0246028520 0 0
0.0207337970 -0.0251003240 0 0
0.0214805370 -0.0256358630 0 0
0.0219364700 -0.0261995150 0 0
0.0221218530 -0.0267797150 0 0
0.0220981320 -0.0273631010 0 0
0.0219647150 -0.0279348570 0 0
0.0218467260 -0.0284813460 0 0
0.0218744700 -0.0289958090 0 0
0.0221582160 -0.0294856350 0 0
0.0227661710 -0.0299780320 0 0
0.0237129060 -0.0305218780 0 -1
0.0249592500 -0.0311856300 0 -1
0.0264202340 -0.0320522190 0 -1
0.0279780370 -0.0332112620 0 -1
0.0294989530 -0.0347483640 0 -1
0.0308540500 -0.0367326920 1 -1
0.0319406360 -0.0392064900 1 -1
0.0326984170 -0.0421802130 1 -1
0.0331148200 -0.0456336790 1 -1
0.0332187800 -0.0495205470 1 -1
0.0330674440 -0.0537738350 1 -1
0.0327322720 -0.0583124480 1 -1
0.0322890770 -0.0630481350 1 -1
0.0318124660 -0.0678905540 1 -1
0.0313725680 -0.0727498430 1 -1
0.0310323590 -0.0775391160 1 -1
0.0308452680 -0.0821785380 1 -1
0.0308537080 -0.0866001510 1 -1
0.0310893420 -0.0907518360 1 -1
0.0315741310 -0.0945989850 1 -1
0.0323197140 -0.0981234820 1 -1
0.0333254660 -0.1013214300 1 -1
0.0345784550 -0.1042012160 1 -1
0.0360550510 -0.1067815910 1 -1
0.0377204480 -0.1090884730 1 -1
0.0395259200 -0.1111504740 1 -1
0.0414076390 -0.1129949770 1 -1
0.0432888800 -0.1146470030 1 -1
0.0450851050 -0.1161311280 1 -1
0.0467121720 -0.1174737960 1 -1
0.0480979960 -0.1187028040 1 -1
0.0491953160 -0.1198432900 1 -1
0.0499909570 -0.1209124020 1 -1
0.0505084800 -0.1219155300 1 -1
0.0508046800 -0.1228450990 1 -1
0.0509617010 -0.1236814640 1 -1
0.0510758620 -0.1243961070 1 -1
0.0512449620 -0.1249575530 1 -1
0.0515562850 -0.1253384720 1 -1
0.0520764320 -0.1255212000 1 -1
0.0528434540 -0.1255005910 1 -1
0.0538626360 -0.1252847820 1 -1
0.0551078430 -0.1248936930 1 -1
0.0565279320 -0.1243546170 1 -1
0.0580537450 -0.1236961750 1 -1
0.0596020080 -0.1229435460 1 -1
0.0610786120 -0.1221166580 1 -1
0.0623869410 -0.1212307690 1 -1
0.0634428730 -0.1202981110 1 -1
0.0641919550 -0.1193294250 1 -1
0.0646219290 -0.1183344530 1 -1
0.0647664170 -0.1173207460 1 -1
0.0646999590 -0.1162911660 1 -1
0.0645269460 -0.1152416860 1 -1
0.0643665800 -0.1141609830 1 -1
0.0643350570 -0.1130319950 1 -1
0.0645272850 -0.1118346580 1 -1
0.0650026850 -0.1105486610 1 -1
0.0657796760 -0.1091551500 1 -1
0.0668394310 -0.1076371150 1 -1
0.0681343780 -0.1059796450 1 -1
0.0695958930 -0.1041711130 1 -1
0.0711391500 -0.1022046980 1 -1
0.0726660950 -0.1000798990 1 -1
0.0740689550 -0.0978047930 1 -1
0.0752370130 -0.0953985340 1 -1
0.0760669130 -0.0928923140 1 -1
0.0764733510 -0.0903275180 1 -1
0.0763971420 -0.0877508620 1 -1
0.0758104040 -0.0852078120 1 -1
0.0747195970 -0.0827369420 1 -1
0.0731665280 -0.0803668440 1 -1
0.0712276020 -0.0781145510 1 -1
0.0690103090 -0.0759835870 1 -1
0.0666432120 -0.0739613400 1 -1
0.0642584960 -0.0720177640 1 -1
0.0619742770 -0.0701075990 1 -1
0.0598850850 -0.0681761940 1 -1
0.0580608790 -0.0661674630 1 -1
0.0565492930 -0.0640329580 1 -1
0.0553766900 -0.0617416040 1 -1
0.0545457620 -0.0592887640 1 -1
0.0540310090 -0.0567025240 1 -1
0.0537775570 -0.0540454300 1 -1
0.0537074280 -0.0514110440 1 -1
0.0537309480 -0.0489151200 1 -1
0.0537573150 -0.0466810770 1 -1
0.0537007000 -0.0448205460 1 -1
0.0534828960 -0.0434131950 1 -1
0.0530361200 -0.0424921480 1 -1
0.0523084860 -0.0420390740 1 -1
0.0512712330 -0.0419891020 1 -1
0.0499247900 -0.0422428070 1 -1
0.0483018790 -0.0426812610 1 -1
0.0464678290 -0.0431810530 1 -1
0.0445185180 -0.0436276940 1 -1
0.0425752130 -0.0439257280 1 -1
0.0407737170 -0.0440047060 1 -1
0.0392463280 -0.0438222540 1 -1
0.0381007110 -0.0433656800 1 -1
0.0374029890 -0.0426521150 1 -1
0.0371687560 -0.0417270140 1 -1
0.0373620590 -0.0406611700 1 -1
0.0379019810 -0.0395457100 1 -1
0.0386748220 -0.0384840500 1 -1
0.0395483750 -0.0375807950 1 -1
0.0403871820 -0.0369290950 1 -1
0.0410690490 -0.0365988480 1 -1
0.0415003690 -0.0366288790 1 -1
0.0416257850 -0.0370249340 1 -1
0.0414296510 -0.0377622470 1 -1
0.0409301050 -0.0387900060 1 -1
0.0401699680 -0.0400368830 1 -1
0.0392109090 -0.0414185100 1 -1
0.0381336210 -0.0428469660 1 -1
0.0370383340 -0.0442403940 1 -1
0.0360379400 -0.0455303300 1 -1
0.0352440370 -0.0466654280 1 -1
0.0347522900 -0.0476119950 1 -1
0.0346301150 -0.0483527570 1 -1
0.0349059870 -0.0488850690 1 -1
0.0355624990 -0.0492188720 1 -1
0.0365379700 -0.0493741240 1 -1
0.0377381340 -0.0493779120 1 -1
0.0390537800 -0.0492620040 1 -1
0.0403773130 -0.0490610790 1 -1
0.0416133170 -0.0488111990 1 -1
0.0426827550 -0.0485484210 1 -1
0.0435238700 -0.0483075790 1 -1
0.0440933430 -0.0481201970 1 -1
0.0443681880 -0.0480104840 1 -1
0.0443464180 -0.0479901820 1 -1
0.0440458060 -0.0480542280 1 -1
0.0435011670 -0.0481783010 1 -1
0.0427603260 -0.0483187440 1 -1
0.0418796120 -0.0484156600 1 -1
0.0409199920 -0.0483995320 1 -1
0.0399439680 -0.0482004440 1 -1
0.0390130090 -0.0477578930 1 -1
0.0381844150 -0.0470290160 1 -1
0.0375049570 -0.0459941810 1 -1
0.0370007220 -0.0446602430 1 -1
0.0366684350 -0.0430619150 1 -1
0.0364748850 -0.0412611430 1 -1
0.0363649460 -0.0393442810 1 -1
0.0362729450 -0.0374162050 1 -1
0.0361323050 -0.0355903510 1 -1
0.0358824130 -0.0339758660 1 -1
0.0354745270 -0.0326648510 1 -1
0.0348770830 -0.0317220010 1 -1
0.0340775080 -0.0311779560 1 -1
0.0330787870 -0.0310270520 1 -1
0.0318940650 -0.0312288480 1 -1
0.0305447100 -0.0317119620 1 -1
0.0290637230 -0.0323797550 0 -1
0.0275006720 -0.0331185080 0 -1
0.0259217250 -0.0338083350 0 -1
0.0244023130 -0.0343359880 0 -1
0.0230165010 -0.0346077620 0 -1
0.0218278260 -0.0345598230 0 -1
0.0208822770 -0.0341634150 0 -1
0.0202032720 -0.0334243800 0 -1
0.0197905260 -0.0323787220 0 -1
0.0196220410 -0.0310869330 0 -1
0.0196542730 -0.0296288280 0 0
0.0198201860 -0.0280981150 0 0
0.0200318560 -0.0265944450 0 0
0.0201908860 -0.0252127140 0 0
0.0202025050 -0.0240321330 0 0
0.0199893020 -0.0231069540 0 0
0.0195029340 -0.0224591800 0 0
0.0187304870 -0.0220744640 0 0
0.0176918050 -0.0219033800 0 0
0.0164291770 -0.0218689220 0 0
0.0149956020 -0.0218790400 0 0
0.0134472600 -0.0218414640 0 0
0.0118415610 -0.0216770970 0 0
0.0102375220 -0.0213288640 0 0
0.0086939980 -0.0207654110 0 0
0.0072653750 -0.0199811930 0 0
0.0059982330 -0.0189945070 0 0
0.0049297500 -0.0178440680 0 0
0.0040841390 -0.0165844160 0 0
0.0034655580 -0.0152807050 0 0
0.0030519900 -0.0140035070 0 0
0.0027952990 -0.0128239430 0 0
0.0026275260 -0.0118086000 0 0
0.0024695700 -0.0110132770 0 0
0.0022398350 -0.0104754180 0 0
0.0018632700 -0.0102067740 0 0
0.0012806430 -0.0101891750 0 0
0.0004565430 -0.0103759760 0 0
-0.0006147910 -0.0106991530 0 0
-0.0019073980 -0.0110793550 0 0
-0.0033675820 -0.0114358900 0 0
-0.0049237990 -0.0116947320 0 0
-0.0064988890 -0.0117932320 0 0
-0.0080203600 -0.0116810890 0 0
-0.0094268680 -0.0113197130 0 0
-0.0106723830 -0.0106835040 0 0
-0.0117299180 -0.0097646210 0 0
-0.0125942620 -0.0085793050 0 0
-0.0132820340 -0.0071719910 0 0
-0.0138291190 -0.0056141320 0 0
-0.0142865100 -0.0039976400 0 0
-0.0147141380 -0.0024251590 0 0
-0.0151721000 -0.0009990810 0 0
-0.0157118150 0.0001898760 0 0
-0.0163709250 0.0010729770 0 0
-0.0171721540 0.0016103120 0 0
-0.0181234410 0.0017928550 0 0
-0.0192187760 0.0016405060 0 0
-0.0204415000 0.0011976280 0 0
-0.0217689510 0.0005271990 0 0
-0.0231731300 -0.0002951600 0 0
-0.0246154710 -0.0011862170 0 0
-0.0260427720 -0.0020595320 0 0
-0.0273937340 -0.0028303180 0 0
-0.0286170500 -0.0034213650 0 0
-0.0296900780 -0.0037707170 0 0
-0.0306240170 -0.0038406060 -1 0
-0.0314520360 -0.0036247180 -1 0
-0.0322111090 -0.0031504370 -1 0
-0.0329307620 -0.0024747590 -1 0
-0.0336315290 -0.0016745040 -1 0
-0.0343273810 -0.0008329620 -1 0
-0.0350277190 -0.0000269617 -1 0
-0.0357392680 0.0006815130 -1 0
-0.0364695970 0.0012480330 -1 0
-0.0372319510 0.0016451990 -1 0
-0.0380475310 0.0018617460 -1 0
-0.0389415250 0.0019020880 -1 0
-0.0399348270 0.0017855520 -1 0
-0.0410367300 0.0015442020 -1 0
-0.0422410800 0.0012185080 -1 0
-0.0435249260 0.0008514070 -1 0
-0.0448481770 0.0004828030 -1 0
-0.0461540540 0.0001462620 -1 0
-0.0473727280 -0.0001321640 -1 0
-0.0484311340 -0.0003344310 -1 0
-0.0492669970 -0.0004516410 -1 0
-0.0498403640 -0.0004862500 -1 0
-0.0501383880 -0.0004542420 -1 0
-0.0501745780 -0.0003850230 -1 0
-0.0499851500 -0.0003173630 -1 0
-0.0496240390 -0.0002921930 -1 0
-0.0491572060 -0.0003452560 -1 0
-0.0486558720 -0.0005027680 -1 0
-0.0481883270 -0.0007809570 -1 0
-0.0478115770 -0.0011875310 -1 0
-0.0475648550 -0.0017222540 -1 0
-0.0474662440 -0.0023752350 -1 0
-0.0475127460 -0.0031238340 -1 0
-0.0476828920 -0.0039305240 -1 0
-0.0479391330 -0.0047434600 -1 0
-0.0482276520 -0.0054999430 -1 0
-0.0484778480 -0.0061324140 -1 0
-0.0486074960 -0.0065771400 -1 0
-0.0485358930 -0.0067849830 -1 0
-0.0481996570 -0.0067317520 -1 0
-0.0475642010 -0.0064246060 -1 0
-0.0466280930 -0.0059023310 -1 0
-0.0454205120 -0.0052298800 -1 0
-0.0439936800 -0.0044896280 -1 0
-0.0424141450 -0.0037718420 -1 0
-0.0407555450 -0.0031650880 -1 0
-0.0390923950 -0.0027465250 -1 0
-0.0374940750 -0.0025734170 -1 0
-0.0360201500 -0.0026774930 -1 0
-0.0347186020 -0.0030622750 -1 0
-0.0336257300 -0.0037031600 -1 0
-0.0327636250 -0.0045504370 -1 0
-0.0321342240 -0.0055350230 -1 0
-0.0317153980 -0.0065759530 -1 0
-0.0314635380 -0.0075884970 -1 0
-0.0313204520 -0.0084922890 -1 0
-0.0312212120 -0.0092195080 -1 0
-0.0311033000 -0.0097225520 -1 0
-0.0309172330 -0.0099796070 -1 0
-0.0306347880 -0.0099967700 -1 0
-0.0302499550 -0.0098064690 -1 0
-0.0297728590 -0.0094625410 0 0
-0.0292225080 -0.0090331210 0 0
-0.0286232010 -0.0085930130 0 0
-0.0280045440 -0.0082170860 0 0
-0.0274021920 -0.0079755070 0 0
-0.0268569080 -0.0079302780 0 0
-0.0264110000 -0.0081321850 0 0
-0.0261022410 -0.0086182900 0 0
-0.0259564820 -0.0094102600 0 0
-0.0259816560 -0.0105134330 0 0
-0.0261658660 -0.0119165240 0 0
-0.0264793560 -0.0135917400 0 0
-0.0268780000 -0.0154950020 0 0
-0.0273076250 -0.0175664080 0 0
-0.0277106800 -0.0197313650 0 0
-0.0280353770 -0.0219037640 0 0
-0.0282444230 -0.0239932520 0 0
-0.0283195210 -0.0259168840 0 0
-0.0282603800 -0.0276118500 0 0
-0.0280799800 -0.0290446130 0 0
-0.0277983470 -0.0302138660 0 -1
-0.0274370930 -0.0311478100 0 -1
-0.0270180610 -0.0318983680 0 -1
-0.0265678680 -0.0325346680 0 -1
-0.0261238270 -0.0331357680 0 -1
-0.0257329550 -0.0337811620 0 -1
-0.0254416910 -0.0345395210 0 -1
-0.0252832280 -0.0354590400 0 -1
-0.0252703090 -0.0365628610 0 -1
-0.0253946920 -0.0378502340 0 -1
-0.0256302330 -0.0393019820 0 -1
-0.0259376030 -0.0408882070 0 -1
-0.0262705020 -0.0425754280 0 -1
-0.0265833910 -0.0443308770 0 -1
-0.0268401900 -0.0461242740 0 -1
-0.0270221220 -0.0479291140 0 -1
-0.0271304810 -0.0497247420 0 -1
-0.0271798880 -0.0514989460 0 -1
-0.0271838460 -0.0532496870 0 -1
-0.0271418980 -0.0549843070 0 -1
-0.0270363620 -0.0567154440 0 -1
-0.0268383620 -0.0584550440 0 -1
-0.0265193070 -0.0602102720 0 -1
-0.0260655560 -0.0619846330 0 -1
-0.0254922350 -0.0637831650 0 -1
-0.0248491540 -0.0656162480 0 -1
-0.0242157640 -0.0674973590 0 -1
-0.0236884270 -0.0694349890 0 -1
-0.0233634530 -0.0714234820 0 -1
-0.0233182030 -0.0734381440 0 -1
-0.0235951980 -0.0754367430 0 -1
-0.0241942660 -0.0773656800 0 -1
-0.0250727340 -0.0791677380 0 -1
-0.0261512560 -0.0807891750 0 -1
-0.0273249180 -0.0821851130 0 -1
-0.0284790850 -0.0833225720 0 -1
-0.0295065330 -0.0841804240 0 -1
-0.0303208290 -0.0847464200 -1 -1
-0.0308620790 -0.0850131120 -1 -1
-0.0310951950 -0.0849757910 -1 -1
-0.0310063230 -0.0846349370 -1 -1
-0.0306035720 -0.0840025470 -1 -1
-0.0299212310 -0.0831086480 0 -1
-0.0290202530 -0.0820044780 0 -1
-0.0279805380 -0.0807608300 0 -1
-0.0268884590 -0.0794616740 0 -1
-0.0258256890 -0.0781942570 0 -1
-0.0248619220 -0.0770377750 0 -1
-0.0240512070 -0.0760530850 0 -1
-0.0234315040 -0.0752756070 0 -1
-0.0230264040 -0.0747122140 0 -1
-0.0228453870 -0.0743414790 0 -1
-0.0228796270 -0.0741168430 0 -1
-0.0230970550 -0.0739729440 0 -1
-0.0234436070 -0.0738342990 0 -1
-0.0238512250 -0.0736246900 0 -1
-0.0242479710 -0.0732762660 0 -1
-0.0245677760 -0.0727378570 0 -1
-0.0247593190 -0.0719810120 0 -1
-0.0247929310 -0.0710017740 0 -1
-0.0246648690 -0.0698179840 0 -1
-0.0243985410 -0.0684643180 0 -1
-0.0240408400 -0.0669871950 0 -1
-0.0236520610 -0.0654402640 0 -1
-0.0232923890 -0.0638807430 0 -1
-0.0230119790 -0.0623666550 0 -1
-0.0228490650 -0.0609541710 0 -1
-0.0228328990 -0.0596942410 0 -1
-0.0229845080 -0.0586284260 0 -1
-0.0233126040 -0.0577844470 0 -1
-0.0238078110 -0.0571724390 0 -1
-0.0244398230 -0.0567827750 0 -1
-0.0251602420 -0.0565860100 0 -1
-0.0259099260 -0.0565356230 0 -1
-0.0266258420 -0.0565738330 0 -1
-0.0272445220 -0.0566393920 0 -1
-0.0277048310 -0.0566756730 0 -1
-0.0279531600 -0.0566375250 0 -1
-0.0279495070 -0.0564952770 0 -1
-0.0276706290 -0.0562345770 0 -1
-0.0271096030 -0.0558525470 0 -1
-0.0262751580 -0.0553526650 0 -1
-0.0251934150 -0.0547409550 0 -1
-0.0239098280 -0.0540246850 0 -1
-0.0224874610 -0.0532133870 0 -1
-0.0210023550 -0.0523209470 0 -1
-0.0195401790 -0.0513669500 0 -1
-0.0181942380 -0.0503755900 0 -1
-0.0170592030 -0.0493713170 0 -1
-0.0162167790 -0.0483714620 0 -1
-0.0157174420 -0.0473780930 0 -1
-0.0155678830 -0.0463737350 0 -1
-0.0157317180 -0.0453245760 0 -1
-0.0161432590 -0.0441898730 0 -1
-0.0167260930 -0.0429323030 0 -1
-0.0174068150 -0.0415246800 0 -1
-0.0181207210 -0.0399516560 0 -1
-0.0188129100 -0.0382079570 0 -1
-0.0194384190 -0.0362955540 0 -1
-0.0199627930 -0.0342213030 0 -1
-0.0203645800 -0.0319958420 0 -1
-0.0206402350 -0.0296341330 0 0
-0.0208081930 -0.0271567830 0 0
-0.0209075740 -0.0245902220 0 0
-0.0209907830 -0.0219652380 0 0
-0.0211137770 -0.0193155970 0 0
-0.0213276230 -0.0166774410 0 0
-0.0216711200 -0.0140871080 0 0
-0.0221646170 -0.0115755910 0 0
-0.0228083640 -0.0091610040 0 0
-0.0235864340 -0.0068412420 0 0
-0.0244726000 -0.0045883640 0 0
-0.0254347910 -0.0023461460 0 0
-0.0264374180 -0.0000318930 0 0
-0.0274419770 0.0024572410 0 0
-0.0284067400 0.0052337060 0 0
-0.0292873350 0.0084052240 0 0
-0.0300413000 0.0120575390 -1 0
-0.0306381250 0.0162373380 -1 0
-0.0310708700 0.0209408490 -1 0
-0.0313617800 0.0261123050 -1 0
-0.0315574840 0.0316514600 -1 1
-0.0317164480 0.0374258920 -1 1
-0.0318956340 0.0432839390 -1 1
-0.0321427860 0.0490656330 -1 1
-0.0324962450 0.0546105240 -1 1
-0.0329890640 0.0597636700 -1 1
-0.0336521600 0.0643831610 -1 1
-0.0345133650 0.0683518060 -1 1
-0.0355929330 0.0715917110 -1 1
-0.0368975240 0.0740769330 -1 1
-0.0384146540 0.0758390660 -1 1
-0.0401104760 0.0769627330 -1 1
-0.0419331660 0.0775707740 -1 1
-0.0438207730 0.0778027590 -1 1
-0.0457104450 0.0777937680 -1 1
-0.0475460910 0.0776595880 -1 1
-0.0492823900 0.0774900380 -1 1
-0.0508861350 0.0773486270 -1 1
-0.0523378190 0.0772755840 -1 1
-0.0536336670 0.0772914270 -1 1
-0.0547865230 0.0773996190 -1 1
-0.0558254070 0.0775886530 -1 1
-0.0567940080 0.0778347950 -1 1
-0.0577479860 0.0781062940 -1 1
-0.0587522460 0.0783683750 -1 1
-0.0598796970 0.0785865310 -1 1
-0.0612081360 0.0787266850 -1 1
-0.0628087440 0.0787543620 -1 1
-0.0647271580 0.0786362210 -1 1
-0.0669669040 0.0783444710 -1 1
-0.0694823760 0.0778622490 -1 1
-0.0721817500 0.0771885320 -1 1
-0.0749390320 0.0763418190 -1 1
-0.0776137600 0.0753613070 -1 1
-0.0800731460 0.0743037310 -1 1
-0.0822095790 0.0732347830 -1 1
-0.0839493800 0.0722165860 -1 1
-0.0852536020 0.0712951370 -1 1
-0.0861151310 0.0704915730 -1 1
-0.0865565400 0.0697987830 -1 1
-0.0866298630 0.0691822040 -1 1
-0.0864146650 0.0685834440 -1 1
-0.0860097400 0.0679271170 -1 1
-0.0855192350 0.0671312500 -1 1
-0.0850391490 0.0661193710 -1 1
-0.0846479470 0.0648314420 -1 1
-0.0844000550 0.0632316090 -1 1
-0.0843208980 0.0613117230 -1 1
-0.0844056780 0.0590906610 -1 1
-0.0846243960 0.0566106070 -1 1
-0.0849317390 0.0539312810 -1 1
-0.0852773840 0.0511219660 -1 1
-0.0856132440 0.0482519000 -1 1
-0.0858974090 0.0453820680 -1 1
-0.0860956510 0.0425614750 -1 1
-0.0861807510 0.0398282140 -1 1
-0.0861305440 0.0372132000 -1 1
-0.0859261580 0.0347437120 -1 1
-0.0855515060 0.0324447440 -1 1
-0.0849955820 0.0303378680 -1 1
-0.0842588560 0.0284382220 -1 0
-0.0833616180 0.0267504800 -1 0
-0.0823483550 0.0252651350 -1 0
-0.0812840430 0.0239569850 -1 0
-0.0802446450 0.0227863260 -1 0
-0.0793068780 0.0217014140 -1 0
-0.0785392860 0.0206415950 -1 0
-0.0779931930 0.0195432780 -1 0
-0.0776911980 0.0183502830 -1 0
-0.0776152560 0.0170258240 -1 0
-0.0777045770 0.0155607180 -1 0
-0.0778718470 0.0139746100 -1 0
-0.0780300700 0.0123111160 -1 0
-0.0781107210 0.0106296920 -1 0
-0.0780627070 0.0089964230 -1 0
-0.0778399370 0.0074751680 -1 0
-0.0773932280 0.0061205220 -1 0
-0.0766749700 0.0049739880 -1 0
-0.0756523270 0.0040634200 -1 0
-0.0743189940 0.0034040290 -1 0
-0.0726991220 0.0029988350 -1 0
-0.0708437750 0.0028374250 -1 0
-0.0688244520 0.0028933280 -1 0
-0.0667280070 0.0031220200 -1 0
-0.0646531660 0.0034628720 -1 0
-0.0627052260 0.0038470030 -1 0
-0.0609869440 0.0042090570 -1 0
-0.0595877420 0.0044979160 -1 0
-0.0585740420 0.0046820520 -1 0
-0.0579804370 0.0047489730 -1 0
-0.0578005290 0.0047022090 -1 0
-0.0579810710 0.0045597440 -1 0
-0.0584262690 0.0043544470 -1 0
-0.0590131410 0.0041340300 -1 0
-0.0596101620 0.0039578920 -1 0
-0.0600914390 0.0038896700 -1 0
-0.0603462420 0.0039866340 -1 0
-0.0602874850 0.0042892980 -1 0
-0.0598592350 0.0048147320 -1 0
-0.0590400550 0.0055550150 -1 0
-0.0578418420 0.0064803650 -1 0
-0.0563073930 0.0075452930 -1 0
-0.0545076290 0.0086954620 -1 0
-0.0525357390 0.0098729660 -1 0
-0.0504972470 0.0110193160 -1 0
-0.0484983860 0.0120777180 -1 0
-0.0466353300 0.0129967520 -1 0
-0.0449858510 0.0137360750 -1 0
-0.0436042830 0.0142730420 -1 0
-0.0425187490 0.0146083520 -1 0
-0.0417277890 0.0147691280 -1 0
-0.0411953410 0.0148081430 -1 0
-0.0408476880 0.0147984620 -1 0
-0.0405783170 0.0148248510 -1 0
-0.0402624560 0.0149748820 -1 0
-0.0397763230 0.0153315220 -1 0
-0.0390143750 0.0159667570 -1 0
-0.0379010990 0.0169345880 -1 0
-0.0363971830 0.0182626690 -1 0
-0.0345017550 0.0199449180 -1 0
-0.0322532460 0.0219387820 -1 0
-0.0297286450 0.0241682270 0 0
-0.0270361800 0.0265307690 0 0
-0.0242988980 0.0289066820 0 0
-0.0216354770 0.0311689800 0 1
-0.0191462880 0.0331932920 0 1
-0.0169062100 0.0348677880 0 1
-0.0149622120 0.0361034310 0 1
-0.0133341570 0.0368435810 0 1
-0.0120164430 0.0370712020 0 1
-0.0109790370 0.0368117540 0 1
-0.0101702370 0.0361305060 0 1
-0.0095234170 0.0351250400 0 1
-0.0089654540 0.0339150020 0 1
-0.0084231760 0.0326299930 0 1
-0.0078276180 0.0313955750 0 1
-0.0071190250 0.0303184050 0 1
-0.0062546310 0.0294732130 0 0
-0.0052171680 0.0288945520 0 0
-0.0040197710 0.0285747230 0 0
-0.0027045230 0.0284679510 0 0
-0.0013353600 0.0285005100 0 0
0.0000115021 0.0285850980 0 0
0.0012562390 0.0286358010 0 0
0.0023216300 0.0285799200 0 0
0.0031376050 0.0283650500 0 0
0.0036458480 0.0279622190 0 0
0.0038054160 0.0273672460 0 0
0.0035996180 0.0266012730 0 0
0.0030426270 0.0257093260 0 0
0.0021815170 0.0247559640 0 0
0.0010912680 0.0238185040 0 0
-0.0001342990 0.0229792010 0 0
-0.0013930080 0.0223179550 0 0
-0.0025867930 0.0219065400 0 0
-0.0036349080 0.0218046710 0 0
-0.0044839800 0.0220577310 0 0
-0.0051119800 0.0226951530 0 0
-0.0055257370 0.0237280040 0 0
-0.0057547670 0.0251449940 0 0
-0.0058454480 0.0269076220 0 0
-0.0058566490 0.0289468610 0 0
-0.0058548560 0.0311644590 0 1
-0.0059079370 0.0334405250 0 1
-0.0060787240 0.0356472750 0 1
-0.0064193240 0.0376667270 0 1
-0.0069670110 0.0394074100 0 1
-0.0077428720 0.0408147580 0 1
-0.0087539810 0.0418728780 0 1
-0.0099988410 0.0425986230 0 1
-0.0114718030 0.0430313860 0 1
-0.0131596180 0.0432238620 0 1
-0.0150302860 0.0432365710 0 1
-0.0170238350 0.0431339450 0 1
-0.0190531790 0.0429790410 0 1
-0.0210137660 0.0428267280 0 1
-0.0227960230 0.0427171160 0 1
-0.0242974520 0.0426713060 0 1
-0.0254343250 0.0426910450 0 1
-0.0261527920 0.0427623100 0 1
-0.0264375760 0.0428612670 0 1
-0.0263154220 0.0429601480 0 1
-0.0258523910 0.0430313030 0 1
-0.0251465970 0.0430490190 0 1
-0.0243170250 0.0429894620 0 1
-0.0234884360 0.0428297050 0 1
-0.0227746280 0.0425477890 0 1
-0.0222640640 0.0421249960 0 1
-0.0220119390 0.0415494970 0 1
-0.0220410110 0.0408200370 0 1
-0.0223481040 0.0399490670 0 1
-0.0229099680 0.0389650160 0 1
-0.0236862580 0.0379130340 0 1
-0.0246218450 0.0368529840 0 1
-0.0256499770 0.0358534410 0 1
-0.0266954400 0.0349829010 0 1
-0.0276777990 0.0343022060 0 1
-0.0285171490 0.0338611580 0 1
-0.0291431580 0.0336984340 0 1
-0.0295053280 0.0338416420 0 1
-0.0295820600 0.0343057600 0 1
-0.0293855810 0.0350906810 0 1
-0.0289605310 0.0361793340 0 1
-0.0283775680 0.0375373270 0 1
-0.0277243980 0.0391147640 0 1
-0.0270944530 0.0408507070 0 1
-0.0265739130 0.0426799090 0 1
-0.0262305440 0.0445400030 0 1
-0.0261074080 0.0463769070 0 1
-0.0262211610 0.0481480980 0 1
-0.0265634590 0.0498258380 0 1
-0.0271050910 0.0514017820 0 1
-0.0278012050 0.0528915640 0 1
-0.0285935290 0.0543365450 0 1
-0.0294085040 0.0558008260 0 1
-0.0301574840 0.0573633770 -1 1
-0.0307447740 0.0591065940 -1 1
-0.0310806160 0.0611035220 -1 1
-0.0310927890 0.0634065070 -1 1
-0.0307359770 0.0660393700 -1 1
-0.0300011310 0.0689937440 -1 1
-0.0289234080 0.0722292120 0 1
-0.0275840850 0.0756763580 0 1
-0.0261031220 0.0792418590 0 1
-0.0246224300 0.0828154780 0 1
-0.0232838910 0.0862795490 0 1
-0.0222079700 0.0895209660 0 1
-0.0214768380 0.0924443060 0 1
-0.0211248290 0.0949835870 0 1
-0.0211387840 0.0971097910 0 1
-0.0214669630 0.0988325810 0 1
-0.0220307000 0.1001969020 0 1
-0.0227338150 0.1012759380 0 1
-0.0234693000 0.1021616170 0 1
-0.0241260220 0.1029539170 0 1
-0.0245982540 0.1037496840 0 1
-0.0247981580 0.1046313130 0 1
-0.0246679260 0.1056565970 0 1
-0.0241874040 0.1068515620 0 1
-0.0233753390 0.1082072230 0 1
-0.0222849020 0.1096805250 0 1
-0.0209948790 0.1111997200 0 1
-0.0195974000 0.1126740710 0 1
-0.0181842090 0.1140068090 0 1
-0.0168364130 0.1151087310 0 1
-0.0156221540 0.1159091220 0 1
-0.0146008010 0.1163623140 0 1
-0.0138268350 0.1164509010 0 1
-0.0133484410 0.1161872120 0 1
-0.0132014560 0.1156128880 0 1
-0.0134010410 0.1147961360 0 1
-0.0139329920 0.1138274450 0 1
-0.0147491880 0.1128135220 0 1
-0.0157718790 0.1118677600 0 1
-0.0169048150 0.1110969860 0 1
-0.0180445030 0.1105869490 0 1
-0.0190891180 0.1103902810 0 1
-0.0199475190 0.1105207950 0 1
-0.0205482130 0.1109560780 0 1
-0.0208452170 0.1116463070 0 1
-0.0208210460 0.1125238320 0 1
-0.0204904340 0.1135090340 0 1
-0.0199044640 0.1145129940 0 1
-0.0191488900 0.1154413930 0 1
-0.0183327220 0.1162022810 0 1
-0.0175711690 0.1167157190 0 1
-0.0169688120 0.1169218820 0 1
-0.0166047010 0.1167866010 0 1
-0.0165205310 0.1163051610 0 1
-0.0167141550 0.1155043010 0 1
-0.0171394640 0.1144408880 0 1
-0.0177139130 0.1131966430 0 1
-0.0183348480 0.1118700210 0 1
-0.0189008210 0.1105662150 0 1
-0.0193295060 0.1093858000 0 1
-0.0195665150 0.1084135180 0 1
-0.0195859970 0.1077089960 0 1
-0.0193876650 0.1073000980 0 1
-0.0189935170 0.1071792090 0 1
-0.0184441110 0.1073040770 0 1
-0.0177924910 0.1076043050 0 1
-0.0170949520 0.1079913970 0 1
-0.0164005980 0.1083695440 0 1
-0.0157432330 0.1086462580 0 1
-0.0151384280 0.1087416150 0 1
-0.0145877260 0.1085932260 0 1
-0.0140894940 0.1081559020 0 1
-0.0136502450 0.1073990460 0 1
-0.0132880070 0.1063055750 0 1
-0.0130256170 0.1048735050 0 1
-0.0128793700 0.1031190140 0 1
-0.0128499670 0.1010795810 0 1
-0.0129193820 0.0988160550 0 1
-0.0130525700 0.0964117530 0 1
-0.0132004630 0.0939666980 0 1
-0.0133028880 0.0915875390 0 1
-0.0132937120 0.0893759280 0 1
-0.0131106270 0.0874182160 0 1
-0.0127086500 0.0857783870 0 1
-0.0120725890 0.0844949870 0 1
-0.0112219480 0.0835806780 0 1
-0.0102054380 0.0830218840 0 1
-0.0090897990 0.0827778090 0 1
-0.0079498060 0.0827810620 0 1
-0.0068603280 0.0829430830 0 1
-0.0058874150 0.0831655110 0 1
-0.0050793600 0.0833546890 0 1
-0.0044626870 0.0834345100 0 1
-0.0040450920 0.0833543890 0 1
-0.0038217250 0.0830917650 0 1
-0.0037789180 0.0826503450 0 1
-0.0038914620 0.0820561810 0 1
-0.0041156650 0.0813526750 0 1
-0.0043871120 0.0805935700 0 1
-0.0046301110 0.0798332930 0 1
-0.0047751310 0.0791164610 0 1
-0.0047732300 0.0784690430 0 1
-0.0045998640 0.0778930800 0 1
-0.0042497040 0.0773664840 0 1
-0.0037305810 0.0768476240 0 1
-0.0030625250 0.0762826990 0 1
-0.0022802830 0.0756147180 0 1
-0.0014341960 0.0747935220 0 1
-0.0005873440 0.0737846490 0 1
0.0001900680 0.0725736060 0 1
0.0008285190 0.0711636260 0 1
0.0012705500 0.0695691020 0 1
0.0014851760 0.0678101990 0 1
0.0014782910 0.0659127940 0 1
0.0012906720 0.0639128970 0 1
0.0009843850 0.0618610590 0 1
0.0006266370 0.0598224970 0 1
0.0002782470 0.0578715550 0 1
-0.0000112118 0.0560821670 0 1
-0.0002018260 0.0545173870 0 1
-0.0002576700 0.0532204740 0 1
-0.0001423650 0.0522092960 0 1
0.0001791090 0.0514758050 0 1
0.0007327670 0.0509915080 0 1
0.0015278510 0.0507166930 0 1
0.0025527200 0.0506079870 0 1
0.0037724770 0.0506205060 0 1
0.0051267840 0.0507062010 0 1
0.0065311230 0.0508124110 0 1
0.0078842550 0.0508832160 0 1
0.0090799490 0.0508642570 0 1
0.0100199760 0.0507093140 0 1
0.0106271440 0.0503858260 0 1
0.0108568000 0.0498782850 0 1
0.0107044930 0.0491905720 0 1
0.0102085970 0.0483474740 0 1
0.0094466740 0.0473939490 0 1
0.0085242830 0.0463916260 0 1
0.0075588250 0.0454134480 0 1
0.0066647590 0.0445366530 0 1
0.0059436560 0.0438339440 0 1
0.0054773960 0.0433643190 0 1
0.0053229740 0.0431660060 0 1
0.0055104690 0.0432527950 0 1
0.0060445490 0.0436136770 0 1
0.0069066180 0.0442152680 0 1
0.0080554770 0.0450063630 0 1
0.0094271730 0.0459233970 0 1
0.0109359310 0.0468955770 0 1
0.0124782460 0.0478493960 0 1
0.0139416590 0.0487125460 0 1
0.0152179310 0.0494172960 0 1
0.0162176010 0.0499041860 0 1
0.0168802620 0.0501274410 0 1
0.0171763460 0.0500616690 0 1
0.0171029420 0.0497067660 0 1
0.0166795910 0.0490884250 0 1
0.0159464140 0.0482550440 0 1
0.0149636620 0.0472738630 0 1
0.0138115710 0.0462272900 0 1
0.0125873420 0.0452075000 0 1
0.0113949720 0.0443075790 0 1
0.0103294500 0.0436104330 0 1
0.0094631200 0.0431781100 0 1
0.0088401450 0.0430428560 0 1
0.0084776630 0.0432007060 0 1
0.0083686960 0.0436102530 0 1
0.0084844520 0.0441991370 0 1
0.0087770880 0.0448767750 0 1
0.0091846800 0.0455483560 0 1
0.0096383150 0.0461258890 0 1
0.0100694530 0.0465354820 0 1
0.0104162600 0.0467222010 0 1
0.0106295950 0.0466534740 0 1
0.0106791980 0.0463209780 0 1
0.0105586260 0.0457406210 0 1
0.0102868480 0.0449501840 0 1
0.0099046640 0.0440043870 0 1
0.0094652180 0.0429683380 0 1
0.0090221020 0.0419108020 0 1
0.0086216250 0.0408976440 0 1
0.0083016780 0.0399852320 0 1
0.0080928900 0.0392144350 0 1
0.0080169610 0.0386063970 0 1
0.0080815660 0.0381613060 0 1
0.0082747440 0.0378609860 0 1
0.0085615820 0.0376745030 0 1
0.0088849470 0.0375640530 0 1
0.0091720170 0.0374883910 0 1
0.0093465980 0.0374033130 0 1
0.0093431300 0.0372608140 0 1
0.0091169970 0.0370096700 0 1
0.0086485690 0.0366001400 0 1
0.0079418830 0.0359927370 0 1
0.0070205250 0.0351675650 0 1
0.0059228640 0.0341302440 0 1
0.0046975370 0.0329130830 0 1
0.0033999930 0.0315726940 0 1
0.0020905270 0.0301851730 0 1
0.0008318850 0.0288386840 0 0
-0.0003163890 0.0276237880 0 0
-0.0013058550 0.0266232400 0 0
-0.0021042290 0.0259027060 0 0
-0.0026946520 0.0255030010 0 0
-0.0030719670 0.0254347550 0 0
-0.0032407120 0.0256770890 0 0
-0.0032167680 0.0261815770 0 0
-0.0030313100 0.0268807120 0 0
-0.0027341970 0.0276974550 0 0
-0.0023931650 0.0285524630 0 0
-0.0020863150 0.0293690730 0 0
-0.0018894490 0.0300783310 0 1
-0.0018628730 0.0306247530 0 1
-0.0020413900 0.0309715360 0 1
-0.0024295510 0.0311036650 0 1
-0.0030029550 0.0310282240 0 1
-0.0037140640 0.0307725810 0 1
-0.0044992090 0.0303812060 0 1
-0.0052848580 0.0299107740 0 0
-0.0059947110 0.0294228740 0 0
-0.0065595280 0.0289749350 0 0
-0.0069269220 0.0286117830 0 0
-0.0070661030 0.0283605070 0 0
-0.0069677210 0.0282292290 0 0
-0.0066424500 0.0282082740 0 0
-0.0061192590 0.0282727750 0 0
-0.0054420520 0.0283865260 0 0
-0.0046643690 0.0285063850 0 0
-0.0038432730 0.0285862160 0 0
-0.0030343490 0.0285797420 0 0
-0.0022895970 0.0284427140 0 0
-0.0016582160 0.0281356100 0 0
-0.0011873520 0.0276278090 0 0
-0.0009189740 0.0269023890 0 0
-0.0008831240 0.0259595380 0 0
-0.0010912170 0.0248179950 0 0
-0.0015311630 0.0235155020 0 0
-0.0021650390 0.0221083410 0 0
-0.0029323430 0.0206682820 0 0
-0.0037601810 0.0192758780 0 0
-0.0045758190 0.0180110270 0 0
-0.0053152220 0.0169430720 0 0
-0.0059252310 0.0161232180 0 0
-0.0063615610 0.0155810100 0 0
-0.0065874260 0.0153236860 0 0
-0.0065772870 0.0153358260 0 0
-0.0063250630 0.0155788060 0 0
-0.0058508400 0.0159920530 0 0
-0.0052018540 0.0164976690 0 0
-0.0044491440 0.0170078450 0 0
-0.0036821290 0.0174335050 0 0
-0.0030001480 0.0176937620 0 0
-0.0024992060 0.0177264550 0 0
-0.0022551280 0.0174980750 0 0
-0.0023081700 0.0170093460 0 0
-0.0026555630 0.0162942440 0 0
-0.0032547820 0.0154135910 0 0
-0.0040337910 0.0144459400 0 0
-0.0049022630 0.0134779320 0 0
-0.0057613960 0.0125946790 0 0
-0.0065137840 0.0118700020 0 0
-0.0070738050 0.0113577880 0 0
-0.0073755750 0.0110868160 0 0
-0.0073766260 0.0110601710 0 0
-0.0070604700 0.0112583500 0 0
-0.0064405610 0.0116441140 0 0
-0.0055620340 0.0121674120 0 0
-0.0044969240 0.0127701040 0 0
-0.0033343960 0.0133908260 0 0
-0.0021698610 0.0139699930 0 0
-0.0010938720 0.0144545010 0 0
-0.0001823080 0.0148012040 0 0
0.0005081870 0.0149781440 0 0
0.0009406950 0.0149640430 0 0
0.0011002510 0.0147477370 0 0
0.0009983950 0.0143288880 0 0
0.0006749930 0.0137207230 0 0
0.0001939220 0.0129539540 0 0
-0.0003664910 0.0120785920 0 0
-0.0009254550 0.0111603720 0 0
-0.0014111430 0.0102717300 0 0
-0.0017677280 0.0094804310 0 0
-0.0019552600 0.0088393690 0 0
-0.0019459990 0.0083795150 0 0
-0.0017252010 0.0081066670 0 0
-0.0012986290 0.0080018810 0 0
-0.0007002200 0.0080249010 0 0
0.0000076363 0.0081196900 0 0
0.0007427650 0.0082217650 0 0
0.0014167240 0.0082674590 0 0
0.0019478990 0.0082046330 0 0
0.0022715580 0.0080030040 0 0
0.0023464400 0.0076608140 0 0
0.0021577950 0.0072047300 0 0
0.0017177380 0.0066831380 0 0
0.0010644480 0.0061564190 0 0
0.0002601230 0.0056876700 0 0
-0.0006139040 0.0053346130 0 0
-0.0014656560 0.0051420750 0 0
-0.0022039490 0.0051355110 0 0
-0.0027507960 0.0053171490 0 0
-0.0030518750 0.0056656840 0 0
-0.0030823370 0.0061397230 0 0
-0.0028468010 0.0066850030 0 0
-0.0023756460 0.0072437950 0 0
-0.0017212350 0.0077629710 0 0
-0.0009543960 0.0081978660 0 0
-0.0001594320 0.0085124940 0 0
0.0005718930 0.0086793400 0 0
0.0011470040 0.0086814930 0 0
0.0014818600 0.0085166490 0 0
0.0015132770 0.0082006150 0 0
0.0012105330 0.0077683300 0 0
0.0005809350 0.0072713080 0 0
-0.0003346590 0.0067716720 0 0
-0.0014753890 0.0063347070 0 0
-0.0027751400 0.0060222530 0 0
-0.0041696080 0.0058877840 0 0
-0.0055948920 0.0059730480 0 0
-0.0069851230 0.0063062930 0 0
-0.0082755280 0.0069026910 0 0
-0.0094094260 0.0077669820 0 0
-0.0103432520 0.0088962970 0 0
-0.0110474640 0.0102802180 0 0
-0.0115059060 0.0118976090 0 0
-0.0117150970 0.0137128320 0 0
-0.0116821730 0.0156737910 0 0
-0.0114221820 0.0177127530 0 0
-0.0109579420 0.0197505960 0 0
-0.0103240470 0.0217042210 0 0
-0.0095725340 0.0234949820 0 0
-0.0087745670 0.0250564130 0 0
-0.0080142100 0.0263411200 0 0
-0.0073764330 0.0273262440 0 0
-0.0069338320 0.0280158320 0 0
-0.0067341670 0.0284400930 0 0
-0.0067900790 0.0286532010 0 0
-0.0070736060 0.0287300960 0 0
-0.0075186050 0.0287608120 0 0
-0.0080323060 0.0288414090 0 0
-0.0085125460 0.0290628600 0 0
-0.0088642870 0.0295008420 0 0
-0.0090115980 0.0302085870 0 1
-0.0089056530 0.0312128870 0 1
-0.0085296860 0.0325122400 0 1
-0.0078997840 0.0340766390 0 1
-0.0070607670 0.0358494270 0 1
-0.0060786250 0.0377521540 0 1
-0.0050317970 0.0396935200 0 1
-0.0040029250 0.0415814890 0 1
-0.0030721550 0.0433350680 0 1
-0.0023126870 0.0448921760 0 1
-0.0017871470 0.0462129960 0 1
-0.0015408210 0.0472808910 0 1
-0.0015911800 0.0481030270 0 1
-0.0019202110 0.0487102080 0 1
-0.0024759450 0.0491535080 0 1
-0.0031823930 0.0494964810 0 1
-0.0039525740 0.0498050570 0 1
-0.0047001440 0.0501388920 0 1
-0.0053477860 0.0505459590 0 1
-0.0058327030 0.0510590150 0 1
-0.0061095710 0.0516922420 0 1
-0.0061499670 0.0524380520 0 1
-0.0059384230 0.0532653630 0 1
-0.0054686910 0.0541204990 0 1
-0.0047440300 0.0549309070 0 1
-0.0037808230 0.0556114120 0 1
-0.0026112760 0.0560731960 0 1
-0.0012827420 0.0562346580 0 1
0.0001453310 0.0560312860 0 1
0.0016060780 0.0554219450 0 1
0.0030326370 0.0543915310 0 1
0.0043683430 0.0529517370 0 1
0.0055761210 0.0511410590 0 1
0.0066425220 0.0490232910 0 1
0.0075761710 0.0466833200 0 1
0.0084039880 0.0442205280 0 1
0.0091669160 0.0417414680 0 1
0.0099138820 0.0393526350 0 1
0.0106925940 0.0371518880 0 1
0.0115381780 0.0352173460 0 1
0.0124631270 0.0335966230 0 1
0.0134532430 0.0323017980 0 1
0.0144720010 0.0313125370 0 1
0.0154700930 0.0305847840 0 1
0.0163936790 0.0300602120 0 1
0.0171879630 0.0296731250 0 0
0.0177976350 0.0293546010 0 0
0.0181673960 0.0290358730 0 0
0.0182460700 0.0286529460 0 0
0.0179960970 0.0281532190 0 0
0.0174046750 0.0275026540 0 0
0.0164897740 0.0266903760 0 0
0.0152985750 0.0257288990 0 0
0.0139009910 0.0246508430 0 0
0.0123806690 0.0235038560 0 0
0.0108238260 0.0223445750 0 0
0.0093073440 0.0212318530 0 0
0.0078899320 0.0202201610 0 0
0.0066090380 0.0193549420 0 0
0.0054829580 0.0186707110 0 0
0.0045159410 0.0181902880 0 0
0.0037035730 0.0179231100 0 0
0.0030352890 0.0178625720 0 0
0.0024922180 0.0179835960 0 0
0.0020418900 0.0182412330 0 0
0.0016343540 0.0185708560 0 0
0.0012031340 0.0188911910 0 0
0.0006700480 0.0191114890 0 0
-0.0000483666 0.0191427090 0 0
-0.0010325370 0.0189103700 0 0
-0.0023488330 0.0183655120 0 0
-0.0040374570 0.0174911720 0 0
-0.0061017080 0.0163037530 0 0
-0.0085011230 0.0148499760 0 0
-0.0111512970 0.0132005350 0 0
-0.0139314700 0.0114416420 0 0
-0.0166975980 0.0096658500 0 0
-0.0192973950 0.0079634220 0 0
-0.0215854820 0.0064146890 0 0
-0.0234385930 0.0050834920 0 0
-0.0247700600 0.0040121380 0 0
-0.0255415370 0.0032184790 0 0
-0.0257701090 0.0026951560 0 0
-0.0255277560 0.0024106160 0 0
-0.0249290910 0.0023115540 0 0
-0.0241081530 0.0023267590 0 0
-0.0231925150 0.0023727750 0 0
-0.0222843210 0.0023619180 0 0
-0.0214524620 0.0022117950 0 0
-0.0207352140 0.0018542150 0 0
-0.0201502930 0.0012423970 0 0
-0.0197067480 0.0003566680 0 0
-0.0194115940 -0.0007920360 0 0
-0.0192665290 -0.0021627900 0 0
-0.0192573540 -0.0036899720 0 0
-0.0193459350 -0.0052908390 0 0
-0.0194723750 -0.0068722140 0 0
-0.0195645830 -0.0083349700 0 0
-0.0195468680 -0.0095776020 0 0
-0.0193447170 -0.0105014880 0 0
-0.0188914610 -0.0110190140 0 0
-0.0181415740 -0.0110624920 0 0
-0.0170850320 -0.0105903370 0 0
-0.0157522120 -0.0095891530 0 0
-0.0142063620 -0.0080734530 0 0
-0.0125293650 -0.0060845930 0 0
-0.0108074790 -0.0036882350 0 0
-0.0091215150 -0.0009693350 0 0
-0.0075431590 0.0019746520 0 0
-0.0061344500 0.0050411920 0 0
-0.0049449130 0.0081304910 0 0
-0.0040047410 0.0111535320 0 0
-0.0033178880 0.0140395650 0 0
-0.0028595240 0.0167422040 0 0
-0.0025785580 0.0192428060 0 0
-0.0024032290 0.0215494200 0 0
-0.0022487230 0.0236910870 0 0
-0.0020271720 0.0257099810 0 0
-0.0016587080 0.0276546180 0 0
-0.0010804070 0.0295754820 0 0
-0.0002520390 0.0315217480 0 1
0.0008410270 0.0335364240 0 1
0.0021894440 0.0356487300 0 1
0.0037662330 0.0378658430 0 1
0.0055323530 0.0401674610 0 1
0.0074374590 0.0425048450 0 1
0.0094203170 0.0448044060 0 1
0.0114151330 0.0469760880 0 1
0.0133630640 0.0489258270 0 1
0.0152237850 0.0505692480 0 1
0.0169825230 0.0518431960 0 1
0.0186488580 0.0527130940 0 1
0.0202465080 0.0531755640 0 1
0.0217993030 0.0532568130 0 1
0.0233204950 0.0530084640 0 1
0.0248089020 0.0525027110 0 1
0.0262522480 0.0518269940 0 1
0.0276359690 0.0510768930 0 1
0.0289525940 0.0503465530 0 1
0.0302060750 0.0497178980 1 1
0.0314095310 0.0492508180 1 1
0.0325792370 0.0489760310 1 1
0.0337283300 0.0488917200 1 1
0.0348618360 0.0489645760 1 1
0.0359728530 0.0491352160 1 1
0.0370397620 0.0493270320 1 1
0.0380265600 0.0494565260 1 1
0.0388885930 0.0494431720 1 1
0.0395823290 0.0492181300 1 1
0.0400744140 0.0487316030 1 1
0.0403463510 0.0479578560 1 1
0.0403959260 0.0468970320 1 1
0.0402381320 0.0455740930 1 1
0.0399042740 0.0440355910 1 1
0.0394366530 0.0423444640 1 1
0.0388810590 0.0405732890 1 1
0.0382820570 0.0387969060 1 1
0.0376831390 0.0370848630 1 1
0.0371296930 0.0354934880 1 1
0.0366705870 0.0340584210 1 1
0.0363545020 0.0327899300 1 1
0.0362207310 0.0316730640 1 1
0.0362886730 0.0306724140 1 1
0.0365516050 0.0297388750 1 0
0.0369776110 0.0288153330 1 0
0.0375159910 0.0278402250 1 0
0.0381052720 0.0267503540 1 0
0.0386810020 0.0254849690 1 0
0.0391829130 0.0239913660 1 0
0.0395591520 0.0222303050 1 0
0.0397661140 0.0201795110 1 0
0.0397659580 0.0178355180 1 0
0.0395240430 0.0152151970 1 0
0.0390072950 0.0123563890 1 0
0.0381861240 0.0093155350 1 0
0.0370425140 0.0061618280 1 0
0.0355818580 0.0029698060 1 0
0.0338420550 -0.0001874180 1 0
0.0318955540 -0.0032427020 1 0
0.0298445190 -0.0061362480 0 0
0.0278097150 -0.0088144390 0 0
0.0259131360 -0.0112288040 0 0
0.0242579950 -0.0133373770 0 0
0.0229125180 -0.0151082340 0 0
0.0219008940 -0.0165234150 0 0
0.0212011720 -0.0175815340 0 0
0.0207496580 -0.0182981150 0 0
0.0204511680 -0.0187033620 0 0
0.0201934180 -0.0188376000 0 0
0.0198630730 -0.0187452470 0 0
0.0193604580 -0.0184687780 0 0
0.0186106420 -0.0180437700 0 0
0.0175705980 -0.0174951170 0 0
0.0162327920 -0.0168342360 0 0
0.0146245390 -0.0160582420 0 0
0.0128025930 -0.0151525970 0 0
0.0108445970 -0.0140972000 0 0
0.0088396260 -0.0128734570 0 0
0.0068782720 -0.0114693420 0 0
0.0050419750 -0.0098817570 0 0
0.0033919900 -0.0081181380 0 0
0.0019599000 -0.0061986470 0 0
0.0007437210 -0.0041575160 0 0
-0.0002883650 -0.0020413880 0 0
-0.0011900280 0.0000954866 0 0
-0.0020286040 0.0021982110 0 0
-0.0028778620 0.0042194060 0 0
-0.0038125460 0.0061266900 0 0
-0.0049040390 0.0079065650 0 0
-0.0062134400 0.0095631450 0 0
-0.0077804200 0.0111131530 0 0
-0.0096113420 0.0125804000 0 0
-0.0116717990 0.0139919820 0 0
-0.0138873510 0.0153763910 0 0
-0.0161536320 0.0167627280 0 0
-0.0183532050 0.0181801330 0 0
-0.0203741660 0.0196566620 0 0
-0.0221257080 0.0212180910 0 0
-0.0235473060 0.0228880310 0 0
-0.0246107140 0.0246888690 0 0
-0.0253166570 0.0266413310 0 0
-0.0256880540 0.0287616930 0 0
-0.0257613870 0.0310572950 0 1
-0.0255795750 0.0335211160 0 1
-0.0251887530 0.0361266540 0 1
-0.0246371370 0.0388253150 0 1
-0.0239732640 0.0415483510 0 1
-0.0232431440 0.0442134760 0 1
-0.0224868170 0.0467347500 0 1
-0.0217355900 0.0490339560 0 1
-0.0210116990 0.0510514460 0 1
-0.0203286560 0.0527542990 0 1
-0.0196891900 0.0541403280 0 1
-0.0190826760 0.0552371720 0 1
-0.0184863710 0.0560965780 0 1
-0.0178712840 0.0567855180 0 1
-0.0172106420 0.0573758390 0 1
-0.0164872710 0.0579331600 0 1
-0.0156949560 0.0585065390 0 1
-0.0148323450 0.0591220900 0 1
-0.0138944190 0.0597825050 0 1
-0.0128680700 0.0604709860 0 1
-0.0117351720 0.0611563070 0 1
-0.0104829200 0.0617969820 0 1
-0.0091163590 0.0623453330 0 1
-0.0076651380 0.0627532140 0 1
-0.0061806980 0.0629793000 0 1
-0.0047271610 0.0629963880 0 1
-0.0033712510 0.0627976100 0 1
-0.0021733130 0.0624006510 0 1
-0.0011790480 0.0618484300 0 1
-0.0004134360 0.0612051990 0 1
0.0001204140 0.0605486400 0 1
0.0004385790 0.0599596150 0 1
0.0005739200 0.0595119100 0 1
0.0005749050 0.0592641830 0 1
0.0005028830 0.0592550890 0 1
0.0004261940 0.0595012690 0 1
0.0004123330 0.0599969670 0 1
0.0005201240 0.0607141050 0 1
0.0007928990 0.0616032640 0 1
0.0012534520 0.0625977160 0 1
0.0019021280 0.0636214460 0 1
0.0027180880 0.0645992040 0 1
0.0036618200 0.0654654420 0 1
0.0046780630 0.0661705310 0 1
0.0057004960 0.0666844790 0 1
0.0066582470 0.0669981850 0 1
0.0074822560 0.0671213240 0 1
0.0081117220 0.0670769000 0 1
0.0085028310 0.0668942210 0 1
0.0086380260 0.0666028540 0 1
0.0085303630 0.0662296860 0 1
0.0082204820 0.0657994360 0 1
0.0077686780 0.0653366830 0 1
0.0072456380 0.0648676200 0 1
0.0067246330 0.0644217080 0 1
0.0062766370 0.0640337420 0 1
0.0059676220 0.0637444670 0 1
0.0058554170 0.0635965270 0 1
0.0059842190 0.0636251630 0 1
0.0063779090 0.0638473710 0 1
0.0070354110 0.0642543460 0 1
0.0079296010 0.0648095400 0 1
0.0090089290 0.0654521240 0 1
0.0102010860 0.0661048770 0 1
0.0114198330 0.0666855210 0 1
0.0125760610 0.0671193810 0 1
0.0135897770 0.0673506450 0 1
0.0143969630 0.0673503940 0 1
0.0149498810 0.0671201990 0 1
0.0152153430 0.0666903150 0 1
0.0151749930 0.0661124550 0 1
0.0148279180 0.0654489770 0 1
0.0141939620 0.0647618220 0 1
0.0133161170 0.0641041290 0 1
0.0122602370 0.0635154730 0 1
0.0111097240 0.0630205490 0 1
0.0099536840 0.0626306430 0 1
0.0088706000 0.0623461570 0 1
0.0079131530 0.0621582680 0 1
0.0071008380 0.0620493770 0 1
0.0064248520 0.0619936090 0 1
0.0058626420 0.0619588680 0 1
0.0053921860 0.0619105730 0 1
0.0049965900 0.0618152690 0 1
0.0046590860 0.0616425270 0 1
0.0043570920 0.0613659190 0 1
0.0040618970 0.0609645970 0 1
0.0037423500 0.0604253300 0 1
0.0033679640 0.0597438640 0 1
0.0029095160 0.0589252010 0 1
0.0023386710 0.0579828660 0 1
0.0016300980 0.0569372690 0 1
0.0007676270 0.0558135930 0 1
-0.0002481670 0.0546399060 0 1
-0.0013955430 0.0534463140 0 1
-0.0026335900 0.0522654160 0 1
-0.0039093420 0.0511331820 0 1
-0.0051646430 0.0500886540 0 1
-0.0063392940 0.0491713980 0 1
-0.0073718770 0.0484162260 0 1
-0.0082014590 0.0478453540 0 1
-0.0087731240 0.0474603400 0 1
-0.0090491690 0.0472381520 0 1
-0.0090241630 0.0471343500 0 1
-0.0087369320 0.0470920240 0 1
-0.0082709860 0.0470512440 0 1
-0.0077403190 0.0469541670 0 1
-0.0072664320 0.0467456190 0 1
-0.0069566600 0.0463726700 0 1
-0.0068897100 0.0457866550 0 1
-0.0071080960 0.0449491560 0 1
-0.0076158350 0.0438408650 0 1
-0.0083810440 0.0424692960 0 1
-0.0093423490 0.0408708630 0 1
-0.0104171560 0.0391066100 0 1
-0.0115113190 0.0372550590 0 1
-0.0125302950 0.0354056120 0 1
-0.0133902240 0.0336529090 0 1
-0.0140265910 0.0320901470 0 1
-0.0143988120 0.0308000240 0 1
-0.0144906140 0.0298444750 0 0
-0.0143086420 0.0292558840 0 0
-0.0138821490 0.0290316200 0 0
-0.0132639160 0.0291327110 0 0
-0.0125297710 0.0294876970 0 0
-0.0117737630 0.0300021780 0 1
-0.0110980510 0.0305724260 0 1
-0.0105992250 0.0311003650 0 1
-0.0103540480 0.0315075850 0 1
-0.0104075470 0.0317460580 0 1
-0.0107655140 0.0318029840 0 1
-0.0113928340 0.0316987210 0 1
-0.0122187460 0.0314794540 0 1
-0.0131487730 0.0312078310 0 1
-0.0140809620 0.0309540250 0 1
-0.0149226460 0.0307879780 0 1
-0.0156028050 0.0307724960 0 1
-0.0160763350 0.0309567830 0 1
-0.0163211170 0.0313704580 0 1
-0.0163323780 0.0320189190 0 1
-0.0161182930 0.0328817770 0 1
-0.0156978530 0.0339155830 0 1
-0.0151001130 0.0350599270 0 1
-0.0143641950 0.0362446430 0 1
-0.0135401630 0.0373968430 0 1
-0.0126897380 0.0384480670 0 1
-0.0118835900 0.0393413030 0 1
-0.0111912510 0.0400365220 0 1
-0.0106642550 0.0405137650 0 1
-0.0103209900 0.0407736380 0 1
-0.0101433410 0.0408353450 0 1
-0.0100867140 0.0407335390 0 1
-0.0100957370 0.0405154470 0 1
-0.0101169860 0.0402377840 0 1
-0.0101058000 0.0399619020 0 1
-0.0100288590 0.0397473410 0 1
-0.0098639270 0.0396453980 0 1
-0.0095971300 0.0396942960 0 1
-0.0092195970 0.0399169330 0 1
-0.0087262320 0.0403209720 0 1
-0.0081171770 0.0408998800 0 1
-0.0074000520 0.0416340690 0 1
-0.0065912650 0.0424925030 0 1
-0.0057167200 0.0434349530 0 1
-0.0048125850 0.0444141450 0 1
-0.0039249000 0.0453774340 0 1
-0.0031058270 0.0462689850 0 1
-0.0024059290 0.0470337480 0 1
-0.0018638150 0.0476232450 0 1
-0.0014966370 0.0480020050 0 1
-0.0012959620 0.0481533250 0 1
-0.0012307480 0.0480830570 0 1
-0.0012549130 0.0478198990 0 1
-0.0013151090 0.0474109150 0 1
-0.0013553730 0.0469134370 0 1
-0.0013185080 0.0463869650 0 1
-0.0011462260 0.0458875030 0 1
-0.0007797650 0.0454632280 0 1
-0.0001619770 0.0451494180 0 1
0.0007584930 0.0449626270 0 1
0.0020208160 0.0448963160 0 1
0.0036440110 0.0449202940 0 1
0.0056200070 0.0449849520 0 1
0.0079108110 0.0450296790 0 1
0.0104493590 0.0449930280 0 1
0.0131419110 0.0448209420 0 1
0.0158730610 0.0444705780 0 1
0.0185157860 0.0439106190 0 1
0.0209456850 0.0431215050 0 1
0.0230559650 0.0420985640 0 1
0.0247695730 0.0408580040 0 1
0.0260458770 0.0394425140 0 1
0.0268819640 0.0379225800 0 1
0.0273105420 0.0363917690 0 1
0.0273955950 0.0349569250 0 1
0.0272254650 0.0337256080 0 1
0.0269032540 0.0327932170 0 1
0.0265357210 0.0322318220 0 1
0.0262225000 0.0320823580 0 1
0.0260461790 0.0323505530 0 1
0.0260623530 0.0330060380 0 1
0.0262901380 0.0339848930 0 1
0.0267063350 0.0351966070 0 1
0.0272469850 0.0365345750 0 1
0.0278180110 0.0378871740 0 1
0.0283135100 0.0391472560 0 1
0.0286362640 0.0402201650 0 1
0.0287130240 0.0410302530 0 1
0.0285004220 0.0415248160 0 1
0.0279836990 0.0416758330 0 1
0.0271733020 0.0414812870 0 1
0.0261019250 0.0409657940 0 1
0.0248206770 0.0401788060 0 1
0.0233922780 0.0391903450 0 1
0.0218820040 0.0380851620 0 1
0.0203501580 0.0369554930 0 1
0.0188491710 0.0358926800 0 1
0.0174245980 0.0349786020 0 1
0.0161159320 0.0342785660 0 1
0.0149530940 0.0338372740 0 1
0.0139487940 0.0336778100 0 1
0.0130932100 0.0338015340 0 1
0.0123571760 0.0341872780 0 1
0.0117012940 0.0347911640 0 1
0.0110829920 0.0355498260 0 1
0.0104590870 0.0363882490 0 1
0.0097879750 0.0372306340 0 1
0.0090342140 0.0380109350 0 1
0.0081727030 0.0386800460 0 1
0.0071886760 0.0392086870 0 1
0.0060749050 0.0395873390 0 1
0.0048313360 0.0398254750 0 1
0.0034688560 0.0399505940 0 1
0.0020131740 0.0400052030 0 1
0.0005037590 0.0400404250 0 1
-0.0010132260 0.0401077390 0 1
-0.0024942400 0.0402519810 0 1
-0.0039054080 0.0405074980 0 1
-0.0052269880 0.0408960180 0 1
-0.0064569420 0.0414235160 0 1
-0.0076111850 0.0420766110 0 1
-0.0087170410 0.0428218000 0 1
-0.0098033880 0.0436086040 0 1
-0.0108941650 0.0443743520 0 1
-0.0120055600 0.0450491170 0 1
-0.0131434860 0.0455620450 0 1
-0.0143023940 0.0458495000 0 1
-0.0154678960 0.0458623710 0 1
-0.0166212060 0.0455701280 0 1
-0.0177414850 0.0449623770 0 1
-0.0188053050 0.0440500950 0 1
-0.0197851470 0.0428669410 0 1
-0.0206482590 0.0414686640 0 1
-0.0213564420 0.0399290370 0 1
-0.0218688960 0.0383333540 0 1
-0.0221489330 0.0367712970 0 1
-0.0221710450 0.0353296510 0 1
-0.0219248790 0.0340845680 0 1
-0.0214164350 0.0330939240 0 1
-0.0206676030 0.0323915570 0 1
-0.0197139100 0.0319853010 0 1
-0.0186005950 0.0318588870 0 1
-0.0173782190 0.0319759770 0 1
-0.0160995580 0.0322847240 0 1
-0.0148179570 0.0327226630 0 1
-0.0135844730 0.0332225830 0 1
-0.0124423340 0.0337189130 0 1
-0.0114212650 0.0341534760 0 1
-0.0105354130 0.0344804880 0 1
-0.0097854130 0.0346711660 0 1
-0.0091615450 0.0347171690 0 1
-0.0086454960 0.0346318220 0 1
-0.0082127020 0.0344487800 0 1
-0.0078384970 0.0342177310 0 1
-0.0075054490 0.0339969050 0 1
-0.0072046170 0.0338437500 0 1
-0.0069290600 0.0338062530 0 1
-0.0066660300 0.0339164820 0 1
-0.0063932060 0.0341864720 0 1
-0.0060783430 0.0346058000 0 1
-0.0056809360 0.0351410110 0 1
-0.0051568830 0.0357384350 0 1
-0.0044663600 0.0363313980 0 1
-0.0035834370 0.0368497300 0 1
-0.0025058100 0.0372277100 0 1
-0.0012622600 0.0374085850 0 1
0.0000856996 0.0373472280 0 1
0.0014493610 0.0370133490 0 1
0.0027235080 0.0363959100 0 1
0.0037994860 0.0355072320 0 1
0.0045801000 0.0343843620 0 1
0.0049968360 0.0330863020 0 1
0.0050260510 0.0316883130 0 1
0.0046955850 0.0302758910 0 1
0.0040763920 0.0289395640 0 0
0.0032649940 0.0277689930 0 0
0.0023672100 0.0268443900 0 0
0.0014864080 0.0262256830 0 0
0.0007134560 0.0259429940 0 0
0.0001176590 0.0259926030 0 0
-0.0002592630 0.0263396100 0 0
-0.0004048810 0.0269250160 0 0
-0.0003337760 0.0276742560 0 0
-0.0000822142 0.0285054970 0 0
0.0002995720 0.0293367180 0 0
0.0007559100 0.0300909840 0 1
0.0012310290 0.0307005410 0 1
0.0016685570 0.0311112220 0 1
0.0020093450 0.0312870630 0 1
0.0021949350 0.0312130910 0 1
0.0021779110 0.0308952920 0 1
0.0019339290 0.0303594570 0 1
0.0014704320 0.0296505740 0 0
0.0008290050 0.0288315040 0 0
0.0000794498 0.0279783950 0 0
-0.0006929790 0.0271727590 0 0
-0.0014018010 0.0264928330 0 0
-0.0019701030 0.0260063130 0 0
-0.0023375730 0.0257644760 0 0
-0.0024658360 0.0257970420 0 0
-0.0023428960 0.0261081000 0 0
-0.0019863020 0.0266739260 0 0
-0.0014438100 0.0274432560 0 0
-0.0007891510 0.0283405740 0 0
-0.0001119550 0.0292736380 0 0
0.0004962530 0.0301459390 0 1
0.0009566900 0.0308717810 0 1
0.0012147680 0.0313890570 0 1
0.0012454910 0.0316660500 0 1
0.0010531120 0.0317023990 0 1
0.0006670840 0.0315264470 0 1
0.0001357140 0.0311906360 0 1
-0.0004808540 0.0307650200 0 1
-0.0011165110 0.0303285060 0 1
-0.0017044050 0.0299588390 0 0
-0.0021834710 0.0297235990 0 0
-0.0025056080 0.0296734040 0 0
-0.0026401470 0.0298370350 0 0
-0.0025730720 0.0302188390 0 1
-0.0023009990 0.0307997600 0 1
-0.0018238900 0.0315423390 0 1
-0.0011443420 0.0323979390 0 1
-0.0002773500 0.0333134050 0 1
0.0007363770 0.0342348820 0 1
0.0018256070 0.0351085410 0 1
0.0028983570 0.0358804370 0 1
0.0038614530 0.0364985350 0 1
0.0046388320 0.0369183700 0 1
0.0051814000 0.0371109330 0 1
0.0054690790 0.0370697270 0 1
0.0055092760 0.0368144420 0 1
0.0053346080 0.0363896740 0 1
0.0049999840 0.0358581260 0 1
0.0045785950 0.0352901260 0 1
0.0041568360 0.0347533420 0 1
0.0038263420 0.0343054480 0 1
0.0036713440 0.0339897340 0 1
0.0037551250 0.0338324520 0 1
0.0041120840 0.0338415610 0 1
0.0047464970 0.0340072340 0 1
0.0056345210 0.0343040430 0 1
0.0067271950 0.0346939800 0 1
0.0079542000 0.0351296160 0 1
0.0092294460 0.0355577190 0 1
0.0104597110 0.0359240660 0 1
0.0115549640 0.0361789700 0 1
0.0124367720 0.0362822680 0 1
0.0130427160 0.0362069950 0 1
0.0133282870 0.0359410710 0 1
0.0132697010 0.0354866870 0 1
0.0128685410 0.0348591560 0 1
0.0121542340 0.0340879300 0 1
0.0111809530 0.0332192390 0 1
0.0100208960 0.0323159350 0 1
0.0087569730 0.0314515280 0 1
0.0074753790 0.0307006240 0 1
0.0062581450 0.0301303610 0 1
0.0051771510 0.0297951410 0 0
0.0042910010 0.0297336170 0 0
0.0036441560 0.0299661280 0 0
0.0032656860 0.0304922970 0 1
0.0031655970 0.0312896620 0 1
0.0033300280 0.0323140740 0 1
0.0037192710 0.0335021640 0 1
0.0042711830 0.0347759660 0 1
0.0049090240 0.0360498020 0 1
0.0055514050 0.0372391660 0 1
0.0061225470 0.0382703730 0 1
0.0065609880 0.0390889110 0 1
0.0068253340 0.0396642070 0 1
0.0068971270 0.0399897940 0 1
0.0067808430 0.0400799740 0 1
0.0065003040 0.0399645750 0 1
0.0060920850 0.0396830240 0 1
0.0055993040 0.0392790670 0 1
0.0050690880 0.0387973060 0 1
0.0045526360 0.0382812500 0 1
0.0041039580 0.0377714440 0 1
0.0037757000 0.0373024470 0 1
0.0036143280 0.0368994010 0 1
0.0036561070 0.0365759420 0 1
0.0039219870 0.0363336660 0 1
0.0044109520 0.0361617200 0 1
0.0050951940 0.0360363310 0 1
0.0059191330 0.0359220330 0 1
0.0068018960 0.0357755720 0 1
0.0076444420 0.0355509990 0 1
0.0083422270 0.0352045310 0 1
0.0088005160 0.0346998170 0 1
0.0089484570 0.0340141760 0 1
0.0087497970 0.0331445350 0 1
0.0082089860 0.0321114800 0 1
0.0073717720 0.0309607760 0 1
0.0063199960 0.0297617040 0 0
0.0051602320 0.0286010950 0 0
0.0040069620 0.0275726900 0 0
0.0029646570 0.0267638620 0 0
0.0021152230 0.0262432900 0 0
0.0015134360 0.0260524280 0 0
0.0011873180 0.0262016780 0 0
0.0011395630 0.0266706880 0 0
0.0013487490 0.0274115240 0 0
0.0017718920 0.0283537040 0 0
0.0023508180 0.0294111370 0 0
0.0030215540 0.0304910210 0 1
0.0037217570 0.0315035680 0 1
0.0043933510 0.0323708290 0 1
0.0049831180 0.0330338870 0 1
0.0054447230 0.0334579300 0 1
0.0057425130 0.0336344280 0 1
0.0058565970 0.0335804130 0 1
0.0057888120 0.0333356490 0 1
0.0055665370 0.0329576380 0 1
0.0052401830 0.0325144120 0 1
0.0048748010 0.0320767430 0 1
0.0045408730 0.0317121360 0 1
0.0043073140 0.0314813140 0 1
0.0042351890 0.0314360160 0 1
0.0043705660 0.0316168180 0 1
0.0047380830 0.0320502780 0 1
0.0053371910 0.0327458840 0 1
0.0061408700 0.0336943470 0 1
0.0070967030 0.0348678170 0 1
0.0081316960 0.0362209980 0 1
0.0091611890 0.0376925670 0 1
0.0100987440 0.0392077070 0 1
0.0108629670 0.0406827100 0 1
0.0113817820 0.0420312110 0 1
0.0115979490 0.0431709120 0 1
0.0114761730 0.0440304410 0 1
0.0110093060 0.0445566920 0 1
0.0102224630 0.0447222620 0 1
0.0091734940 0.0445309730 0 1
0.0079467680 0.0440188230 0 1
0.0066399510 0.0432496040 0 1
0.0053485940 0.0423071310 0 1
0.0041545620 0.0412865600 0 1
0.0031207320 0.0402857460 0 1
0.0022906180 0.0393970820 0 1
0.0016912430 0.0387005770 0 1
0.0013378060 0.0382580390 0 1
0.0012367280 0.0381072360 0 1
0.0013833390 0.0382560740 0 1
0.0017547380 0.0386788980 0 1
0.0023031000 0.0393174320 0 1
0.0029550960 0.0400873620 0 1
0.0036201780 0.0408898310 0 1
0.0042063790 0.0416254990 0 1
0.0046379590 0.0422079220 0 1
0.0048677950 0.0425739760 0 1
0.0048805850 0.0426906360 0 1
0.0046883420 0.0425581620 0 1
0.0043231350 0.0422100090 0 1
0.0038315000 0.0417093080 0 1
0.0032711490 0.0411412900 0 1
0.0027074000 0.0406020160 0 1
0.0022075000 0.0401851960 0 1
0.0018338680 0.0399693590 0 1
0.0016383110 0.0400072250 0 1
0.0016582890 0.0403185700 0 1
0.0019147380 0.0408875790 0 1
0.0024097610 0.0416651590 0 1
0.0031230010 0.0425755740 0 1
0.0040087160 0.0435259200 0 1
0.0049974420 0.0444169950 0 1
0.0060031950 0.0451543780 0 1
0.0069338680 0.0456585130 0 1
0.0077036480 0.0458729670 0 1
0.0082466070 0.0457706360 0 1
0.0085269360 0.0453570010 0 1
0.0085408200 0.0446686940 0 1
0.0083107850 0.0437670230 0 1
0.0078773870 0.0427287160 0 1
0.0072915090 0.0416368400 0 1
0.0066083770 0.0405733960 0 1
0.0058846580 0.0396137310 0 1
0.0051788400 0.0388221070 0 1
0.0045512220 0.0382469960 0 1
0.0040592370 0.0379153280 0 1
0.0037489370 0.0378276860 0 1
0.0036473070 0.0379579190 0 1
0.0037581440 0.0382583330 0 1
0.0040619060 0.0386683500 0 1
0.0045197490 0.0391237870 0 1
0.0050806490 0.0395645790 0 1
0.0056885040 0.0399397450 0 1
0.0062876830 0.0402098700 0 1
0.0068280150 0.0403479040 0 1
0.0072690690 0.0403388580 0 1
0.0075818880 0.0401790950 0 1
0.0077486580 0.0398754460 0 1
0.0077640680 0.0394436020 0 1
0.0076408070 0.0389060310 0 1
0.0074163650 0.0382909360 0 1
0.0071537060 0.0376329130 0 1
0.0069309610 0.0369736780 0 1
0.0068250680 0.0363603630 0 1
0.0068988190 0.0358408550 0 1
0.0071947620 0.0354576110 0 1
0.0077330950 0.0352414350 0 1
0.0085110340 0.0352059010 0 1
0.0095029570 0.0353429420 0 1
0.0106616570 0.0356207540 0 1
0.0119223300 0.0359861050 0 1
0.0132100280 0.0363720740 0 1
0.0144484630 0.0367092240 0 1
0.0155679020 0.0369363410 0 1
0.0165106690 0.0370078230 0 1
0.0172330980 0.0368972130 0 1
0.0177050840 0.0365978380 0 1
0.0179099420 0.0361214700 0 1
0.0178458460 0.0354958340 0 1
0.0175292000 0.0347621800 0 1
0.0169988350 0.0339731740 0 1
0.0163170800 0.0331901070 0 1
0.0155652350 0.0324783800 0 1
0.0148358520 0.0319006670 0 1
0.0142239000 0.0315087540 0 1
0.0138156140 0.0313371200 0 1
0.0136765460 0.0314005070 0 1
0.0138446090 0.0316943410 0 1
0.0143297350 0.0321954880 0 1
0.0151149150 0.0328626250 0 1
0.0161557020 0.0336375780 0 1
0.0173816830 0.0344491440 0 1
0.0187025110 0.0352194310 0 1
0.0200159600 0.0358715460 0 1
0.0212162270 0.0363375600 0 1
0.0222047750 0.0365663490 0 1
0.0229045090 0.0365304870 0 1
0.0232723020 0.0362300610 0 1
0.0233036530 0.0356908930 0 1
0.0230292350 0.0349570990 0 1
0.0225082110 0.0340818150 0 1
0.0218215650 0.0331208940 0 1
0.0210651280 0.0321313060 0 1
0.0203411480 0.0311719640 0 1
0.0197481590 0.0303032280 0 1
0.0193687580 0.0295825760 0 0
0.0192558580 0.0290567000 0 0
0.0194229090 0.0287526650 0 0
0.0198455890 0.0286715120 0 0
0.0204743090 0.0287872220 0 0
0.0212474430 0.0290517030 0 0
0.0220968380 0.0294033330 0 0
0.0229463360 0.0297758320 0 0
0.0237101930 0.0301057220 0 1
0.0242970150 0.0303375940 0 1
0.0246191070 0.0304273860 0 1
0.0246039350 0.0303449470 0 1
0.0242057660 0.0300768480 0 1
0.0234164110 0.0296292130 0 0
0.0222723620 0.0290292700 0 0
0.0208548990 0.0283235190 0 0
0.0192809990 0.0275713760 0 0
0.0176854460 0.0268359590 0 0
0.0161989630 0.0261755260 0 0
0.0149298700 0.0256374520 0 0
0.0139533670 0.0252539540 0 0
0.0133070800 0.0250385210 0 0
0.0129903890 0.0249841180 0 0
0.0129673290 0.0250646780 0 0
0.0131735290 0.0252393440 0 0
0.0135258730 0.0254575260 0 0
0.0139323800 0.0256636650 0 0
0.0143010840 0.0258018060 0 0
0.0145491840 0.0258203090 0 0
0.0146143390 0.0256765780 0 0
0.0144663190 0.0253414010 0 0
0.0141125510 0.0248026430 0 0
0.0135930060 0.0240679740 0 0
0.0129672160 0.0231655080 0 0
0.0123001640 0.0221410650 0 0
0.0116518290 0.0210519860 0 0
0.0110716560 0.0199593520 0 0
0.0105979080 0.0189214770 0 0
0.0102615560 0.0179904070 0 0
0.0100912590 0.0172108800 0 0
0.0101137030 0.0166201740 0 0
0.0103487500 0.0162479600 0 0
0.0108037030 0.0161151260 0 0
0.0114683760 0.0162303730 0 0
0.0123102980 0.0165852350 0 0
0.0132713690 0.0171506720 0 0
0.0142687690 0.0178776520 0 0
0.0152020630 0.0187010500 0 0
0.0159659290 0.0195453440 0 0
0.0164650530 0.0203326490 0 0
0.0166272460 0.0209940530 0 0
0.0164131580 0.0214820840 0 0
0.0158217710 0.0217796850 0 0
0.0148900800 0.0219026020 0 0
0.0136873500 0.0218951760 0 0
0.0123069880 0.0218212610 0 0
0.0108583700 0.0217528320 0 0
0.0094587440 0.0217590340 0 0
0.0082241130 0.0218978070 0 0
0.0072585780 0.0222110650 0 0
0.0066428450 0.0227232230 0 0
0.0064239420 0.0234420630 0 0
0.0066099300 0.0243602950 0 0
0.0071714770 0.0254559080 0 0
0.0080470130 0.0266907290 0 0
0.0091487950 0.0280092290 0 0
0.0103717490 0.0293401090 0 0
0.0116054640 0.0306014550 0 1
0.0127454710 0.0317091470 0 1
0.0137019370 0.0325877300 0 1
0.0144074270 0.0331815360 0 1
0.0148227750 0.0334632260 0 1
0.0149378080 0.0334380940 0 1
0.0147675090 0.0331437670 0 1
0.0143465610 0.0326454600 0 1
0.0137222950 0.0320276400 0 1
0.0129471950 0.0313836750 0 1
0.0120765850 0.0308047740 0 1
0.0111730160 0.0303694460 0 1
0.0103094640 0.0301356750 0 1
0.0095632050 0.0301381000 0 1
0.0090009340 0.0303898960 0 1
0.0086628070 0.0308862190 0 1
0.0085534130 0.0316062660 0 1
0.0086428910 0.0325137630 0 1
0.0088759320 0.0335575510 0 1
0.0091832690 0.0346736170 0 1
0.0094914530 0.0357886130 0 1
0.0097311100 0.0368239460 0 1
0.0098456520 0.0377002550 0 1
0.0097984020 0.0383436510 0 1
0.0095740810 0.0386951160 0 1
0.0091747800 0.0387214080 0 1
0.0086139080 0.0384226880 0 1
0.0079117990 0.0378331090 0 1
0.0070959220 0.0370150400 0 1
0.0062049870 0.0360503190 0 1
0.0052915410 0.0350314410 0 1
0.0044184470 0.0340539110 0 1
0.0036497110 0.0332093760 0 1
0.0030394300 0.0325786960 0 1
0.0026226080 0.0322253860 0 1
0.0024101630 0.0321904730 0 1
0.0023894890 0.0324886350 0 1
0.0025301250 0.0331055720 0 1
0.0027910420 0.0339979510 0 1
0.0031258410 0.0350967350 0 1
0.0034848260 0.0363130100 0 1
0.0038153430 0.0375457290 0 1
0.0040630720 0.0386916430 0 1
0.0041766590 0.0396567980 0 1
0.0041156520 0.0403675780 0 1
0.0038590740 0.0407790590 0 1
0.0034117190 0.0408794080 0 1
0.0028062130 0.0406903100 0 1
0.0020991910 0.0402639600 0 1
0.0013614280 0.0396766830 0 1
0.0006649980 0.0390196590 0 1
0.0000718177 0.0383882210 0 1
-0.0003737410 0.0378711560 0 1
-0.0006474810 0.0375408980 0 1
-0.0007437460 0.0374450190 0 1
-0.0006711240 0.0375991160 0 1
-0.0004483630 0.0379826960 0 1
-0.0001023270 0.0385412230 0 1
0.0003328080 0.0391957390 0 1
0.0008165060 0.0398575100 0 1
0.0013027350 0.0404424930 0 1
0.0017400530 0.0408807980 0 1
0.0020722300 0.0411204180 0 1
0.0022425140 0.0411283270 0 1
0.0022029730 0.0408918380 0 1
0.0019259650 0.0404204500 0 1
0.0014120850 0.0397462830 0 1
0.0006907880 0.0389208840 0 1
-0.0001861520 0.0380086650 0 1
-0.0011544270 0.0370800660 0 1
-0.0021445960 0.0362066930 0 1
-0.0030851710 0.0354570740 0 1
-0.0039053550 0.0348904600 0 1
-0.0045416510 0.0345491450 0 1
-0.0049478690 0.0344528530 0 1
-0.0051048140 0.0345979880 0 1
-0.0050253970 0.0349613980 0 1
-0.0047529010 0.0355062070 0 1
-0.0043536530 0.0361873230 0 1
-0.0039060270 0.0369560130 0 1
-0.0034869690 0.0377635420 0 1
-0.0031606540 0.0385630540 0 1
-0.0029754790 0.0393093790 0 1
-0.0029673480 0.0399584580 0 1
-0.0031599020 0.0404690470 0 1
-0.0035591050 0.0408081270 0 1
-0.0041490550 0.0409587950 0 1
-0.0048938750 0.0409273040 0 1
-0.0057434020 0.0407461710 0 1
-0.0066389780 0.0404723590 0 1
-0.0075189210 0.0401812310 0 1
-0.0083243160 0.0399572220 0 1
-0.0090038380 0.0398823010 0 1
-0.0095165870 0.0400236200 0 1
-0.0098350800 0.0404222390 0 1
-0.0099500810 0.0410855710 0 1
-0.0098735960 0.0419857680 0 1
-0.0096354860 0.0430639440 0 1
-0.0092751730 0.0442379410 0 1
-0.0088333130 0.0454116730 0 1
-0.0083459890 0.0464856990 0 1
-0.0078419870 0.0473688710 0 1
-0.0073436110 0.0479896950 0 1
-0.0068698610 0.0483046780 0 1
-0.0064392510 0.0483016740 0 1
-0.0060705030 0.0479988340 0 1
-0.0057810900 0.0474407300 0 1
-0.0055844230 0.0466922260 0 1
-0.0054865520 0.0458300520 0 1
-0.0054828790 0.0449334450 0 1
-0.0055553980 0.0440766360 0 1
-0.0056720290 0.0433245860 0 1
-0.0057898140 0.0427308240 0 1
-0.0058620060 0.0423360130 0 1
-0.0058476330 0.0421666590 0 1
-0.0057213550 0.0422333550 0 1
-0.0054802740 0.0425283330 0 1
-0.0051443120 0.0430231680 0 1
-0.0047503370 0.0436682220 0 1
-0.0043437470 0.0443952820 0 1
-0.0039706950 0.0451236020 0 1
-0.0036718220 0.0457677080 0 1
-0.0034773230 0.0462454600 0 1
-0.0034031950 0.0464869110 0 1
-0.0034501370 0.0464442260 0 1
-0.0036077640 0.0461001310 0 1
-0.0038631930 0.0454715680 0 1
-0.0042078020 0.0446074430 0 1
-0.0046368100 0.0435816120 0 1
-0.0051422970 0.0424834660 0 1
-0.0057045440 0.0414088350 0 1
-0.0062863470 0.0404524100 0 1
-0.0068326810 0.0397009650 0 1
-0.0072764650 0.0392264700 0 1
-0.0075499100 0.0390790020 0 1
-0.0075986870 0.0392798910 0 1
-0.0073940790 0.0398167420 0 1
-0.0069390680 0.0406425530 0 1
-0.0062679300 0.0416794220 0 1
-0.0054415110 0.0428262240 0 1
-0.0045399690 0.0439708210 0 1
-0.0036535240 0.0450070160 0 1
-0.0028724370 0.0458525020 0 1
-0.0022785730 0.0464606800 0 1
-0.0019389700 0.0468216210 0 1
-0.0018989190 0.0469542730 0 1
-0.0021731840 0.0468961270 0 1
-0.0027390590 0.0466943050 0 1
-0.0035372130 0.0463983200 0 1
-0.0044812120 0.0460548690 0 1
-0.0054711510 0.0457060300 0 1
-0.0064077260 0.0453903600 0 1
-0.0072054390 0.0451442100 0 1
-0.0078024690 0.0450006510 0 1
-0.0081648430 0.0449853080 0 1
-0.0082857800 0.0451105150 0 1
-0.0081828110 0.0453700960 0 1
-0.0078941930 0.0457364750 0 1
-0.0074745390 0.0461609260 0 1
-0.0069888160 0.0465774490 0 1
-0.0065044380 0.0469100450 0 1
-0.0060826690 0.0470825270 0 1
-0.0057710830 0.0470293040 0 1
-0.0055979820 0.0467050170 0 1
-0.0055696650 0.0460912640 0 1
-0.0056724530 0.0451999190 0 1
-0.0058803930 0.0440732370 0 1
-0.0061660910 0.0427804740 0 1
-0.0065091920 0.0414104030 0 1
-0.0068977030 0.0400602710 0 1
-0.0073221210 0.0388240010 0 1
-0.0077674000 0.0377831150 0 1
-0.0082077160 0.0370015750 0 1
-0.0086053690 0.0365231110 0 1
-0.0089140720 0.0363688970 0 1
-0.0090868520 0.0365347050 0 1
-0.0090865750 0.0369890630 0 1
-0.0088950420 0.0376751510 0 1
-0.0085173280 0.0385178190 0 1
-0.0079810970 0.0394341260 0 1
-0.0073329060 0.0403438260 0 1
-0.0066326430 0.0411771290 0 1
-0.0059460420 0.0418793710 0 1
-0.0053366940 0.0424131240 0 1
-0.0048604620 0.0427579940 0 1
-0.0045626080 0.0429086090 0 1
-0.0044739740 0.0428717550 0 1
-0.0046038860 0.0426639060 0 1
-0.0049327600 0.0423101400 0 1
-0.0054093840 0.0418440940 0 1
-0.0059555780 0.0413074160 0 1
-0.0064780330 0.0407476450 0 1
-0.0068845020 0.0402144660 0 1
-0.0070996810 0.0397548390 0 1
-0.0070763950 0.0394080360 0 1
-0.0068008210 0.0392014130 0 1
-0.0062933670 0.0391469820 0 1
-0.0056063600 0.0392391770 0 1
-0.0048184410 0.0394553010 0 1
-0.0040264610 0.0397590060 0 1
-0.0033352330 0.0401050390 0 1
-0.0028433080 0.0404440470 0 1
-0.0026250330 0.0407284720 0 1
-0.0027152940 0.0409196380 0 1
-0.0031053710 0.0409936250 0 1
-0.0037511980 0.0409436220 0 1
-0.0045861370 0.0407785830 0 1
-0.0055308540 0.0405196780 0 1
-0.0065004390 0.0401964100 0 1
-0.0074114200 0.0398435320 0 1
-0.0081883360 0.0394989960 0 1
-0.0087681300 0.0392026650 0 1
-0.0091021640 0.0389944800 0 1
-0.0091574960 0.0389103140 0 1
-0.0089183840 0.0389757250 0 1
-0.0083877580 0.0392004870 0 1
-0.0075885790 0.0395764760 0 1
-0.0065639890 0.0400785570 0 1
-0.0053743170 0.0406669760 0 1
-0.0040917830 0.0412909890 0 1
-0.0027960220 0.0418941810 0 1
-0.0015705380 0.0424210870 0 1
-0.0004964800 0.0428239530 0 1
0.0003573280 0.0430683180 0 1
0.0009428390 0.0431360600 0 1
0.0012342390 0.0430245040 0 1
0.0012249670 0.0427421310 0 1
0.0009277090 0.0423045490 0 1
0.0003778200 0.0417339320 0 1
-0.0003666600 0.0410607940 0 1
-0.0012307180 0.0403247040 0 1
-0.0021296070 0.0395725350 0 1
-0.0029753750 0.0388549420 0 1
-0.0036835640 0.0382218740 0 1
-0.0041802200 0.0377172300 0 1
-0.0044089610 0.0373726850 0 1
-0.0043380660 0.0372018940 0 1
-0.0039665880 0.0371972240 0 1
-0.0033276200 0.0373299560 0 1
-0.0024859890 0.0375535200 0 1
-0.0015281110 0.0378092970 0 1
-0.0005459040 0.0380342360 0 1
0.0003776780 0.0381689210 0 1
0.0011736540 0.0381647510 0 1
0.0017833210 0.0379896920 0 1
0.0021563630 0.0376324770 0 1
0.0022587410 0.0371047420 0 1
0.0020855270 0.0364401490 0 1
0.0016676450 0.0356906630 0 1
0.0010677370 0.0349210660 0 1
0.0003685980 0.0342017890 0 1
-0.0003398960 0.0336000130 0 1
-0.0009722200 0.0331708460 0 1
-0.0014577510 0.0329513780 0 1
-0.0017513000 0.0329588380 0 1
-0.0018409530 0.0331913000 0 1
-0.0017490980 0.0336286350 0 1
-0.0015252780 0.0342335430 0 1
-0.0012333640 0.0349535140 0 1
-0.0009377290 0.0357234470 0 1
-0.0006928990 0.0364688390 0 1
-0.0005389770 0.0371105590 0 1
-0.0005017900 0.0375716160 0 1
-0.0005944500 0.0377855910 0 1
-0.0008175400 0.0377063710 0 1
-0.0011573500 0.0373172840 0 1
-0.0015830400 0.0366364120 0 1
-0.0020448340 0.0357166640 0 1
-0.0024770710 0.0346410310 0 1
-0.0028092260 0.0335132500 0 1
-0.0029835020 0.0324444000 0 1
-0.0029726480 0.0315368870 0 1
-0.0027900120 0.0308681510 0 1
-0.0024872670 0.0304779700 0 1
-0.0021419630 0.0303632070 0 1
-0.0018419280 0.0304805650 0 1
-0.0016728100 0.0307539950 0 1
-0.0017108790 0.0310829380 0 1
-0.0020197210 0.0313507790 0 1
-0.0026485770 0.0314353010 0 1
-0.0036310720 0.0312213970 0 1
-0.0049844390 0.0306133810 0 1
-0.0067109350 0.0295436160 0 0
-0.0088016750 0.0279765210 0 0
-0.0112390680 0.0259098220 0 0
-0.0139954950 0.0233745490 0 0
-0.0170317900 0.0204329440 0 0
-0.0202989110 0.0171727660 0 0
-0.0237411410 0.0136983210 0 0
-0.0272985240 0.0101205050 0 0
-0.0309090570 0.0065479020 -1 0
-0.0345113670 0.0030793270 -1 0
-0.0380473180 -0.0002027000 -1 0
-0.0414653910 -0.0032375610 -1 0
-0.0447259750 -0.0059904570 -1 0
-0.0478062960 -0.0084539550 -1 0
-0.0507021140 -0.0106470060 -1 0
-0.0534265810 -0.0126114820 -1 0
-0.0560072770 -0.0144065030 -1 0
-0.0584814810 -0.0161012390 -1 0
-0.0608917040 -0.0177672280 -1 0
-0.0632838640 -0.0194711950 -1 0
-0.0657065350 -0.0212687940 -1 0
-0.0682075470 -0.0231994560 -1 0
-0.0708275880 -0.0252827190 -1 0
-0.0735943020 -0.0275161840 -1 0
-0.0765188640 -0.0298750350 -1 0
-0.0795936060 -0.0323135370 -1 -1
-0.0827896070 -0.0347690030 -1 -1
-0.0860546180 -0.0371682540 -1 -1
-0.0893118450 -0.0394358940 -1 -1
-0.0924619300 -0.0415025560 -1 -1
-0.0953919330 -0.0433107120 -1 -1
-0.0979914050 -0.0448168900 -1 -1
-0.1001708310 -0.0459911380 -1 -1
-0.1018771080 -0.0468162360 -1 -1
-0.1031025360 -0.0472891840 -1 -1
-0.1038859900 -0.0474250500 -1 -1
-0.1043070240 -0.0472605280 -1 -1
-0.1044742720 -0.0468545680 -1 -1
-0.1045094600 -0.0462856440 -1 -1
-0.1045297920 -0.0456462440 -1 -1
-0.1046331360 -0.0450347220 -1 -1
-0.1048894940 -0.0445446080 -1 -1
-0.1053390110 -0.0442526680 -1 -1
-0.1059940690 -0.0442087610 -1 -1
-0.1068420870 -0.0444305780 -1 -1
-0.1078464760 -0.0449037430 -1 -1
-0.1089459790 -0.0455858660 -1 -1
-0.1100559310 -0.0464135770 -1 -1
-0.1110754780 -0.0473119000 -1 -1
-0.1119011340 -0.0482041340 -1 -1
-0.1124430720 -0.0490204760 -1 -1
-0.1126406250 -0.0497055930 -1 -1
-0.1124740250 -0.0502254090 -1 -1
-0.1119682360 -0.0505711180 -1 -1
-0.1111874910 -0.0507581660 -1 -1
-0.1102246570 -0.0508210050 -1 -1
-0.1091892410 -0.0508064330 -1 -1
-0.1081942870 -0.0507669910 -1 -1
-0.1073432960 -0.0507545650 -1 -1
-0.1067198460 -0.0508150160 -1 -1
-0.1063803610 -0.0509849640 -1 -1
-0.1063488620 -0.0512904010 -1 -1
-0.1066145460 -0.0517456560 -1 -1
-0.1071345170 -0.0523517140 -1 -1
-0.1078420440 -0.0530942200 -1 -1
-0.1086578120 -0.0539420100 -1 -1
-0.1095003330 -0.0548470250 -1 -1
-0.1102926080 -0.0557468480 -1 -1
-0.1109645540 -0.0565705740 -1 -1
-0.1114529600 -0.0572468980 -1 -1
-0.1117019550 -0.0577124280 -1 -1
-0.1116663030 -0.0579193260 -1 -1
-0.1113167140 -0.0578424310 -1 -1
-0.1106441570 -0.0574849150 -1 -1
-0.1096618450 -0.0568801830 -1 -1
-0.1084063500 -0.0560886060 -1 -1
-0.1069384210 -0.0551896980 -1 -1
-0.1053414170 -0.0542719910 -1 -1
-0.1037157440 -0.0534234450 -1 -1
-0.1021699240 -0.0527245730 -1 -1
-0.1008088260 -0.0522441430 -1 -1
-0.0997195730 -0.0520348310 -1 -1
-0.0989587760 -0.0521270720 -1 -1
-0.0985464500 -0.0525235570 -1 -1
-0.0984682480 -0.0531982380 -1 -1
-0.0986826080 -0.0541001630 -1 -1
-0.0991281450 -0.0551594940 -1 -1
-0.0997286060 -0.0562941980 -1 -1
-0.1003959140 -0.0574175000 -1 -1
-0.1010343520 -0.0584457850 -1 -1
-0.1015481050 -0.0593058520 -1 -1
-0.1018516630 -0.0599409250 -1 -1
-0.1018816870 -0.0603153580 -1 -1
-0.1016082520 -0.0604175910 -1 -1
-0.1010413040 -0.0602607990 -1 -1
-0.1002285090 -0.0598808780 -1 -1
-0.0992443510 -0.0593317540 -1 -1
-0.0981741430 -0.0586782150 -1 -1
-0.0970983000 -0.0579877290 -1 -1
-0.0960816050 -0.0573240820 -1 -1
-0.0951702390 -0.0567442640 -1 -1
-0.0943964610 -0.0562970800 -1 -1
-0.0937863120 -0.0560212620 -1 -1
-0.0933632530 -0.0559419850 -1 -1
-0.0931450630 -0.0560658460 -1 -1
-0.0931375950 -0.0563758890 -1 -1
-0.0933294900 -0.0568297040 -1 -1
-0.0936894670 -0.0573628290 -1 -1
-0.0941669050 -0.0578968240 -1 -1
-0.0946956560 -0.0583492790 -1 -1
-0.0952003580 -0.0586435270 -1 -1
-0.0956057510 -0.0587173630 -1 -1
-0.0958490230 -0.0585306480 -1 -1
-0.0958916920 -0.0580714220 -1 -1
-0.0957258690 -0.0573596970 -1 -1
-0.0953723980 -0.0564471560 -1 -1
-0.0948727470 -0.0554114090 -1 -1
-0.0942792320 -0.0543455150 -1 -1
-0.0936475360 -0.0533451160 -1 -1
-0.0930325900 -0.0524959930 -1 -1
-0.0924861240 -0.0518651280 -1 -1
-0.0920541460 -0.0514969680 -1 -1
-0.0917742670 -0.0514134980 -1 -1
-0.0916731420 -0.0516151430 -1 -1
-0.0917634220 -0.0520807670 -1 -1
-0.0920401550 -0.0527674390 -1 -1
-0.0924780320 -0.0536120540 -1 -1
-0.0930313080 -0.0545359780 -1 -1
-0.0936373770 -0.0554522230 -1 -1
-0.0942234470 -0.0562740500 -1 -1
-0.0947147860 -0.0569242370 -1 -1
-0.0950435730 -0.0573437710 -1 -1
-0.0951578950 -0.0574980770 -1 -1
-0.0950294890 -0.0573797610 -1 -1
-0.0946577640 -0.0570084640 -1 -1
-0.0940683280 -0.0564289110 -1 -1
-0.0933067860 -0.0557074210 -1 -1
-0.0924313280 -0.0549265600 -1 -1
-0.0915074140 -0.0541778340 -1 -1
-0.0906047550 -0.0535530230 -1 -1
-0.0897944820 -0.0531349200 -1 -1
-0.0891444770 -0.0529876540 -1 -1
-0.0887122930 -0.0531475600 -1 -1
-0.0885370830 -0.0536172170 -1 -1
-0.0886329120 -0.0543647920 -1 -1
-0.0889857350 -0.0553287550 -1 -1
-0.0895550940 -0.0564266440 -1 -1
-0.0902792990 -0.0575654250 -1 -1
-0.0910820200 -0.0586508900 -1 -1
-0.0918798940 -0.0595953140 -1 -1
-0.0925918190 -0.0603239980 -1 -1
-0.0931495620 -0.0607807080 -1 -1
-0.0935071530 -0.0609315730 -1 -1
-0.0936452520 -0.0607680680 -1 -1
-0.0935688980 -0.0603097930 -1 -1
-0.0933018300 -0.0596056490 -1 -1
-0.0928825420 -0.0587311020 -1 -1
-0.0923636450 -0.0577811420 -1 -1
-0.0918114600 -0.0568603400 -1 -1
-0.0913023870 -0.0560709780 -1 -1
-0.0909151520 -0.0555000340 -1 -1
-0.0907203930 -0.0552074200 -1 -1
-0.0907699570 -0.0552189700 -1 -1
-0.0910878960 -0.0555258810 -1 -1
-0.0916650510 -0.0560892070 -1 -1
-0.0924595150 -0.0568466360 -1 -1
-0.0934032700 -0.0577197070 -1 -1
-0.0944122100 -0.0586213760 -1 -1
-0.0953967020 -0.0594642960 -1 -1
-0.0962716300 -0.0601691470 -1 -1
-0.0969650700 -0.0606714710 -1 -1
-0.0974241030 -0.0609258020 -1 -1
-0.0976166920 -0.0609070240 -1 -1
-0.0975305170 -0.0606101350 -1 -1
-0.0971710730 -0.0600499400 -1 -1
-0.0965610130 -0.0592612480 -1 -1
-0.0957412130 -0.0582987100 -1 -1
-0.0947723400 -0.0572346110 -1 -1
-0.0937343130 -0.0561535010 -1 -1
-0.0927209780 -0.0551441550 -1 -1
-0.0918289010 -0.0542904770 -1 -1
-0.0911425300 -0.0536627910 -1 -1
-0.0907205460 -0.0533102490 -1 -1
-0.0905872950 -0.0532543790 -1 -1
-0.0907303270 -0.0534841090 -1 -1
-0.0911028400 -0.0539541370 -1 -1
-0.0916292820 -0.0545885950 -1 -1
-0.0922138850 -0.0552899580 -1 -1
-0.0927536000 -0.0559515960 -1 -1
-0.0931549020 -0.0564719760 -1 -1
-0.0933497270 -0.0567681100 -1 -1
-0.0933055240 -0.0567860870 -1 -1
-0.0930283360 -0.0565076970 -1 -1
-0.0925597920 -0.0559525840 -1 -1
-0.0919679400 -0.0551748940 -1 -1
-0.0913334380 -0.0542541360 -1 -1
-0.0907366240 -0.0532828880 -1 -1
-0.0902506940 -0.0523554330 -1 -1
-0.0899402960 -0.0515589510 -1 -1
-0.0898606430 -0.0509659410 -1 -1
-0.0900540640 -0.0506270170 -1 -1
-0.0905454580 -0.0505657240 -1 -1
-0.0913396780 -0.0507770890 -1 -1
-0.0924218490 -0.0512297300 -1 -1
-0.0937592980 -0.0518709090 -1 -1
-0.0953030030 -0.0526341070 -1 -1
-0.0969874720 -0.0534476660 -1 -1
-0.0987302920 -0.0542424040 -1 -1
-0.1004343290 -0.0549568350 -1 -1
-0.1019945200 -0.0555399480 -1 -1
-0.1033088160 -0.0559526130 -1 -1
-0.1042915470 -0.0561688050 -1 -1
-0.1048849740 -0.0561768320 -1 -1
-0.1050637590 -0.0559799940 -1 -1
-0.1048336040 -0.0555963760 -1 -1
-0.1042307650 -0.0550578550 -1 -1
-0.1033233310 -0.0544076420 -1 -1
-0.1022088080 -0.0536963550 -1 -1
-0.1010053370 -0.0529784480 -1 -1
-0.0998385270 -0.0523101270 -1 -1
-0.0988269470 -0.0517472560 -1 -1
-0.0980679910 -0.0513416110 -1 -1
-0.0976251490 -0.0511355190 -1 -1
-0.0975192830 -0.0511557680 -1 -1
-0.0977271110 -0.0514082000 -1 -1
-0.0981874060 -0.0518747970 -1 -1
-0.0988126430 -0.0525144330 -1 -1
-0.0995033890 -0.0532672030 -1 -1
-0.1001629180 -0.0540612920 -1 -1
-0.1007090170 -0.0548207690 -1 -1
-0.1010801450 -0.0554730970 -1 -1
-0.1012361900 -0.0559563670 -1 -1
-0.1011571150 -0.0562264070 -1 -1
-0.1008421210 -0.0562623640 -1 -1
-0.1003094650 -0.0560690290 -1 -1
-0.0995959260 -0.0556757560 -1 -1
-0.0987550280 -0.0551330040 -1 -1
-0.0978539860 -0.0545072800 -1 -1
-0.0969693670 -0.0538746830 -1 -1
-0.0961808820 -0.0533131010 -1 -1
-0.0955635500 -0.0528938970 -1 -1
-0.0951803750 -0.0526746590 -1 -1
-0.0950778240 -0.0526939890 -1 -1
-0.0952841700 -0.0529681850 -1 -1
-0.0958083870 -0.0534889380 -1 -1
-0.0966373850 -0.0542216580 -1 -1
-0.0977322610 -0.0551056970 -1 -1
-0.0990267250 -0.0560587550 -1 -1
-0.1004303030 -0.0569862880 -1 -1
-0.1018367540 -0.0577941610 -1 -1
-0.1031367240 -0.0584016570 -1 -1
-0.1042329790 -0.0587520060 -1 -1
-0.1050556360 -0.0588179520 -1 -1
-0.1055734390 -0.0586017350 -1 -1
-0.1057969680 -0.0581313160 -1 -1
-0.1057722840 -0.0574552110 -1 -1
-0.1055670730 -0.0566371190 -1 -1
-0.1052533860 -0.0557506570 -1 -1
-0.1048926200 -0.0548739420 -1 -1
-0.1045287670 -0.0540834700 -1 -1
-0.1041914840 -0.0534474090 -1 -1
-0.1039037490 -0.0530189960 -1 -1
-0.1036867310 -0.0528308120 -1 -1
-0.1035585930 -0.0528908940 -1 -1
-0.1035299130 -0.0531818210 -1 -1
-0.1036003840 -0.0536633650 -1 -1
-0.1037579910 -0.0542781140 -1 -1
-0.1039787650 -0.0549586160 -1 -1
-0.1042270110 -0.0556346530 -1 -1
-0.1044583630 -0.0562397560 -1 -1
-0.1046262570 -0.0567167310 -1 -1
-0.1046889400 -0.0570221610 -1 -1
-0.1046136390 -0.0571296350 -1 -1
-0.1043781500 -0.0570320240 -1 -1
-0.1039734420 -0.0567430350 -1 -1
-0.1034086590 -0.0562968850 -1 -1
-0.1027155270 -0.0557446730 -1 -1
-0.1019485390 -0.0551481120 -1 -1
-0.1011800050 -0.0545729650 -1 -1
-0.1004915620 -0.0540838170 -1 -1
-0.0999641720 -0.0537399390 -1 -1
-0.0996675440 -0.0535911750 -1 -1
-0.0996496930 -0.0536729170 -1 -1
-0.0999289640 -0.0540000960 -1 -1
-0.1004913130 -0.0545615030 -1 -1
-0.1012930350 -0.0553168530 -1 -1
-0.1022666870 -0.0561986250 -1 -1
-0.1033290100 -0.0571192940 -1 -1
-0.1043910850 -0.0579827690 -1 -1
-0.1053688430 -0.0586977420 -1 -1
-0.1061901900 -0.0591898520 -1 -1
-0.1067981210 -0.0594093060 -1 -1
-0.1071528160 -0.0593326890 -1 -1
-0.1072342330 -0.0589613490 -1 -1
-0.1070435070 -0.0583193450 -1 -1
-0.1066017110 -0.0574514130 -1 -1
-0.1059471400 -0.0564200990 -1 -1
-0.1051331920 -0.0553016460 -1 -1
-0.1042270290 -0.0541805280 -1 -1
-0.1033064910 -0.0531425790 -1 -1
-0.1024528160 -0.0522672080 -1 -1
-0.1017406340 -0.0516194700 -1 -1
-0.1012301240 -0.0512426720 -1 -1
-0.1009639530 -0.0511523640 -1 -1
-0.1009667710 -0.0513333040 -1 -1
-0.1012443810 -0.0517412460 -1 -1
-0.1017824540 -0.0523098240 -1 -1
-0.1025452660 -0.0529601180 -1 -1
-0.1034746160 -0.0536095830 -1 -1
-0.1044911080 -0.0541786550 -1 -1
-0.1055006960 -0.0545957580 -1 -1
-0.1064063440 -0.0548023090 -1 -1
-0.1071221610 -0.0547582400 -1 -1
-0.1075867520 -0.0544473150 -1 -1
-0.1077719600 -0.0538814410 -1 -1
-0.1076848940 -0.0531031880 -1 -1
-0.1073651510 -0.0521847620 -1 -1
-0.1068806350 -0.0512217120 -1 -1
-0.1063228890 -0.0503220050 -1 -1
-0.1057992250 -0.0495928280 -1 -1
-0.1054183560 -0.0491268430 -1 -1
-0.1052714650 -0.0489895570 -1 -1
-0.1054165000 -0.0492105560 -1 -1
-0.1058720300 -0.0497811350 -1 -1
-0.1066199050 -0.0506585750 -1 -1
-0.1076120110 -0.0517743360 -1 -1
-0.1087775530 -0.0530425830 -1 -1
-0.1100296810 -0.0543678180 -1 -1
-0.1112717910 -0.0556527280 -1 -1
-0.1124045470 -0.0568068230 -1 -1
-0.1133342200 -0.0577545710 -1 -1
-0.1139825560 -0.0584415530 -1 -1
-0.1142975020 -0.0588381870 -1 -1
-0.1142622220 -0.0589406280 -1 -1
-0.1138987720 -0.0587688850 -1 -1
-0.1132645400 -0.0583635010 -1 -1
-0.1124427850 -0.0577821190 -1 -1
-0.1115294570 -0.0570958170 -1 -1
-0.1106187080 -0.0563841530 -1 -1
-0.1097912950 -0.0557284430 -1 -1
-0.1091094790 -0.0552037760 -1 -1
-0.1086170570 -0.0548706930 -1 -1
-0.1083402880 -0.0547678980 -1 -1
-0.1082876620 -0.0549082240 -1 -1
-0.1084494260 -0.0552793490 -1 -1
-0.1087987360 -0.0558481690 -1 -1
-0.1092957280 -0.0565662830 -1 -1
-0.1098930720 -0.0573750690 -1 -1
-0.1105389910 -0.0582098660 -1 -1
-0.1111765910 -0.0590030450 -1 -1
-0.1117438810 -0.0596865670 -1 -1
-0.1121791410 -0.0601954830 -1 -1
-0.1124308380 -0.0604735850 -1 -1
-0.1124670130 -0.0604808920 -1 -1
-0.1122800390 -0.0602006560 -1 -1
-0.1118861300 -0.0596432410 -1 -1
-0.1113215290 -0.0588457960 -1 -1
-0.1106377860 -0.0578676660 -1 -1
-0.1098969750 -0.0567821310 -1 -1
-0.1091663420 -0.0556664140 -1 -1
-0.1085121990 -0.0545923020 -1 -1
-0.1079935840 -0.0536186950 -1 -1
-0.1076563000 -0.0527867250 -1 -1
-0.1075277910 -0.0521172820 -1 -1
-0.1076130410 -0.0516101100 -1 -1
-0.1078918320 -0.0512449970 -1 -1
-0.1083185580 -0.0509866490 -1 -1
-0.1088265400 -0.0507925300 -1 -1
-0.1093374600 -0.0506201770 -1 -1
-0.1097736990 -0.0504315100 -1 -1
-0.1100699900 -0.0501948070 -1 -1
-0.1101813450 -0.0498861100 -1 -1
-0.1100857800 -0.0494906560 -1 -1
-0.1097828500 -0.0490042580 -1 -1
-0.1092905490 -0.0484345150 -1 -1
-0.1086420320 -0.0478012830 -1 -1
-0.1078822960 -0.0471357170 -1 -1
-0.1070651090 -0.0464777720 -1 -1
-0.1062504660 -0.0458723280 -1 -1
-0.1055015780 -0.0453642640 -1 -1
-0.1048792750 -0.0449934280 -1 -1
-0.1044331020 -0.0447902510 -1 -1
-0.1041926020 -0.0447719790 -1 -1
-0.1041643100 -0.0449397720 -1 -1
-0.1043350270 -0.0452772660 -1 -1
-0.1046762970 -0.0457503540 -1 -1
-0.1051471880 -0.0463081800 -1 -1
-0.1056975070 -0.0468868780 -1 -1
-0.1062730890 -0.0474170640 -1 -1
-0.1068214760 -0.0478334060 -1 -1
-0.1072957450 -0.0480834790 -1 -1
-0.1076561030 -0.0481342600 -1 -1
-0.1078704880 -0.0479754910 -1 -1
-0.1079161250 -0.0476195670 -1 -1
-0.1077830270 -0.0470988050 -1 -1
-0.1074783380 -0.0464619130 -1 -1
-0.1070287790 -0.0457701740 -1 -1
-0.1064792230 -0.0450922850 -1 -1
-0.1058881700 -0.0444974060 -1 -1
-0.1053220070 -0.0440474210 -1 -1
-0.1048484050 -0.0437896930 -1 -1
-0.1045286160 -0.0437513180 -1 -1
-0.1044095670 -0.0439357490 -1 -1
-0.1045173360 -0.0443216590 -1 -1
-0.1048524460 -0.0448632710 -1 -1
-0.1053866960 -0.0454923490 -1 -1
-0.1060632350 -0.0461230180 -1 -1
-0.1068027360 -0.0466601960 -1 -1
-0.1075148450 -0.0470113250 -1 -1
-0.1081103930 -0.0470994730 -1 -1
-0.1085115710 -0.0468741520 -1 -1
-0.1086602960 -0.0463163880 -1 -1
-0.1085238650 -0.0454373020 -1 -1
-0.1080955580 -0.0442727320 -1 -1
-0.1073905890 -0.0428772280 -1 -1
-0.1064415740 -0.0413194000 -1 -1
-0.1052970740 -0.0396787570 -1 -1
-0.1040226000 -0.0380425820 -1 -1
-0.1026999140 -0.0365010890 -1 -1
-0.1014214990 -0.0351404770 -1 -1
-0.1002824340 -0.0340345140 -1 -1
-0.0993743010 -0.0332354920 -1 -1
-0.0987802890 -0.0327664820 -1 -1
-0.0985662180 -0.0326181180 -1 -1
-0.0987666200 -0.0327522680 -1 -1
-0.0993715830 -0.0331118660 -1 -1
-0.1003205220 -0.0336330450 -1 -1
-0.1015051290 -0.0342548000 -1 -1
-0.1027814100 -0.0349234180 -1 -1
-0.1039895060 -0.0355918270 -1 -1
-0.1049771650 -0.0362159880 -1 -1
-0.1056202470 -0.0367515200 -1 -1
-0.1058351410 -0.0371532890 -1 -1
-0.1055827000 -0.0373790680 -1 -1
-0.1048664550 -0.0373966620 -1 -1
-0.1037282250 -0.0371924460 -1 -1
-0.1022439300 -0.0367783450 -1 -1
-0.1005204770 -0.0361943800 -1 -1
-0.0986904770 -0.0355052910 -1 -1
-0.0969007830 -0.0347917170 -1 -1
-0.0952953900 -0.0341380490 -1 -1
-0.0939977240 -0.0336197660 -1 -1
-0.0930971690 -0.0332928240 -1 -1
-0.0926415740 -0.0331861980 -1 -1
-0.0926344650 -0.0332975390 -1 -1
-0.0930352130 -0.0335925660 -1 -1
-0.0937625810 -0.0340095940 -1 -1
-0.0947035160 -0.0344686480 -1 -1
-0.0957275400 -0.0348821500 -1 -1
-0.0967040820 -0.0351645610 -1 -1
-0.0975182350 -0.0352403900 -1 -1
-0.0980822810 -0.0350511150 -1 -1
-0.0983430190 -0.0345614260 -1 -1
-0.0982847150 -0.0337641410 -1 -1
-0.0979266850 -0.0326818110 -1 -1
-0.0973160330 -0.0313635540 -1 -1
-0.0965180250 -0.0298780470 -1 0
-0.0956068490 -0.0283052050 -1 0
-0.0946578040 -0.0267289040 -1 0
-0.0937405290 -0.0252315960 -1 0
-0.0929143320 -0.0238897030 -1 0
-0.0922278400 -0.0227682520 -1 0
-0.0917222120 -0.0219151600 -1 0
-0.0914332410 -0.0213569730 -1 0
-0.0913880730 -0.0210969840 -1 0
-0.0915968780 -0.0211146920 -1 0
-0.0920449780 -0.0213654120 -1 0
-0.0926916550 -0.0217811590 -1 0
-0.0934761300 -0.0222757730 -1 0
-0.0943262270 -0.0227554490 -1 0
-0.0951664830 -0.0231321920 -1 0
-0.0959254860 -0.0233361660 -1 0
-0.0965426180 -0.0233243720 -1 0
-0.0969731820 -0.0230849960 -1 0
-0.0971908780 -0.0226372490 -1 0
-0.0971886040 -0.0220267190 -1 0
-0.0969798430 -0.0213172550 -1 0
-0.0966004020 -0.0205812010 -1 0
-0.0961067950 -0.0198899030 -1 0
-0.0955689170 -0.0193061100 -1 0
-0.0950597030 -0.0188788990 -1 0
-0.0946459220 -0.0186404910 -1 0
-0.0943810800 -0.0186041830 -1 0
-0.0942998140 -0.0187633300 -1 0
-0.0944144520 -0.0190921430 -1 0
-0.0947144560 -0.0195490100 -1 0
-0.0951673250 -0.0200817290 -1 0
-0.0957196510 -0.0206332520 -1 0
-0.0963003230 -0.0211475110 -1 0
-0.0968286350 -0.0215750940 -1 0
-0.0972259040 -0.0218775300 -1 0
-0.0974261010 -0.0220294590 -1 0
-0.0973830200 -0.0220193750 -1 0
-0.0970750870 -0.0218495560 -1 0
-0.0965084950 -0.0215349790 -1 0
-0.0957168530 -0.0211013470 -1 0
-0.0947568330 -0.0205830240 -1 0
-0.0937024160 -0.0200215190 -1 0
-0.0926390950 -0.0194642300 -1 0
-0.0916563240 -0.0189622020 -1 0
-0.0908369830 -0.0185656380 -1 0
-0.0902455470 -0.0183171020 -1 0
-0.0899181150 -0.0182440880 -1 0
-0.0898570790 -0.0183535550 -1 0
-0.0900327440 -0.0186305840 -1 0
-0.0903924730 -0.0190422700 -1 0
-0.0908732990 -0.0195456410 -1 0
-0.0914114200 -0.0200953740 -1 0
-0.0919459910 -0.0206471780 -1 0
-0.0924200530 -0.0211572930 -1 0
-0.0927824810 -0.0215822720 -1 0
-0.0929916800 -0.0218815780 -1 0
-0.0930185700 -0.0220216800 -1 0
-0.0928467600 -0.0219792910 -1 0
-0.0924711830 -0.0217429690 -1 0
-0.0918985420 -0.0213136950 -1 0
-0.0911504780 -0.0207056520 -1 0
-0.0902652790 -0.0199475940 -1 0
-0.0892942190 -0.0190831220 -1 0
-0.0882945740 -0.0181681880 -1 0
-0.0873235530 -0.0172661600 -1 0
-0.0864338010 -0.0164409880 -1 0
-0.0856694310 -0.0157482120 -1 0
-0.0850632250 -0.0152252250 -1 0
-0.0846360540 -0.0148845420 -1 0
-0.0843972420 -0.0147127010 -1 0
-0.0843432020 -0.0146740190 -1 0
-0.0844541630 -0.0147170510 -1 0
-0.0846923470 -0.0147826080 -1 0
-0.0850045430 -0.0148126970 -1 0
-0.0853286100 -0.0147590250 -1 0
-0.0856016200 -0.0145895340 -1 0
-0.0857684050 -0.0142922060 -1 0
-0.0857893320 -0.0138762050 -1 0
-0.0856454680 -0.0133708000 -1 0
-0.0853405730 -0.0128221020 -1 0
-0.0849006370 -0.0122876170 -1 0
-0.0843708880 -0.0118291790 -1 0
-0.0838098710 -0.0115055110 -1 0
-0.0832813910 -0.0113659050 -1 0
-0.0828459910 -0.0114459400 -1 0
-0.0825530510 -0.0117649180 -1 0
-0.0824342290 -0.0123239980 -1 0
-0.0824992650 -0.0131048330 -1 0
-0.0827352570 -0.0140697450 -1 0
-0.0831097420 -0.0151644800 -1 0
-0.0835763420 -0.0163229250 -1 0
-0.0840806480 -0.0174718660 -1 0
-0.0845642910 -0.0185347060 -1 0
-0.0849672370 -0.0194351970 -1 0
-0.0852309110 -0.0201027170 -1 0
-0.0853041480 -0.0204792990 -1 0
-0.0851497320 -0.0205274040 -1 0
-0.0847478710 -0.0202370690 -1 0
-0.0840969520 -0.0196311660 -1 0
-0.0832150540 -0.0187674940 -1 0
-0.0821430290 -0.0177361370 -1 0
-0.0809453530 -0.0166506120 -1 0
-0.0797050630 -0.0156329900 -1 0
-0.0785133970 -0.0147962460 -1 0
-0.0774578560 -0.0142286670 -1 0
-0.0766119800 -0.0139841010 -1 0
-0.0760280830 -0.0140793490 -1 0
-0.0757333550 -0.0144973810 -1 0
-0.0757294210 -0.0151934690 -1 0
-0.0759936130 -0.0161017030 -1 0
-0.0764797380 -0.0171413010 -1 0
-0.0771192800 -0.0182234540 -1 0
-0.0778254350 -0.0192590310 -1 0
-0.0785006590 -0.0201663010 -1 0
-0.0790478820 -0.0208775090 -1 0
-0.0793843610 -0.0213433170 -1 0
-0.0794534360 -0.0215345160 -1 0
-0.0792296840 -0.0214416850 -1 0
-0.0787178570 -0.0210741220 -1 0
-0.0779487600 -0.0204581780 -1 0
-0.0769745840 -0.0196353000 -1 0
-0.0758650270 -0.0186613260 -1 0
-0.0747040650 -0.0176070430 -1 0
-0.0735853800 -0.0165570280 -1 0
-0.0726041870 -0.0156039440 -1 0
-0.0718457970 -0.0148382460 -1 0
-0.0713746970 -0.0143360110 -1 0
-0.0712277640 -0.0141486250 -1 0
-0.0714117090 -0.0142963510 -1 0
-0.0719029340 -0.0147654970 -1 0
-0.0726489590 -0.0155088720 -1 0
-0.0735723230 -0.0164504080 -1 0
-0.0745783920 -0.0174944520 -1 0
-0.0755666970 -0.0185382290 -1 0
-0.0764428710 -0.0194844050 -1 0
-0.0771279690 -0.0202511750 -1 0
-0.0775637310 -0.0207790690 -1 0
-0.0777146370 -0.0210350390 -1 0
-0.0775687630 -0.0210145160 -1 0
-0.0771380730 -0.0207413070 -1 0
-0.0764574510 -0.0202645490 -1 0
-0.0755824830 -0.0196524930 -1 0
-0.0745866270 -0.0189844150 -1 0
-0.0735568330 -0.0183424910 -1 0
-0.0725854590 -0.0178040490 -1 0
-0.0717585820 -0.0174339430 -1 0
-0.0711441770 -0.0172783200 -1 0
-0.0707836660 -0.0173612210 -1 0
-0.0706872210 -0.0176835930 -1 0
-0.0708329790 -0.0182238800 -1 0
-0.0711726700 -0.0189401130 -1 0
-0.0716437260 -0.0197735580 -1 0
-0.0721820120 -0.0206542290 -1 0
-0.0727296940 -0.0215083240 -1 0
-0.0732384800 -0.0222661190 -1 0
-0.0736709660 -0.0228683810 -1 0
-0.0740011860 -0.0232712970 -1 0
-0.0742141990 -0.0234512050 -1 0
-0.0743047200 -0.0234089040 -1 0
-0.0742745650 -0.0231719230 -1 0
-0.0741293540 -0.0227934080 -1 0
-0.0738772240 -0.0223469630 -1 0
-0.0735316600 -0.0219170640 -1 0
-0.0731162190 -0.0215857980 -1 0
-0.0726669970 -0.0214190150 -1 0
-0.0722306690 -0.0214563360 -1 0
-0.0718576990 -0.0217072370 -1 0
-0.0715923470 -0.0221521430 -1 0
-0.0714639020 -0.0227468550 -1 0
-0.0714826790 -0.0234293810 -1 0
-0.0716397320 -0.0241281800 -1 0
-0.0719076380 -0.0247701240 -1 0
-0.0722426230 -0.0252872090 -1 0
-0.0725902000 -0.0256226360 -1 0
-0.0728937960 -0.0257367080 -1 0
-0.0731033810 -0.0256110840 -1 0
-0.0731825810 -0.0252498510 -1 0
-0.0731138240 -0.0246779590 -1 0
-0.0728995330 -0.0239385600 -1 0
-0.0725582630 -0.0230896720 -1 0
-0.0721192170 -0.0221992720 -1 0
-0.0716199170 -0.0213388210 -1 0
-0.0711072130 -0.0205770650 -1 0
-0.0706376680 -0.0199756550 -1 0
-0.0702739330 -0.0195861740 -1 0
-0.0700761610 -0.0194469040 -1 0
-0.0700898430 -0.0195785030 -1 0
-0.0703346390 -0.0199792850 -1 0
-0.0708005330 -0.0206218500 -1 0
-0.0714537270 -0.0214532620 -1 0
-0.0722473770 -0.0224004090 -1 0
-0.0731297070 -0.0233799150 -1 0
-0.0740461520 -0.0243093440 -1 0
-0.0749379200 -0.0251159900 -1 0
-0.0757423770 -0.0257419170 -1 0
-0.0763993060 -0.0261468140 -1 0
-0.0768615650 -0.0263108180 -1 0
-0.0771045490 -0.0262372770 -1 0
-0.0771307640 -0.0259536840 -1 0
-0.0769701180 -0.0255098700 -1 0
-0.0766774780 -0.0249738830 -1 0
-0.0763267440 -0.0244256900 -1 0
-0.0759997940 -0.0239482480 -1 0
-0.0757718250 -0.0236162460 -1 0
-0.0756985200 -0.0234847380 -1 0
-0.0758102910 -0.0235808420 -1 0
-0.0761142780 -0.0239004050 -1 0
-0.0766001970 -0.0244096840 -1 0
-0.0772452510 -0.0250513290 -1 0
-0.0780157290 -0.0257535400 -1 0
-0.0788667820 -0.0264403970 -1 0
-0.0797435430 -0.0270413060 -1 0
-0.0805849140 -0.0274984350 -1 0
-0.0813288730 -0.0277712040 -1 0
-0.0819173420 -0.0278368660 -1 0
-0.0822995280 -0.0276878520 -1 0
-0.0824348690 -0.0273281870 -1 0
-0.0822974520 -0.0267709120 -1 0
-0.0818811540 -0.0260372880 -1 0
-0.0812026920 -0.0251578350 -1 0
-0.0803012150 -0.0241737930 -1 0
-0.0792357760 -0.0231365420 -1 0
-0.0780823430 -0.0221040370 -1 0
-0.0769297740 -0.0211356740 -1 0
-0.0758729230 -0.0202869490 -1 0
-0.0750027860 -0.0196041720 -1 0
-0.0743964190 -0.0191196800 -1 0
-0.0741094170 -0.0188487260 -1 0
-0.0741710170 -0.0187882790 -1 0
-0.0745803240 -0.0189169700 -1 0
-0.0753041220 -0.0191963890 -1 0
-0.0762787450 -0.0195752250 -1 0
-0.0774164290 -0.0199964290 -1 0
-0.0786132880 -0.0204043980 -1 0
-0.0797569480 -0.0207487890 -1 0
-0.0807356980 -0.0209852400 -1 0
-0.0814508880 -0.0210765040 -1 0
-0.0818301590 -0.0209956640 -1 0
-0.0818371270 -0.0207297110 -1 0
-0.0814752810 -0.0202820330 -1 0
-0.0807867660 -0.0196741900 -1 0
-0.0798478550 -0.0189469650 -1 0
-0.0787618970 -0.0181594100 -1 0
-0.0776489560 -0.0173847170 -1 0
-0.0766316800 -0.0167027550 -1 0
-0.0758193550 -0.0161899770 -1 0
-0.0752936220 -0.0159080700 -1 0
-0.0750987050 -0.0158938220 -1 0
-0.0752376790 -0.0161528950 -1 0
-0.0756751200 -0.0166585630 -1 0
-0.0763454340 -0.0173548300 -1 0
-0.0771648060 -0.0181629710 -1 0
-0.0780433370 -0.0189908680 -1 0
-0.0788948050 -0.0197441340 -1 0
-0.0796440090 -0.0203372090 -1 0
-0.0802321040 -0.0207022380 -1 0
-0.0806189740 -0.0207944340 -1 0
-0.0807821810 -0.0205941940 -1 0
-0.0807148060 -0.0201072700 -1 0
-0.0804252040 -0.0193637310 -1 0
-0.0799388790 -0.0184152140 -1 0
-0.0792992520 -0.0173298710 -1 0
-0.0785642760 -0.0161855260 -1 0
-0.0777999040 -0.0150625230 -1 0
-0.0770739990 -0.0140374210 -1 0
-0.0764510660 -0.0131775890 -1 0
-0.0759843320 -0.0125362530 -1 0
-0.0757049080 -0.0121479880 -1 0
-0.0756138940 -0.0120247860 -1 0
-0.0756820690 -0.0121528270 -1 0
-0.0758554420 -0.0124909680 -1 0
-0.0760628400 -0.0129730560 -1 0
-0.0762244790 -0.0135154500 -1 0
-0.0762621060 -0.0140284250 -1 0
-0.0761101040 -0.0144282250 -1 0
-0.0757253180 -0.0146475750 -1 0
-0.0750922060 -0.0146437760 -1 0
-0.0742214820 -0.0144033300 -1 0
-0.0731451670 -0.0139421240 -1 0
-0.0719128110 -0.0133018890 -1 0
-0.0705903310 -0.0125447750 -1 0
-0.0692596100 -0.0117472300 -1 0
-0.0680161690 -0.0109932220 -1 0
-0.0669623620 -0.0103664070 -1 0
-0.0661955190 -0.0099414410 -1 0
-0.0657937630 -0.0097755710 -1 0
-0.0658027350 -0.0099021410 -1 0
-0.0662256100 -0.0103271180 -1 0
-0.0670197000 -0.0110283270 -1 0
-0.0681026640 -0.0119565260 -1 0
-0.0693668470 -0.0130385860 -1 0
-0.0706961710 -0.0141836090 -1 0
-0.0719800490 -0.0152917530 -1 0
-0.0731216110 -0.0162647170 -1 0
-0.0740411190 -0.0170162900 -1 0
-0.0746779400 -0.0174814070 -1 0
-0.0749935140 -0.0176232730 -1 0
-0.0749750880 -0.0174383590 -1 0
-0.0746382050 -0.0169578090 -1 0
-0.0740261110 -0.0162436690 -1 0
-0.0732058100 -0.0153806650 -1 0
-0.0722612910 -0.0144660450 -1 0
-0.0712844540 -0.0135993760 -1 0
-0.0703648350 -0.0128728380 -1 0
-0.0695800860 -0.0123620580 -1 0
-0.0689888260 -0.0121178040 -1 0
-0.0686264170 -0.0121596600 -1 0
-0.0685039040 -0.0124736870 -1 0
-0.0686105600 -0.0130156110 -1 0
-0.0689195500 -0.0137189470 -1 0
-0.0693938100 -0.0145050360 -1 0
-0.0699892060 -0.0152914350 -1 0
-0.0706552940 -0.0159972950 -1 0
-0.0713359170 -0.0165470190 -1 0
-0.0719708360 -0.0168741880 -1 0
-0.0724992020 -0.0169268940 -1 0
-0.0728659820 -0.0166742890 -1 0
-0.0730308970 -0.0161128340 -1 0
-0.0729767380 -0.0152703290 -1 0
-0.0727136200 -0.0142059950 -1 0
-0.0722780710 -0.0130049010 -1 0
-0.0717276510 -0.0117667110 -1 0
-0.0711318330 -0.0105919500 -1 0
-0.0705606880 -0.0095701720 -1 0
-0.0700747960 -0.0087724380 -1 0
-0.0697193810 -0.0082478250 -1 0
-0.0695226440 -0.0080223880 -1 0
-0.0694961710 -0.0080988640 -1 0
-0.0696354770 -0.0084562080 -1 0
-0.0699200740 -0.0090496650 -1 0
-0.0703142790 -0.0098135540 -1 0
-0.0707700020 -0.0106678350 -1 0
-0.0712301290 -0.0115266210 -1 0
-0.0716312220 -0.0123059830 -1 0
-0.0719082980 -0.0129305440 -1 0
-0.0720036740 -0.0133397740 -1 0
-0.0718763060 -0.0134939620 -1 0
-0.0715070650 -0.0133787390 -1 0
-0.0708996140 -0.0130073230 -1 0
