-0.0221376340 0.0329371270 0 1
-0.0211928090 0.0334688880 0 1
-0.0200353850 0.0341661960 0 1
-0.0187622310 0.0349653890 0 1
-0.0174747630 0.0357965450 0 1
-0.0162689550 0.0365823720 0 1
-0.0152327940 0.0372396750 0 1
-0.0144455550 0.0376861490 0 1
-0.0139716030 0.0378520510 0 1
-0.0138487100 0.0376934490 0 1
-0.0140779600 0.0372024580 0 1
-0.0146213900 0.0364115230 0 1
-0.0154083390 0.0353920050 0 1
-0.0163474800 0.0342481540 0 1
-0.0173404320 0.0331063930 0 1
-0.0182940090 0.0321003160 0 1
-0.0191297850 0.0313536460 0 1
-0.0197901450 0.0309643650 0 1
-0.0202397870 0.0309929130 0 1
-0.0204630440 0.0314562060 0 1
-0.0204607820 0.0323276290 0 1
-0.0202508850 0.0335414530 0 1
-0.0198709220 0.0349997520 0 1
-0.0193776310 0.0365813700 0 1
-0.0188408060 0.0381535960 0 1
-0.0183345460 0.0395859280 0 1
-0.0179309390 0.0407636410 0 1
-0.0176979050 0.0415988230 0 1
-0.0176972230 0.0420373170 0 1
-0.0179775280 0.0420608440 0 1
-0.0185627010 0.0416850010 0 1
-0.0194421460 0.0409550090 0 1
-0.0205683860 0.0399409470 0 1
-0.0218609810 0.0387326900 0 1
-0.0232145340 0.0374333610 0 1
-0.0245130060 0.0361511930 0 1
-0.0256508310 0.0349914050 0 1
-0.0265521340 0.0340485130 0 1
-0.0271768050 0.0333976440 0 1
-0.0275127640 0.0330846340 0 1
-0.0275643190 0.0331180300 0 1
-0.0273455290 0.0334672310 0 1
-0.0268801870 0.0340682660 0 1
-0.0262051370 0.0348347060 0 1
-0.0253726870 0.0356689790 0 1
-0.0244494990 0.0364708790 0 1
-0.0235119150 0.0371440020 0 1
-0.0226392020 0.0376029280 0 1
-0.0219063600 0.0377817860 0 1
-0.0213775330 0.0376418250 0 1
-0.0210999460 0.0371756780 0 1
-0.0210980030 0.0364082790 0 1
-0.0213684110 0.0353956430 0 1
-0.0218779370 0.0342213830 0 1
-0.0225637870 0.0329892810 0 1
-0.0233362700 0.0318112800 0 1
-0.0240863020 0.0307932410 0 1
-0.0247005270 0.0300227400 0 1
-0.0250809250 0.0295619040 0 0
-0.0251608200 0.0294452330 0 0
-0.0249126060 0.0296800190 0 0
-0.0243492720 0.0302466690 0 1
-0.0235227640 0.0310976970 0 1
-0.0225181180 0.0321568610 0 1
-0.0214414160 0.0333216240 0 1
-0.0204042830 0.0344710320 0 1
-0.0195106610 0.0354784900 0 1
-0.0188486660 0.0362268500 0 1
-0.0184853320 0.0366226330 0 1
-0.0184610390 0.0366068610 0 1
-0.0187831270 0.0361614800 0 1
-0.0194211380 0.0353114540 0 1
-0.0203074310 0.0341228160 0 1
-0.0213459340 0.0326968910 0 1
-0.0224289890 0.0311608220 0 1
-0.0234573620 0.0296548740 0 0
-0.0243532140 0.0283177730 0 0
-0.0250591160 0.0272715840 0 0
-0.0255290850 0.0266074140 0 0
-0.0257236720 0.0263744450 0 0
-0.0256136120 0.0265755140 0 0
-0.0251886360 0.0271696560 0 0
-0.0244663160 0.0280783020 0 0
-0.0234950940 0.0291925590 0 0
-0.0223479260 0.0303828040 0 1
-0.0211094600 0.0315121980 0 1
-0.0198627120 0.0324520630 0 1
-0.0186797010 0.0330953920 0 1
-0.0176182780 0.0333671280 0 1
-0.0167238220 0.0332316420 0 1
-0.0160309260 0.0326968560 0 1
-0.0155612700 0.0318133570 0 1
-0.0153186420 0.0306679220 0 1
-0.0152852220 0.0293731720 0 0
-0.0154224980 0.0280555050 0 0
-0.0156766820 0.0268419390 0 0
-0.0159863950 0.0258462440 0 0
-0.0162909730 0.0251564590 0 0
-0.0165383300 0.0248263730 0 0
-0.0166912360 0.0248717950 0 0
-0.0167310960 0.0252707300 0 0
-0.0166592480 0.0259664090 0 0
-0.0164970380 0.0268732180 0 0
-0.0162845820 0.0278863240 0 0
-0.0160759240 0.0288945420 0 0
-0.0159306090 0.0297937480 0 0
-0.0159055540 0.0304975170 0 1
-0.0160493500 0.0309428640 0 1
-0.0163976320 0.0310912100 0 1
-0.0169684950 0.0309266680 0 1
-0.0177588780 0.0304539710 0 1
-0.0187429800 0.0296973510 0 0
-0.0198727820 0.0287009170 0 0
-0.0210810630 0.0275297760 0 0
-0.0222884120 0.0262694660 0 0
-0.0234142630 0.0250213600 0 0
-0.0243868490 0.0238935830 0 0
-0.0251445270 0.0229886300 0 0
-0.0256289450 0.0223901810 0 0
-0.0257818750 0.0221526710 0 0
-0.0255556380 0.0222958740 0 0
-0.0249330560 0.0228033400 0 0
-0.0239436280 0.0236230220 0 0
-0.0226653320 0.0246708340 0 0
-0.0212114580 0.0258383460 0 0
-0.0197105590 0.0270039150 0 0
-0.0182884990 0.0280455790 0 0
-0.0170557770 0.0288538970 0 0
-0.0160984220 0.0293428150 0 0
-0.0154712670 0.0294574100 0 0
-0.0151944760 0.0291785010 0 0
-0.0152541700 0.0285247990 0 0
-0.0156072080 0.0275526070 0 0
-0.0161887950 0.0263521140 0 0
-0.0169203610 0.0250394000 0 0
-0.0177170640 0.0237442910 0 0
-0.0184967480 0.0225951790 0 0
-0.0191910640 0.0217026220 0 0
-0.0197557700 0.0211449740 0 0
-0.0201756430 0.0209599200 0 0
-0.0204630070 0.0211432430 0 0
-0.0206540220 0.0216524100 0 0
-0.0208048820 0.0224117920 0 0
-0.0209839020 0.0233185640 0 0
-0.0212570950 0.0242504280 0 0
-0.0216724850 0.0250766970 0 0
-0.0222507610 0.0256724950 0 0
-0.0229847610 0.0259338570 0 0
-0.0238445150 0.0257909490 0 0
-0.0247846080 0.0252170950 0 0
-0.0257546540 0.0242318730 0 0
-0.0267124030 0.0228977670 0 0
-0.0276315250 0.0213113030 0 0
-0.0284954190 0.0195902760 0 0
-0.0292801830 0.0178591450 0 0
-0.0299399250 0.0162353190 0 0
-0.0304046030 0.0148185750 -1 0
-0.0305911590 0.0136837790 -1 0
-0.0304229240 0.0128757500 -1 0
-0.0298508940 0.0124062940 0 0
-0.0288705170 0.0122549180 0 0
-0.0275289460 0.0123738960 0 0
-0.0259205500 0.0126960220 0 0
-0.0241724880 0.0131422760 0 0
-0.0224254200 0.0136283650 0 0
-0.0208148300 0.0140710880 0 0
-0.0194559800 0.0143946420 0 0
-0.0184327420 0.0145352540 0 0
-0.0177901060 0.0144435990 0 0
-0.0175314450 0.0140871820 0 0
-0.0176211130 0.0134550460 0 0
-0.0179912340 0.0125637360 0 0
-0.0185518420 0.0114605190 0 0
-0.0192041870 0.0102209330 0 0
-0.0198543320 0.0089411130 0 0
-0.0204218860 0.0077269520 0 0
-0.0208427820 0.0066818540 0 0
-0.0210702210 0.0058947010 0 0
-0.0210767750 0.0054295210 0 0
-0.0208567240 0.0053182470 0 0
-0.0204272360 0.0055576200 0 0
-0.0198278490 0.0061102970 0 0
-0.0191170630 0.0069090040 0 0
-0.0183656540 0.0078629650 0 0
-0.0176482990 0.0088666700 0 0
-0.0170347530 0.0098106550 0 0
-0.0165821550 0.0105929210 0 0
-0.0163317630 0.0111286800 0 0
-0.0163109640 0.0113561910 0 0
-0.0165362070 0.0112391810 0 0
-0.0170120460 0.0107687910 0 0
-0.0177255500 0.0099668370 0 0
-0.0186389360 0.0088886960 0 0
-0.0196846390 0.0076225220 0 0
-0.0207668150 0.0062830260 0 0
-0.0217714910 0.0050003510 0 0
-0.0225848230 0.0039054250 0 0
-0.0231161040 0.0031137980 0 0
-0.0233184130 0.0027109420 0 0
-0.0231970480 0.0027414160 0 0
-0.0228008690 0.0032025610 0 0
-0.0222029790 0.0040431590 0 0
-0.0214829260 0.0051680070 0 0
-0.0207169920 0.0064483860 0 0
-0.0199745510 0.0077369180 0 0
-0.0193158660 0.0088847970 0 0
-0.0187892510 0.0097592170 0 0
-0.0184282160 0.0102585570 0 0
-0.0182499000 0.0103225560 0 0
-0.0182559980 0.0099354350 0 0
-0.0184363990 0.0091225140 0 0
-0.0187731870 0.0079432000 0 0
-0.0192415290 0.0064834910 0 0
-0.0198068930 0.0048498490 0 0
-0.0204214460 0.0031637450 0 0
-0.0210230980 0.0015541350 0 0
-0.0215395500 0.0001461380 0 0
-0.0218978690 -0.0009522600 0 0
-0.0220376730 -0.0016619390 0 0
-0.0219235220 -0.0019411410 0 0
-0.0215510690 -0.0017905960 0 0
-0.0209449040 -0.0012539100 0 0
-0.0201518760 -0.0004113440 0 0
-0.0192350910 0.0006323830 0 0
-0.0182695680 0.0017623310 0 0
-0.0173373240 0.0028652860 0 0
-0.0165206350 0.0038379000 0 0
-0.0158934530 0.0045928170 0 0
-0.0155111780 0.0050647540 0 0
-0.0154006620 0.0052163670 0 0
-0.0155545350 0.0050424590 0 0
-0.0159331570 0.0045710460 0 0
-0.0164722280 0.0038602190 0 0
-0.0170902770 0.0029914040 0 0
-0.0176940190 0.0020609870 0 0
-0.0181850020 0.0011714110 0 0
-0.0184695120 0.0004215260 0 0
-0.0184703250 -0.0001037800 0 0
-0.0181384640 -0.0003436080 0 0
-0.0174619650 -0.0002689690 0 0
-0.0164680320 0.0001131480 0 0
-0.0152194380 0.0007607210 0 0
-0.0138106110 0.0016028960 0 0
-0.0123648440 0.0025501920 0 0
-0.0110252790 0.0035060090 0 0
-0.0099327080 0.0043766590 0 0
-0.0091960040 0.0050785740 0 0
-0.0088704610 0.0055436100 0 0
-0.0089534330 0.0057246490 0 0
-0.0093948400 0.0056021430 0 0
-0.0101158640 0.0051894040 0 0
-0.0110295540 0.0045331720 0 0
-0.0120559680 0.0037078690 0 0
-0.0131254140 0.0028053610 0 0
-0.0141700870 0.0019237640 0 0
-0.0151130570 0.0011573940 0 0
-0.0158665290 0.0005882110 0 0
-0.0163449780 0.0002786100 0 0
-0.0164871110 0.0002657050 0 0
-0.0162741420 0.0005575010 0 0
-0.0157360420 0.0011313750 0 0
-0.0149464560 0.0019353570 0 0
-0.0140109940 0.0028925430 0 0
-0.0130519320 0.0039078770 0 0
-0.0121916910 0.0048759370 0 0
-0.0115384590 0.0056896720 0 0
-0.0111755790 0.0062513000 0 0
-0.0111544500 0.0064854210 0 0
-0.0114917250 0.0063514120 0 0
-0.0121715800 0.0058504220 0 0
-0.0131514330 0.0050246110 0 0
-0.0143681160 0.0039503230 0 0
-0.0157425220 0.0027285370 0 0
-0.0171833440 0.0014746990 0 0
-0.0185919060 0.0003083060 0 0
-0.0198690000 -0.0006577630 0 0
-0.0209235660 -0.0013270250 0 0
-0.0216822450 -0.0016269420 0 0
-0.0220970880 -0.0015141220 0 0
-0.0221491530 -0.0009775580 0 0
-0.0218491350 -0.0000403285 0 0
-0.0212374750 0.0012402070 0 0
-0.0203849900 0.0027750150 0 0
-0.0193936550 0.0044498110 0 0
-0.0183939980 0.0061341800 0 0
-0.0175322700 0.0076916040 0 0
-0.0169457250 0.0089895880 0 0
-0.0167358290 0.0099102070 0 0
-0.0169524200 0.0103618110 0 0
-0.0175933800 0.0102908400 0 0
-0.0186148650 0.0096907280 0 0
-0.0199439320 0.0086055220 0 0
-0.0214879560 0.0071272290 0 0
-0.0231402950 0.0053868240 0 0
-0.0247854740 0.0035406690 0 0
-0.0263076650 0.0017553280 0 0
-0.0276032720 0.0001922310 0 0
-0.0285942340 -0.0010079340 0 0
-0.0292366870 -0.0017404590 0 0
-0.0295208560 -0.0019490630 0 0
-0.0294625360 -0.0016321070 0 0
-0.0290925450 -0.0008409490 0 0
-0.0284518350 0.0003280690 0 0
-0.0275934250 0.0017455290 0 0
-0.0265859150 0.0032631710 0 0
-0.0255138520 0.0047286250 0 0
-0.0244733310 0.0059989240 0 0
-0.0235625430 0.0069524310 0 0
-0.0228684180 0.0074992030 0 0
-0.0224530400 0.0075886810 0 0
-0.0223440990 0.0072131130 0 0
-0.0225317420 0.0064061130 0 0
-0.0229724230 0.0052372520 0 0
-0.0235987860 0.0038043920 0 0
-0.0243321760 0.0022251130 0 0
-0.0250931950 0.0006277570 0 0
-0.0258081940 -0.0008578410 0 0
-0.0264128200 -0.0021105530 0 0
-0.0268540140 -0.0030300180 0 0
-0.0270912780 -0.0035496600 0 0
-0.0270990320 -0.0036470460 0 0
-0.0268709600 -0.0033476050 0 0
-0.0264240440 -0.0027202410 0 0
-0.0257996540 -0.0018668540 0 0
-0.0250615930 -0.0009090300 0 0
-0.0242911740 0.0000263062 0 0
-0.0235780010 0.0008217350 0 0
-0.0230072170 0.0013831190 0 0
-0.0226484140 0.0016497710 0 0
-0.0225503280 0.0015989440 0 0
-0.0227389290 0.0012442670 0 0
-0.0232142630 0.0006297540 0 0
-0.0239464570 -0.0001778920 0 0
-0.0248748860 -0.0010963030 0 0
-0.0259124650 -0.0020327110 0 0
-0.0269540400 -0.0028884140 0 0
-0.0278873900 -0.0035647120 0 0
-0.0286060340 -0.0039713670 0 0
-0.0290236000 -0.0040364600 0 0
-0.0290893760 -0.0037155500 0 0
-0.0288021020 -0.0029984640 0 0
-0.0282137500 -0.0019129970 0 0
-0.0274152640 -0.0005256580 0 0
-0.0265086520 0.0010608400 0 0
-0.0255816930 0.0027150470 0 0
-0.0246974170 0.0042900370 0 0
-0.0238973610 0.0056405130 0 0
-0.0232101350 0.0066406130 0 0
-0.0226578730 0.0071996180 0 0
-0.0222575400 0.0072731620 0 0
-0.0220173200 0.0068682970 0 0
-0.0219301890 0.0060420840 0 0
-0.0219687610 0.0048941930 0 0
-0.0220852770 0.0035545960 0 0
-0.0222173640 0.0021679100 0 0
-0.0222975050 0.0008763790 0 0
-0.0222639370 -0.0001958980 0 0
-0.0220718750 -0.0009548580 0 0
-0.0217036970 -0.0013432510 0 0
-0.0211736510 -0.0013429810 0 0
-0.0205225900 -0.0009742590 0 0
-0.0198046510 -0.0002920320 0 0
-0.0190733020 0.0006204420 0 0
-0.0183737050 0.0016604520 0 0
-0.0177437890 0.0027160590 0 0
-0.0172206860 0.0036767120 0 0
-0.0168455930 0.0044436480 0 0
-0.0166620060 0.0049390410 0 0
-0.0167078810 0.0051128120 0 0
-0.0170055780 0.0049468920 0 0
-0.0175527500 0.0044571180 0 0
-0.0183166360 0.0036926770 0 0
-0.0192345210 0.0027327460 0 0
-0.0202217300 0.0016800790 0 0
-0.0211853450 0.0006516690 0 0
-0.0220399370 -0.0002324900 0 0
-0.0227217970 -0.0008606740 0 0
-0.0231979020 -0.0011390330 0 0
-0.0234646330 -0.0009993170 0 0
-0.0235351470 -0.0004057220 0 0
-0.0234234610 0.0006386630 0 0
-0.0231360100 0.0020870960 0 0
-0.0226741410 0.0038484280 0 0
-0.0220440270 0.0057926440 0 0
-0.0212690270 0.0077636850 0 0
-0.0203994080 0.0095978840 0 0
-0.0195145160 0.0111433830 0 0
-0.0187149540 0.0122756820 0 0
-0.0181060750 0.0129075630 0 0
-0.0177777850 0.0129948260 0 0
-0.0177876560 0.0125396600 0 0
-0.0181519520 0.0115919490 0 0
-0.0188440490 0.0102470100 0 0
-0.0197974870 0.0086379050 0 0
-0.0209129890 0.0069223400 0 0
-0.0220703460 0.0052666860 0 0
-0.0231439160 0.0038302160 0 0
-0.0240176860 0.0027508550 0 0
-0.0245974250 0.0021320530 0 0
-0.0248204210 0.0020310990 0 0
-0.0246621960 0.0024514200 0 0
-0.0241379180 0.0033417050 0 0
-0.0232985210 0.0046025240 0 0
-0.0222243650 0.0060990860 0 0
-0.0210185390 0.0076782750 0 0
-0.0197986890 0.0091878330 0 0
-0.0186850110 0.0104942160 0 0
-0.0177853010 0.0114952750 0 0
-0.0171815290 0.0121265370 0 0
-0.0169216110 0.0123627830 0 0
-0.0170169810 0.0122170420 0 0
-0.0174451920 0.0117376540 0 0
-0.0181558660 0.0110031100 0 0
-0.0190775570 0.0101143740 0 0
-0.0201243530 0.0091850220 0 0
-0.0212031570 0.0083300780 0 0
-0.0222218690 0.0076543680 0 0
-0.0230970670 0.0072413670 0 0
-0.0237606120 0.0071440280 0 0
-0.0241653950 0.0073795300 0 0
-0.0242893200 0.0079295560 0 0
-0.0241367790 0.0087459400 0 0
-0.0237381080 0.0097591740 0 0
-0.0231468160 0.0108870660 0 0
-0.0224342780 0.0120424870 0 0
-0.0216846160 0.0131401910 0 0
-0.0209939620 0.0141026900 0 0
-0.0204708640 0.0148648810 0 0
-0.0202257290 0.0153770980 0 0
-0.0203443920 0.0156073670 0 0
-0.0208588600 0.0155441480 0 0
-0.0217328020 0.0151990910 0 0
-0.0228673820 0.0146077190 0 0
-0.0241222500 0.0138270830 0 0
-0.0253436770 0.0129315220 0 0
-0.0263914500 0.0120074950 0 0
-0.0271569110 0.0111466610 0 0
-0.0275697480 0.0104362970 0 0
-0.0275980870 0.0099482500 0 0
-0.0272477540 0.0097293330 0 0
-0.0265616270 0.0097958770 0 0
-0.0256156620 0.0101330700 0 0
-0.0245090780 0.0106977110 0 0
-0.0233509590 0.0114232530 0 0
-0.0222482710 0.0122273940 0 0
-0.0212982300 0.0130217530 0 0
-0.0205840650 0.0137212380 0 0
-0.0201706220 0.0142513830 0 0
-0.0200976520 0.0145541300 0 0
-0.0203736490 0.0145928450 0 0
-0.0209743170 0.0143561760 0 0
-0.0218452370 0.0138599500 0 0
-0.0229061080 0.0131468280 0 0
-0.0240565120 0.0122843010 0 0
-0.0251846850 0.0113614260 0 0
-0.0261789240 0.0104826600 0 0
-0.0269388730 0.0097566390 0 0
-0.0273841150 0.0092814330 0 0
-0.0274607520 0.0091314550 0 0
-0.0271487210 0.0093498000 0 0
-0.0264695220 0.0099453400 0 0
-0.0254895630 0.0108916140 0 0
-0.0243143170 0.0121264440 0 0
-0.0230731830 0.0135544950 0 0
-0.0218998710 0.0150548640 0 0
-0.0209138570 0.0164926820 0 0
-0.0202056420 0.0177321960 0 0
-0.0198273840 0.0186500550 0 0
-0.0197913260 0.0191485720 0 0
-0.0200770720 0.0191685030 0 0
-0.0206439650 0.0186995330 0 0
-0.0214402040 0.0177849120 0 0
-0.0224024540 0.0165168500 0 0
-0.0234498470 0.0150226010 0 0
-0.0244829930 0.0134453470 0 0
-0.0253928580 0.0119256310 0 0
-0.0260755220 0.0105869870 0 0
-0.0264467420 0.0095260300 0 0
-0.0264526040 0.0088061720 0 0
-0.0260757730 0.0084550940 0 0
-0.0253383340 0.0084664110 0 0
-0.0243003710 0.0088044310 0 0
-0.0230519650 0.0094095300 0 0
-0.0216994390 0.0102027280 0 0
-0.0203508760 0.0110901400 0 0
-0.0191055370 0.0119685490 0 0
-0.0180472810 0.0127332430 0 0
-0.0172398800 0.0132886020 0 0
-0.0167244430 0.0135601420 0 0
-0.0165197480 0.0135054330 0 0
-0.0166233710 0.0131215070 0 0
-0.0170112010 0.0124467450 0 0
-0.0176364880 0.0115565120 0 0
-0.0184321200 0.0105535240 0 0
-0.0193180250 0.0095544650 0 0
-0.0202117360 0.0086746000 0 0
-0.0210379600 0.0080129650 0 0
-0.0217340090 0.0076409440 0 0
-0.0222521500 0.0075963040 0 0
-0.0225633680 0.0078829960 0 0
-0.0226636740 0.0084747610 0 0
-0.0225767310 0.0093196180 0 0
-0.0223472670 0.0103440860 0 0
-0.0220288070 0.0114586470 0 0
-0.0216735840 0.0125660930 0 0
-0.0213280450 0.0135716960 0 0
-0.0210322110 0.0143918800 0 0
-0.0208198150 0.0149590970 0 0
-0.0207170280 0.0152240130 0 0
-0.0207397210 0.0151579950 0 0
-0.0208916430 0.0147574150 0 0
-0.0211654770 0.0140485390 0 0
-0.0215450700 0.0130898050 0 0
-0.0220056490 0.0119683810 0 0
-0.0225121270 0.0107905480 0 0
-0.0230188580 0.0096688340 0 0
-0.0234733840 0.0087093750 0 0
-0.0238232120 0.0080009980 0 0
-0.0240228840 0.0076063010 0 0
-0.0240402790 0.0075550820 0 0
-0.0238622350 0.0078410990 0 0
-0.0234982250 0.0084232280 0 0
-0.0229809340 0.0092313400 0 0
-0.0223653200 0.0101757530 0 0
-0.0217277190 0.0111582560 0 0
-0.0211611430 0.0120824810 0 0
-0.0207601950 0.0128615390 0 0
-0.0205977490 0.0134221710 0 0
-0.0207063170 0.0137068380 0 0
-0.0210742020 0.0136759210 0 0
-0.0216546510 0.0133113000 0 0
-0.0223803180 0.0126209510 0 0
-0.0231773120 0.0116426900 0 0
-0.0239760910 0.0104448080 0 0
-0.0247177740 0.0091221440 0 0
-0.0253557640 0.0077874720 0 0
-0.0258542300 0.0065591570 0 0
-0.0261859360 0.0055465280 0 0
-0.0263316950 0.0048350880 0 0
-0.0262828930 0.0044745440 0 0
-0.0260464130 0.0044724850 0 0
-0.0256485350 0.0047947640 0 0
-0.0251341150 0.0053715280 0 0
-0.0245609150 0.0061072010 0 0
-0.0239919720 0.0068933400 0 0
-0.0234881050 0.0076224850 0 0
-0.0231016130 0.0082001320 0 0
-0.0228725840 0.0085533280 0 0
-0.0228278780 0.0086361510 0 0
-0.0229798020 0.0084322220 0 0
-0.0233222980 0.0079542510 0 0
-0.0238270320 0.0072412160 0 0
-0.0244432110 0.0063541730 0 0
-0.0251023500 0.0053716910 0 0
-0.0257268900 0.0043851100 0 0
-0.0262405990 0.0034924000 0 0
-0.0265784720 0.0027890410 0 0
-0.0266943400 0.0023566400 0 0
-0.0265653820 0.0022525990 0 0
-0.0261936330 0.0025039290 0 0
-0.0256046650 0.0031056840 0 0
-0.0248437640 0.0040223030 0 0
-0.0239709830 0.0051903780 0 0
-0.0230565920 0.0065233590 0 0
-0.0221765500 0.0079190470 0 0
-0.0214065020 0.0092687210 0 0
-0.0208150340 0.0104661150 0 0
-0.0204599080 0.0114156810 0 0
-0.0203885020 0.0120400980 0 0
-0.0206375380 0.0122868820 0 0
-0.0212272160 0.0121342480 0 0
-0.0221525030 0.0115961540 0 0
-0.0233793410 0.0107255020 0 0
-0.0248497760 0.0096137120 0 0
-0.0264929070 0.0083846400 0 0
-0.0282336810 0.0071816890 0 0
-0.0299922780 0.0061491350 0 0
-0.0316763710 0.0054113240 -1 0
-0.0331790520 0.0050550430 -1 0
-0.0343907130 0.0051196300 -1 0
-0.0352184420 0.0055963490 -1 0
-0.0356018630 0.0064347160 -1 0
-0.0355220130 0.0075509150 -1 0
-0.0350054530 0.0088350740 -1 0
-0.0341243730 0.0101589850 -1 0
-0.0329907050 0.0113877630 -1 0
-0.0317422440 0.0123949970 -1 0
-0.0305223550 0.0130768150 -1 0
-0.0294589000 0.0133617390 0 0
-0.0286481000 0.0132170680 0 0
-0.0281454180 0.0126527340 0 0
-0.0279620440 0.0117212880 0 0
-0.0280652040 0.0105124590 0 0
-0.0283824910 0.0091428670 0 0
-0.0288123000 0.0077431770 0 0
-0.0292409760 0.0064445320 0 0
-0.0295627520 0.0053652800 0 0
-0.0296953800 0.0045996200 0 0
-0.0295868170 0.0042100080 0 0
-0.0292147660 0.0042233880 0 0
-0.0285850560 0.0046300960 0 0
-0.0277319030 0.0053850260 0 0
-0.0267173950 0.0064112960 0 0
-0.0256264820 0.0076063500 0 0
-0.0245573880 0.0088502210 0 0
-0.0236101780 0.0100160560 0 0
-0.0228760120 0.0109825690 0 0
-0.0224284110 0.0116468450 0 0
-0.0223168740 0.0119352560 0 0
-0.0225616230 0.0118108300 0 0
-0.0231475770 0.0112761950 0 0
-0.0240188970 0.0103721000 0 0
-0.0250804150 0.0091721750 0 0
-0.0262116390 0.0077749840 0 0
-0.0272901350 0.0062944120 0 0
-0.0282134400 0.0048489850 0 0
-0.0289121050 0.0035509500 0 0
-0.0293553590 0.0024970840 0 0
-0.0295518390 0.0017625000 0 0
-0.0295416660 0.0013959580 0 0
-0.0293770950 0.0014143690 0 0
-0.0290997590 0.0017971990 0 0
-0.0287285750 0.0024846890 0 0
-0.0282647930 0.0033831730 0 0
-0.0277083600 0.0043765720 0 0
-0.0270744000 0.0053405410 0 0
-0.0264015550 0.0061564950 0 0
-0.0257500600 0.0067239390 0 0
-0.0251914320 0.0069698980 0 0
-0.0247929690 0.0068550730 0 0
-0.0246015770 0.0063770560 0 0
-0.0246324400 0.0055705970 0 0
-0.0248654140 0.0045045970 0 0
-0.0252477000 0.0032757390 0 0
-0.0257009120 0.0019988290 0 0
-0.0261331810 0.0007942600 0 0
-0.0264562860 -0.0002261340 0 0
-0.0266025380 -0.0009722770 0 0
-0.0265340640 -0.0013852650 0 0
-0.0262431170 -0.0014415370 0 0
-0.0257483860 -0.0011523540 0 0
-0.0250914560 -0.0005600070 0 0
-0.0243328200 0.0002679030 0 0
-0.0235446610 0.0012450870 0 0
-0.0228003150 0.0022732860 0 0
-0.0221642630 0.0032487300 0 0
-0.0216862540 0.0040691980 0 0
-0.0214001280 0.0046430000 0 0
-0.0213256090 0.0048994350 0 0
-0.0214704790 0.0047983750 0 0
-0.0218312060 0.0043365790 0 0
-0.0223915800 0.0035495580 0 0
-0.0231198430 0.0025090190 0 0
-0.0239660250 0.0013163160 0 0
-0.0248619920 0.0000924741 0 0
-0.0257257940 -0.0010338010 0 0
-0.0264705730 -0.0019385100 0 0
-0.0270172230 -0.0025147560 0 0
-0.0273080390 -0.0026848970 0 0
-0.0273172250 -0.0024103640 0 0
-0.0270550510 -0.0016961090 0 0
-0.0265643850 -0.0005885520 0 0
-0.0259109470 0.0008316280 0 0
-0.0251715290 0.0024596680 0 0
-0.0244252160 0.0041782280 0 0
-0.0237495090 0.0058686630 0 0
-0.0232167530 0.0074202770 0 0
-0.0228835510 0.0087366840 0 0
-0.0227744040 0.0097401690 0 0
-0.0228722600 0.0103752980 0 0
-0.0231254350 0.0106123590 0 0
-0.0234663020 0.0104508470 0 0
-0.0238302150 0.0099226440 0 0
-0.0241667890 0.0090932380 0 0
-0.0244417030 0.0080589200 0 0
-0.0246319520 0.0069390870 0 0
-0.0247196790 0.0058637540 0 0
-0.0246888890 0.0049573860 0 0
-0.0245266880 0.0043225410 0 0
-0.0242274360 0.0040280250 0 0
-0.0237968150 0.0041037190 0 0
-0.0232543450 0.0045404790 0 0
-0.0226338270 0.0052923150 0 0
-0.0219804010 0.0062798610 0 0
-0.0213440120 0.0073965600 0 0
-0.0207721640 0.0085191900 0 0
-0.0203053220 0.0095220320 0 0
-0.0199752440 0.0102917620 0 0
-0.0198041520 0.0107402550 0 0
-0.0198031270 0.0108140090 0 0
-0.0199692490 0.0104998130 0 0
-0.0202825440 0.0098264270 0 0
-0.0207053880 0.0088624850 0 0
-0.0211863440 0.0077107280 0 0
-0.0216676750 0.0064977750 0 0
-0.0220938520 0.0053591830 0 0
-0.0224181860 0.0044218150 0 0
-0.0226064940 0.0037873070 0 0
-0.0226388110 0.0035201780 0 0
-0.0225103720 0.0036426030 0 0
-0.0222316260 0.0041359660 0 0
-0.0218267710 0.0049474590 0 0
-0.0213319910 0.0059985550 0 0
-0.0207942400 0.0071930290 0 0
-0.0202684610 0.0084243130 0 0
-0.0198107210 0.0095831910 0 0
-0.0194688390 0.0105666220 0 0
-0.0192756470 0.0112875100 0 0
-0.0192486460 0.0116839390 0 0
-0.0193959220 0.0117263400 0 0
-0.0197253040 0.0114222430 0 0
-0.0202506300 0.0108181740 0 0
-0.0209867910 0.0099966200 0 0
-0.0219313620 0.0090659800 0 0
-0.0230435850 0.0081448680 0 0
-0.0242361030 0.0073461100 0 0
-0.0253850210 0.0067659350 0 0
-0.0263527180 0.0064788090 0 0
-0.0270143810 0.0065335710 0 0
-0.0272803770 0.0069482770 0 0
-0.0271097300 0.0077060870 0 0
-0.0265138290 0.0087551710 0 0
-0.0255519280 0.0100125080 0 0
-0.0243205990 0.0113704680 0 0
-0.0229392230 0.0127060270 0 0
-0.0215337550 0.0138925570 0 0
-0.0202219900 0.0148129510 0 0
-0.0191033680 0.0153721910 0 0
-0.0182532340 0.0155075640 0 0
-0.0177193940 0.0151950190 0 0
-0.0175202410 0.0144512840 0 0
-0.0176454880 0.0133327700 0 0
-0.0180591470 0.0119320520 0 0
-0.0187018900 0.0103713660 0 0
-0.0194922130 0.0087922700 0 0
-0.0203309880 0.0073415030 0 0
-0.0211136300 0.0061545300 0 0
-0.0217480110 0.0053398440 0 0
-0.0221715930 0.0049672270 0 0
-0.0223611170 0.0050614460 0 0
-0.0223321170 0.0056011370 0 0
-0.0221308830 0.0065222690 0 0
-0.0218233100 0.0077259670 0 0
-0.0214835140 0.0090900290 0 0
-0.0211838340 0.0104821670 0 0
-0.0209873500 0.0117724400 0 0
-0.0209431830 0.0128435340 0 0
-0.0210836630 0.0135995480 0 0
-0.0214223640 0.0139742520 0 0
-0.0219535010 0.0139376950 0 0
-0.0226548130 0.0134993850 0 0
-0.0234949170 0.0127081760 0 0
-0.0244417780 0.0116492470 0 0
-0.0254649060 0.0104363120 0 0
-0.0265265540 0.0091977410 0 0
-0.0275679530 0.0080596220 0 0
-0.0285037570 0.0071310770 0 0
-0.0292310920 0.0064945140 0 0
-0.0296484700 0.0062002070 0 0
-0.0296768480 0.0062643590 0 0
-0.0292773010 0.0066707260 0 0
-0.0284619550 0.0073750220 0 0
-0.0272971130 0.0083097180 0 0
-0.0258981540 0.0093874800 0 0
-0.0244154350 0.0105047330 0 0
-0.0230126390 0.0115485990 0 0
-0.0218425150 0.0124086220 0 0
-0.0210259840 0.0129915740 0 0
-0.0206386090 0.0132357030 0 0
-0.0207052100 0.0131202620 0 0
-0.0212007900 0.0126679710 0 0
-0.0220560820 0.0119408610 0 0
-0.0231676950 0.0110312910 0 0
-0.0244128900 0.0100501110 0 0
-0.0256663580 0.0091136020 0 0
-0.0268143980 0.0083301110 0 0
-0.0277639670 0.0077873820 0 0
-0.0284479650 0.0075427870 0 0
-0.0288290030 0.0076186730 0 0
-0.0289022880 0.0080029450 0 0
-0.0286970180 0.0086530460 0 0
-0.0282749580 0.0095016840 0 0
-0.0277239860 0.0104638680 0 0
-0.0271451590 0.0114455030 0 0
-0.0266352790 0.0123529720 0 0
-0.0262709810 0.0131016590 0 0
-0.0261004690 0.0136214700 0 0
-0.0261435640 0.0138598320 0 0
-0.0263955870 0.0137842070 0 0
-0.0268313890 0.0133849600 0 0
-0.0274095560 0.0126779220 0 0
-0.0280773620 0.0117059060 0 0
-0.0287759000 0.0105382870 0 0
-0.0294454270 0.0092672730 0 0
-0.0300307750 0.0080001770 -1 0
-0.0304845780 0.0068491370 -1 0
-0.0307674400 0.0059209480 -1 0
-0.0308487400 0.0053083900 -1 0
-0.0307106440 0.0050827290 -1 0
-0.0303516500 0.0052870070 -1 0
-0.0297855210 0.0059305470 0 0
-0.0290374560 0.0069857810 0 0
-0.0281421230 0.0083888140 0 0
-0.0271454660 0.0100441150 0 0
-0.0261082240 0.0118320040 0 0
-0.0251071600 0.0136175180 0 0
-0.0242315680 0.0152604100 0 0
-0.0235764040 0.0166263900 0 0
-0.0232342530 0.0175995750 0 0
-0.0232847560 0.0180951400 0 0
-0.0237772630 0.0180697940 0 0
-0.0247080030 0.0175275310 0 0
-0.0260035680 0.0165198270 0 0
-0.0275241120 0.0151411070 0 0
-0.0290877580 0.0135203750 0 0
-0.0305050880 0.0118089010 -1 0
-0.0316103910 0.0101642760 -1 0
-0.0322820000 0.0087328480 -1 0
-0.0324507920 0.0076336960 -1 0
-0.0321003460 0.0069471700 -1 0
-0.0312634030 0.0067096690 -1 0
-0.0300166300 0.0069136660 -1 0
-0.0284721240 0.0075104890 0 0
-0.0267644270 0.0084151660 0 0
-0.0250359330 0.0095148240 0 0
-0.0234249800 0.0106812530 0 0
-0.0220569890 0.0117857320 0 0
-0.0210362350 0.0127133790 0 0
-0.0204376820 0.0133752970 0 0
-0.0203001620 0.0137176540 0 0
-0.0206220460 0.0137266080 0 0
-0.0213606710 0.0134280770 0 0
-0.0224361400 0.0128828160 0 0
-0.0237381050 0.0121783160 0 0
-0.0251346390 0.0114184900 0 0
-0.0264854340 0.0107113630 0 0
-0.0276609320 0.0101562320 0 0
-0.0285628760 0.0098333890 0 0
-0.0291380100 0.0097982880 0 0
-0.0293803810 0.0100790270 0 0
-0.0293240850 0.0106746470 0 0
-0.0290307890 0.0115535310 0 0
-0.0285756950 0.0126538400 0 0
-0.0280356590 0.0138879870 0 0
-0.0274825790 0.0151506110 0 0
-0.0269815590 0.0163279640 0 0
-0.0265899260 0.0173079670 0 0
-0.0263540880 0.0179916370 0 0
-0.0263042670 0.0183056810 0 0
-0.0264489650 0.0182138530 0 0
-0.0267716470 0.0177236460 0 0
-0.0272315790 0.0168864490 0 0
-0.0277690640 0.0157913380 0 0
-0.0283137820 0.0145533920 0 0
-0.0287948310 0.0132983010 0 0
-0.0291513690 0.0121469480 0 0
-0.0293418440 0.0112037770 0 0
-0.0293484960 0.0105499870 0 0
-0.0291748170 0.0102396340 0 0
-0.0288380400 0.0102967470 0 0
-0.0283621110 0.0107132600 0 0
-0.0277749080 0.0114485060 0 0
-0.0271088010 0.0124314690 0 0
-0.0264018710 0.0135668460 0 0
-0.0256988690 0.0147446680 0 0
-0.0250522390 0.0158518390 0 0
-0.0245222540 0.0167839990 0 0
-0.0241734630 0.0174565760 0 0
-0.0240644560 0.0178136270 0 0
-0.0242318590 0.0178330360 0 0
-0.0246766530 0.0175277050 0 0
-0.0253634080 0.0169438170 0 0
-0.0262344870 0.0161574100 0 0
-0.0272275300 0.0152685300 0 0
-0.0282809660 0.0143907880 0 0
-0.0293259980 0.0136365340 0 0
-0.0302790150 0.0131017310 -1 0
-0.0310458510 0.0128548320 -1 0
-0.0315356480 0.0129310810 -1 0
-0.0316763930 0.0133309800 -1 0
-0.0314272150 0.0140212560 -1 0
-0.0307852940 0.0149382190 -1 0
-0.0297860570 0.0159942690 0 0
-0.0284971360 0.0170873140 0 0
-0.0270091580 0.0181117080 0 0
-0.0254271260 0.0189690010 0 0
-0.0238639260 0.0195768990 0 0
-0.0224345190 0.0198753380 0 0
-0.0212483990 0.0198297030 0 0
-0.0203992450 0.0194324740 0 0
-0.0199529780 0.0187045300 0 0
-0.0199371550 0.0176956610 0 0
-0.0203351960 0.0164828200 0 0
-0.0210881570 0.0151652280 0 0
-0.0221037110 0.0138566960 0 0
-0.0232680700 0.0126761950 0 0
-0.0244567230 0.0117372110 0 0
-0.0255445260 0.0111356830 0 0
-0.0264183390 0.0109375160 0 0
-0.0269920160 0.0111688550 0 0
-0.0272189430 0.0118117390 0 0
-0.0270972330 0.0128049050 0 0
-0.0266660400 0.0140487470 0 0
-0.0259943380 0.0154148490 0 0
-0.0251664550 0.0167600310 0 0
-0.0242705890 0.0179422720 0 0
-0.0233934960 0.0188352760 0 0
-0.0226189070 0.0193404080 0 0
-0.0220256270 0.0193958620 0 0
-0.0216828100 0.0189823280 0 0
-0.0216418810 0.0181241980 0 0
-0.0219271760 0.0168863340 0 0
-0.0225279130 0.0153674090 0 0
-0.0233924990 0.0136909750 0 0
-0.0244275170 0.0119949840 0 0
-0.0255064120 0.0104200130 0 0
-0.0264904550 0.0090971090 0 0
-0.0272578900 0.0081366930 0 0
-0.0277307220 0.0076191000 0 0
-0.0278864200 0.0075864980 0 0
-0.0277483310 0.0080361800 0 0
-0.0273611790 0.0089162500 0 0
-0.0267671200 0.0101262800 0 0
-0.0259959060 0.0115255120 0 0
-0.0250722130 0.0129484940 0 0
-0.0240320460 0.0142255270 0 0
-0.0229350970 0.0152042240 0 0
-0.0218638980 0.0157679470 0 0
-0.0209107570 0.0158477910 0 0
-0.0201606500 0.0154271290 0 0
-0.0196768980 0.0145397520 0 0
-0.0194913360 0.0132636700 0 0
-0.0195989550 0.0117121270 0 0
-0.0199582990 0.0100217830 0 0
-0.0204985010 0.0083383830 0 0
-0.0211310710 0.0068019520 0 0
-0.0217628100 0.0055336420 0 0
-0.0223068240 0.0046255900 0 0
-0.0226907550 0.0041345890 0 0
-0.0228631290 0.0040789690 0 0
-0.0227978550 0.0044375790 0 0
-0.0224954850 0.0051513030 0 0
-0.0219817590 0.0061287240 0 0
-0.0213061230 0.0072558160 0 0
-0.0205404670 0.0084073780 0 0
-0.0197746920 0.0094585400 0 0
-0.0191064540 0.0102963370 0 0
-0.0186269650 0.0108307610 0 0
-0.0184064860 0.0110033820 0 0
-0.0184815430 0.0107919650 0 0
-0.0188469720 0.0102114560 0 0
-0.0194573740 0.0093123610 0 0
-0.0202385380 0.0081765840 0 0
-0.0211035520 0.0069098770 0 0
-0.0219674410 0.0056310060 0 0
-0.0227574810 0.0044596940 0 0
-0.0234201600 0.0035061080 0 0
-0.0239266320 0.0028629350 0 0
-0.0242755490 0.0025991160 0 0
-0.0244879720 0.0027536680 0 0
-0.0245913780 0.0033291840 0 0
-0.0246009360 0.0042869600 0 0
-0.0245132200 0.0055473700 0 0
-0.0243178060 0.0069976430 0 0
-0.0240158240 0.0085056490 0 0
-0.0236309390 0.0099360960 0 0
-0.0232077780 0.0111657580 0 0
-0.0228014990 0.0120954970 0 0
-0.0224642030 0.0126584380 0 0
-0.0222337170 0.0128249850 0 0
-0.0221287810 0.0126053600 0 0
-0.0221503480 0.0120491810 0 0
-0.0222850240 0.0112409720 0 0
-0.0225069950 0.0102910560 0 0
-0.0227776590 0.0093227490 0 0
-0.0230453480 0.0084579360 0 0
-0.0232486770 0.0078031790 0 0
-0.0233248070 0.0074381900 0 0
-0.0232208590 0.0074083720 0 0
-0.0229050070 0.0077220600 0 0
-0.0223730310 0.0083517440 0 0
-0.0216479650 0.0092386600 0 0
-0.0207755350 0.0103002370 0 0
-0.0198200910 0.0114393910 0 0
-0.0188612780 0.0125549410 0 0
-0.0179880080 0.0135522600 0 0
-0.0172888620 0.0143520720 0 0
-0.0168413890 0.0148954320 0 0
-0.0167025580 0.0151452800 0 0
-0.0169010860 0.0150871970 0 0
-0.0174320570 0.0147313740 0 0
-0.0182549810 0.0141149660 0 0
-0.0192974000 0.0133022330 0 0
-0.0204644040 0.0123805400 0 0
-0.0216504350 0.0114520290 0 0
-0.0227496910 0.0106223530 0 0
-0.0236649770 0.0099886530 0 0
-0.0243164920 0.0096287230 0 0
-0.0246508520 0.0095928900 0 0
-0.0246484270 0.0098992410 0 0
-0.0243262760 0.0105313990 0 0
-0.0237359330 0.0114384100 0 0
-0.0229567630 0.0125382340 0 0
-0.0220856410 0.0137266140 0 0
-0.0212259010 0.0148906930 0 0
-0.0204805360 0.0159240410 0 0
-0.0199497160 0.0167389470 0 0
-0.0197242220 0.0172731460 0 0
-0.0198682770 0.0174904620 0 0
-0.0203986800 0.0173779490 0 0
-0.0212741930 0.0169437470 0 0
-0.0224015840 0.0162179030 0 0
-0.0236544790 0.0152545280 0 0
-0.0248974960 0.0141315370 0 0
-0.0260089470 0.0129452190 0 0
-0.0268964870 0.0118002190 0 0
-0.0275021200 0.0107983250 0 0
-0.0277986340 0.0100284880 0 0
-0.0277844820 0.0095579430 0 0
-0.0274818310 0.0094242940 0 0
-0.0269359490 0.0096301090 0 0
-0.0262122200 0.0101414490 0 0
-0.0253895760 0.0108904270 0 0
-0.0245507030 0.0117817720 0 0
-0.0237711790 0.0127034540 0 0
-0.0231119020 0.0135399540 0 0
-0.0226168870 0.0141856980 0 0
-0.0223129540 0.0145566400 0 0
-0.0222076090 0.0145983920 0 0
-0.0222867150 0.0142903110 0 0
-0.0225156640 0.0136464520 0 0
-0.0228446160 0.0127143450 0 0
-0.0232160370 0.0115715730 0 0
-0.0235726000 0.0103198690 0 0
-0.0238640440 0.0090766100 0 0
-0.0240520830 0.0079637420 0 0
-0.0241127860 0.0070946590 0 0
-0.0240366180 0.0065603260 0 0
-0.0238270800 0.0064171390 0 0
-0.0234985580 0.0066794340 0 0
-0.0230737270 0.0073174350 0 0
-0.0225813100 0.0082599890 0 0
-0.0220553390 0.0094024670 0 0
-0.0215359510 0.0106198630 0 0
-0.0210689690 0.0117823290 0 0
-0.0207010990 0.0127692520 0 0
-0.0204726550 0.0134803200 0 0
-0.0204136110 0.0138440280 0 0
-0.0205447510 0.0138234100 0 0
-0.0208796710 0.0134180480 0 0
-0.0214230520 0.0126625080 0 0
-0.0221652170 0.0116220800 0 0
-0.0230776470 0.0103861790 0 0
-0.0241143590 0.0090600900 0 0
-0.0252180650 0.0077561480 0 0
-0.0263242880 0.0065842970 0 0
-0.0273599930 0.0056416230 0 0
-0.0282425150 0.0050023550 0 0
-0.0288861630 0.0047112420 0 0
-0.0292162360 0.0047815700 0 0
-0.0291850490 0.0051963740 0 0
-0.0287846920 0.0059109330 0 0
-0.0280517720 0.0068563680 0 0
-0.0270620850 0.0079457480 0 0
-0.0259184690 0.0090833900 0 0
-0.0247371100 0.0101758890 0 0
-0.0236355050 0.0111420970 0 0
-0.0227229720 0.0119197650 0 0
-0.0220930180 0.0124682690 0 0
-0.0218164320 0.0127688600 0 0
-0.0219348200 0.0128243370 0 0
-0.0224553020 0.0126587590 0 0
-0.0233476440 0.0123164120 0 0
-0.0245448190 0.0118588770 0 0
-0.0259473640 0.0113594630 0 0
-0.0274319470 0.0108952600 0 0
-0.0288649070 0.0105379930 0 0
-0.0301197540 0.0103451890 -1 0
-0.0310942730 0.0103532950 -1 0
-0.0317225440 0.0105738810 -1 0
-0.0319806750 0.0109925400 -1 0
-0.0318872720 0.0115693280 -1 0
-0.0314987210 0.0122409570 -1 0
-0.0308991540 0.0129259410 -1 0
-0.0301869200 0.0135330040 -1 0
-0.0294605750 0.0139719680 0 0
-0.0288073750 0.0141659210 0 0
-0.0282967470 0.0140624700 0 0
-0.0279789310 0.0136416580 0 0
-0.0278858310 0.0129191220 0 0
-0.0280306270 0.0119442660 0 0
-0.0284049050 0.0107943490 0 0
-0.0289749400 0.0095664970 0 0
-0.0296803730 0.0083690480 0 0
-0.0304376900 0.0073124130 -1 0
-0.0311488040 0.0064993640 -1 0
-0.0317133720 0.0060150470 -1 0
-0.0320424750 0.0059173010 -1 0
-0.0320702590 0.0062285000 -1 0
-0.0317605180 0.0069308520 -1 0
-0.0311092290 0.0079668060 -1 0
-0.0301473550 0.0092446600 -1 0
-0.0289437730 0.0106474580 0 0
-0.0276018460 0.0120434640 0 0
-0.0262462840 0.0132984900 0 0
-0.0250052930 0.0142904410 0 0
-0.0239944180 0.0149234860 0 0
-0.0233039690 0.0151376910 0 0
-0.0229893340 0.0149127690 0 0
-0.0230644690 0.0142679480 0 0
-0.0235007270 0.0132597850 0 0
-0.0242328200 0.0119775650 0 0
-0.0251703090 0.0105353550 0 0
-0.0262101210 0.0090608390 0 0
-0.0272464790 0.0076821620 0 0
-0.0281778120 0.0065149960 0 0
-0.0289122620 0.0056522910 0 0
-0.0293730540 0.0051582430 0 0
-0.0295043990 0.0050663260 0 0
-0.0292780400 0.0053793570 0 0
-0.0286991990 0.0060694400 0 0
-0.0278088680 0.0070781510 0 0
-0.0266798990 0.0083194660 0 0
-0.0254071020 0.0096869710 0 0
-0.0240937180 0.0110644840 0 0
-0.0228380860 0.0123378840 0 0
-0.0217249210 0.0134058820 0 0
-0.0208224510 0.0141884400 0 0
-0.0201823730 0.0146328410 0 0
-0.0198389940 0.0147173950 0 0
-0.0198062980 0.0144522230 0 0
-0.0200741130 0.0138775020 0 0
-0.0206056080 0.0130604350 0 0
-0.0213375700 0.0120910850 0 0
-0.0221837270 0.0110758040 0 0
-0.0230413480 0.0101273480 0 0
-0.0238020740 0.0093526430 0 0
-0.0243674200 0.0088399550 0 0
-0.0246661640 0.0086474670 0 0
-0.0246677370 0.0087958910 0 0
-0.0243867860 0.0092669190 0 0
-0.0238788170 0.0100068380 0 0
-0.0232297530 0.0109335960 0 0
-0.0225417780 0.0119465620 0 0
-0.0219172260 0.0129380560 0 0
-0.0214434980 0.0138041430 0 0
-0.0211822880 0.0144524850 0 0
-0.0211645400 0.0148079230 0 0
-0.0213904910 0.0148178550 0 0
-0.0218331130 0.0144579400 0 0
-0.0224439750 0.0137367920 0 0
-0.0231609270 0.0126980650 0 0
-0.0239156610 0.0114186670 0 0
-0.0246390420 0.0100027080 0 0
-0.0252644270 0.0085715450 0 0
-0.0257306590 0.0072507710 0 0
-0.0259858730 0.0061560650 0 0
-0.0259921760 0.0053805070 0 0
-0.0257305610 0.0049855160 0 0
-0.0252044980 0.0049967400 0 0
-0.0244401410 0.0054049720 0 0
-0.0234835180 0.0061701930 0 0
-0.0223986640 0.0072261550 0 0
-0.0212685640 0.0084845530 0 0
-0.0201942020 0.0098399230 0 0
-0.0192859710 0.0111766580 0 0
-0.0186488030 0.0123786700 0 0
-0.0183684040 0.0133417460 0 0
-0.0185029170 0.0139872220 0 0
-0.0190763850 0.0142728450 0 0
-0.0200692230 0.0141964980 0 0
-0.0214093540 0.0137922870 0 0
-0.0229744150 0.0131227700 0 0
-0.0246107810 0.0122713200 0 0
-0.0261632550 0.0113354040 0 0
-0.0275020020 0.0104196850 0 0
-0.0285368810 0.0096285830 0 0
-0.0292193780 0.0090579420 0 0
-0.0295387360 0.0087852640 0 0
-0.0295166120 0.0088597320 0 0
-0.0291996940 0.0092944430 0 0
-0.0286497210 0.0100624070 0 0
-0.0279333810 0.0110973350 0 0
-0.0271155260 0.0122999570 0 0
-0.0262574500 0.0135492650 0 0
-0.0254188930 0.0147165520 0 0
-0.0246599840 0.0156794550 0 0
-0.0240397210 0.0163340760 0 0
-0.0236099420 0.0166048990 0 0
-0.0234066330 0.0164525960 0 0
-0.0234423110 0.0158792120 0 0
-0.0237020940 0.0149296040 0 0
-0.0241436670 0.0136877290 0 0
-0.0247010980 0.0122675640 0 0
-0.0252931080 0.0108005700 0 0
-0.0258346840 0.0094223150 0 0
-0.0262485380 0.0082597010 0 0
-0.0264737490 0.0074190530 0 0
-0.0264720050 0.0069755980 0 0
-0.0262321890 0.0069657220 0 0
-0.0257722280 0.0073828830 0 0
-0.0251370260 0.0081771700 0 0
-0.0243921540 0.0092590350 0 0
-0.0236138260 0.0105083190 0 0
-0.0228774510 0.0117878860 0 0
-0.0222489430 0.0129592900 0 0
-0.0217817490 0.0138982230 0 0
-0.0215178380 0.0145080780 0 0
-0.0214875290 0.0147296910 0 0
-0.0217054320 0.0145457360 0 0
-0.0221649610 0.0139795520 0 0
-0.0228354330 0.0130897360 0 0
-0.0236630110 0.0119627580 0 0
-0.0245744020 0.0107050960 0 0
-0.0254824950 0.0094343410 0 0
-0.0262933750 0.0082684060 0 0
-0.0269143380 0.0073136020 0 0
-0.0272635760 0.0066534560 0 0
-0.0272815460 0.0063397000 0 0
-0.0269414750 0.0063867170 0 0
-0.0262560930 0.0067707690 0 0
-0.0252803150 0.0074344820 0 0
-0.0241110060 0.0082956060 0 0
-0.0228805230 0.0092573030 0 0
-0.0217368180 0.0102167720 0 0
-0.0208116960 0.0110711810 0 0
-0.0201928480 0.0117229750 0 0
-0.0199135700 0.0120867870 0 0
-0.0199587840 0.0120974880 0 0
-0.0202777770 0.0117174730 0 0
-0.0207976540 0.0109420640 0 0
-0.0214361300 0.0098026210 0 0
-0.0221125470 0.0083669670 0 0
-0.0227556060 0.0067363670 0 0
-0.0233076360 0.0050380740 0 0
-0.0237257780 0.0034134920 0 0
-0.0239805090 0.0020034690 0 0
-0.0240536560 0.0009324290 0 0
-0.0239383330 0.0002928710 0 0
-0.0236395780 0.0001332200 0 0
-0.0231730490 0.0004527710 0 0
-0.0225626080 0.0012046530 0 0
-0.0218393670 0.0023042440 0 0
-0.0210422430 0.0036401580 0 0
-0.0202185380 0.0050863480 0 0
-0.0194238090 0.0065142480 0 0
-0.0187204210 0.0078036460 0 0
-0.0181730250 0.0088510640 0 0
-0.0178400950 0.0095757670 0 0
-0.0177639260 0.0099248850 0 0
-0.0179631270 0.0098786400 0 0
-0.0184287480 0.0094552310 0 0
-0.0191221730 0.0087136800 0 0
-0.0199752440 0.0077519270 0 0
-0.0208972390 0.0066974220 0 0
-0.0217905870 0.0056898090 0 0
-0.0225695870 0.0048596310 0 0
-0.0231738360 0.0043099830 0 0
-0.0235718850 0.0041059460 0 0
-0.0237560250 0.0042715500 0 0
-0.0237338510 0.0047912020 0 0
-0.0235230610 0.0056131200 0 0
-0.0231509310 0.0066545270 0 0
-0.0226552340 0.0078097560 0 0
-0.0220846890 0.0089610890 0 0
-0.0214995990 0.0099900080 0 0
-0.0209716220 0.0107869000 0 0
-0.0205789970 0.0112591600 0 0
-0.0203952860 0.0113388270 0 0
-0.0204748180 0.0109903730 0 0
-0.0208410830 0.0102174190 0 0
-0.0214818710 0.0090656860 0 0
-0.0223497210 0.0076200260 0 0
-0.0233651960 0.0059952490 0 0
-0.0244244770 0.0043225450 0 0
-0.0254141200 0.0027346770 0 0
-0.0262303110 0.0013528290 0 0
-0.0267944560 0.0002760120 0 0
-0.0270595740 -0.0004275260 0 0
-0.0270097710 -0.0007266330 0 0
-0.0266576030 -0.0006296110 0 0
-0.0260400050 -0.0001813070 0 0
-0.0252118690 0.0005443250 0 0
-0.0242400090 0.0014540660 0 0
-0.0232016640 0.0024458840 0 0
-0.0221873190 0.0034189230 0 0
-0.0213016980 0.0042819750 0 0
-0.0206543900 0.0049597920 0 0
-0.0203371700 0.0053974250 0 0
-0.0203970130 0.0055631020 0 0
-0.0208200470 0.0054503300 0 0
-0.0215341930 0.0050796230 0 0
-0.0224262430 0.0044990830 0 0
-0.0233643160 0.0037823340 0 0
-0.0242186870 0.0030230360 0 0
-0.0248777330 0.0023260630 0 0
-0.0252587290 0.0017957500 0 0
-0.0253144660 0.0015224420 0 0
-0.0250363000 0.0015699380 0 0
-0.0244526610 0.0019667290 0 0
-0.0236213260 0.0027026150 0 0
-0.0226166460 0.0037306920 0 0
-0.0215181510 0.0049734700 0 0
-0.0204062490 0.0063308440 0 0
-0.0193622110 0.0076882210 0 0
-0.0184652800 0.0089253510 0 0
-0.0177852350 0.0099272710 0 0
-0.0173748730 0.0105967700 0 0
-0.0172659830 0.0108660060 0 0
-0.0174679260 0.0107053560 0 0
-0.0179667820 0.0101286050 0 0
-0.0187256980 0.0091934910 0 0
-0.0196880560 0.0079963840 0 0
-0.0207825580 0.0066611660 0 0
-0.0219285330 0.0053245770 0 0
-0.0230421450 0.0041212900 0 0
-0.0240447450 0.0031712810 0 0
-0.0248716100 0.0025698350 0 0
-0.0254776170 0.0023784840 0 0
-0.0258386870 0.0026169650 0 0
-0.0259506380 0.0032594480 0 0
-0.0258273720 0.0042375120 0 0
-0.0254988930 0.0054487050 0 0
-0.0250091970 0.0067679670 0 0
-0.0244138040 0.0080605420 0 0
-0.0237758580 0.0091962550 0 0
-0.0231607080 0.0100645310 0 0
-0.0226326510 0.0105881580 0 0
-0.0222560330 0.0107326830 0 0
-0.0220931670 0.0105086730 0 0
-0.0221887940 0.0099660890 0 0
-0.0225461100 0.0091830620 0 0
-0.0231136760 0.0082537950 0 0
-0.0237947770 0.0072796790 0 0
-0.0244719280 0.0063638200 0 0
-0.0250314540 0.0056063450 0 0
-0.0253792930 0.0050982140 0 0
-0.0254483600 0.0049129050 0 0
-0.0252007740 0.0050968930 0 0
-0.0246270230 0.0056613220 0 0
-0.0237445370 0.0065777700 0 0
-0.0225978690 0.0077798680 0 0
-0.0212589890 0.0091704100 0 0
-0.0198237490 0.0106321500 0 0
-0.0184023750 0.0120400580 0 0
-0.0171047310 0.0132729780 0 0
-0.0160240610 0.0142238010 0 0
-0.0152247840 0.0148084710 0 0
-0.0147378190 0.0149740610 0 0
-0.0145623750 0.0147051700 0 0
-0.0146707350 0.0140273950 0 0
-0.0150133660 0.0130066350 0 0
-0.0155236880 0.0117435280 0 0
-0.0161230320 0.0103629590 0 0
-0.0167267880 0.0089996350 0 0
-0.0172527000 0.0077822320 0 0
-0.0176308430 0.0068200080 0 0
-0.0178125700 0.0061942360 0 0
-0.0177754780 0.0059532680 0 0
-0.0175240060 0.0061094330 0 0
-0.0170868870 0.0066386510 0 0
-0.0165113370 0.0074840180 0 0
-0.0158536120 0.0085624380 0 0
-0.0151690640 0.0097721220 0 0
-0.0145065850 0.0109997010 0 0
-0.0139093340 0.0121268930 0 0
-0.0134187140 0.0130378350 0 0
-0.0130754740 0.0136288890 0 0
-0.0129141120 0.0138212360 0 0
-0.0129534710 0.0135733760 0 0
-0.0131906480 0.0128894890 0 0
-0.0136027330 0.0118210900 0 0
-0.0141541680 0.0104614500 0 0
-0.0148035340 0.0089342110 0 0
-0.0155059560 0.0073788370 0 0
-0.0162126890 0.0059353390 0 0
-0.0168716450 0.0047299070 0 0
-0.0174305720 0.0038625410 0 0
-0.0178418680 0.0033978040 0 0
-0.0180677590 0.0033598860 0 0
-0.0180854070 0.0037325590 0 0
-0.0178919210 0.0044631120 0 0
-0.0175085530 0.0054686500 0 0
-0.0169820180 0.0066439510 0 0
-0.0163813610 0.0078704650 0 0
-0.0157905800 0.0090255180 0 0
-0.0152976480 0.0099914360 0 0
-0.0149808120 0.0106657480 0 0
-0.0148947810 0.0109725110 0 0
-0.0150613470 0.0108720990 0 0
-0.0154680780 0.0103666990 0 0
-0.0160753780 0.0095012610 0 0
-0.0168287420 0.0083607800 0 0
-0.0176696220 0.0070632040 0 0
-0.0185376860 0.0057463930 0 0
-0.0193642270 0.0045498790 0 0
-0.0200667590 0.0035956600 0 0
-0.0205554810 0.0029733250 0 0
-0.0207516870 0.0027331600 0 0
-0.0206078400 0.0028875290 0 0
-0.0201180130 0.0034170330 0 0
-0.0193157490 0.0042765920 0 0
-0.0182656450 0.0053990350 0 0
-0.0170557500 0.0066973610 0 0
-0.0157915390 0.0080680730 0 0
-0.0145882870 0.0093973330 0 0
-0.0135605160 0.0105704210 0 0
-0.0128106590 0.0114836340 0 0
-0.0124194260 0.0120562200 0 0
-0.0124381190 0.0122392710 0 0
-0.0128823240 0.0120204410 0 0
-0.0137280950 0.0114261490 0 0
-0.0149122290 0.0105220890 0 0
-0.0163368230 0.0094096220 0 0
-0.0178781330 0.0082159210 0 0
-0.0193998600 0.0070795660 0 0
-0.0207686960 0.0061352550 0 0
-0.0218687300 0.0054997620 0 0
-0.0226137540 0.0052595280 0 0
-0.0229575330 0.0054601760 0 0
-0.0228996250 0.0060993000 0 0
-0.0224837910 0.0071244750 0 0
-0.0217887380 0.0084375510 0 0
-0.0209133130 0.0099054660 0 0
-0.0199592230 0.0113771170 0 0
-0.0190158140 0.0127034900 0 0
-0.0181515080 0.0137560950 0 0
-0.0174127610 0.0144397440 0 0
-0.0168272940 0.0146992630 0 0
-0.0164086670 0.0145222020 0 0
-0.0161607750 0.0139386430 0 0
-0.0160802180 0.0130172290 0 0
-0.0161556940 0.0118571640 0 0
-0.0163672800 0.0105775480 0 0
-0.0166881580 0.0093051300 0 0
-0.0170870330 0.0081612760 0 0
-0.0175295520 0.0072498410 0 0
-0.0179809430 0.0066479540 0 0
-0.0184118190 0.0064007150 0 0
-0.0188039340 0.0065193610 0 0
-0.0191498420 0.0069813670 0 0
-0.0194458000 0.0077316930 0 0
-0.0196847340 0.0086863080 0 0
-0.0198553310 0.0097397710 0 0
-0.0199470820 0.0107771030 0 0
-0.0199578070 0.0116875340 0 0
-0.0198993790 0.0123762820 0 0
-0.0197976450 0.0127720280 0 0
-0.0196857170 0.0128306300 0 0
-0.0195945680 0.0125365440 0 0
-0.0195463470 0.0119023420 0 0
-0.0195514510 0.0109666200 0 0
-0.0196059920 0.0097915350 0 0
-0.0196893710 0.0084606530 0 0
-0.0197666120 0.0070761030 0 0
-0.0197969190 0.0057534610 0 0
-0.0197430310 0.0046131450 0 0
-0.0195765880 0.0037678070 0 0
-0.0192810950 0.0033068720 0 0
-0.0188551930 0.0032815800 0 0
-0.0183148890 0.0036950850 0 0
-0.0176923530 0.0045015330 0 0
-0.0170308050 0.0056146910 0 0
-0.0163768160 0.0069223200 0 0
-0.0157737470 0.0083008950 0 0
-0.0152600940 0.0096278150 0 0
-0.0148715790 0.0107917980 0 0
-0.0146421220 0.0117026440 0 0
-0.0146013510 0.0122992980 0 0
-0.0147700830 0.0125541150 0 0
-0.0151556380 0.0124727870 0 0
-0.0157483310 0.0120910610 0 0
-0.0165202210 0.0114697000 0 0
-0.0174260400 0.0106884450 0 0
-0.0184056590 0.0098385180 0 0
-0.0193875900 0.0090133770 0 0
-0.0202927580 0.0082992910 0 0
-0.0210388730 0.0077680480 0 0
-0.0215479820 0.0074727190 0 0
-0.0217586670 0.0074453910 0 0
-0.0216394100 0.0076948140 0 0
-0.0211965220 0.0082032310 0 0
-0.0204727410 0.0089245950 0 0
-0.0195395860 0.0097867370 0 0
-0.0184911910 0.0106971840 0 0
-0.0174429420 0.0115510450 0 0
-0.0165286530 0.0122415790 0 0
-0.0158876720 0.0126748170 0 0
-0.0156415700 0.0127855700 0 0
-0.0158680970 0.0125478810 0 0
-0.0165810120 0.0119755300 0 0
-0.0177225000 0.0111150770 0 0
-0.0191720030 0.0100369840 0 0
-0.0207693430 0.0088280680 0 0
-0.0223436760 0.0075855670 0 0
-0.0237379670 0.0064117700 0 0
-0.0248233760 0.0054080350 0 0
-0.0255054680 0.0046672970 0 0
-0.0257279320 0.0042649570 0 0
-0.0254764990 0.0042489860 0 0
-0.0247792640 0.0046309320 0 0
-0.0236996050 0.0053799090 0 0
-0.0223258470 0.0064213920 0 0
-0.0207640200 0.0076421960 0 0
-0.0191327030 0.0089025990 0 0
-0.0175550690 0.0100545690 0 0
-0.0161469510 0.0109620510 0 0
-0.0150035720 0.0115183060 0 0
-0.0141884600 0.0116568040 0 0
-0.0137268040 0.0113548720 0 0
-0.0136038830 0.0106317880 0 0
-0.0137687810 0.0095442190 0 0
-0.0141438010 0.0081808350 0 0
-0.0146389200 0.0066551930 0 0
-0.0151677520 0.0050949570 0 0
-0.0156592020 0.0036277940 0 0
-0.0160608550 0.0023669200 0 0
-0.0163355660 0.0013994560 0 0
-0.0164567580 0.0007789590 0 0
-0.0164075610 0.0005217450 0 0
-0.0161847810 0.0006066710 0 0
-0.0158041120 0.0009786990 0 0
-0.0153019410 0.0015556210 0 0
-0.0147325010 0.0022365760 0 0
-0.0141619790 0.0029118490 0 0
-0.0136602450 0.0034739960 0 0
-0.0132915600 0.0038291050 0 0
-0.0131074250 0.0039061520 0 0
-0.0131420850 0.0036634480 0 0
-0.0134081250 0.0030924200 0 0
-0.0138919550 0.0022187600 0 0
-0.0145525250 0.0011004160 0 0
-0.0153258290 -0.0001774770 0 0
-0.0161340330 -0.0015101520 0 0
-0.0168965360 -0.0027828470 0 0
-0.0175421730 -0.0038815470 0 0
-0.0180223150 -0.0047030380 0 0
-0.0183206420 -0.0051635850 0 0
-0.0184513030 -0.0052071750 0 0
-0.0184423010 -0.0048135210 0 0
-0.0183145840 -0.0040043430 0 0
-0.0180733220 -0.0028457030 0 0
-0.0177160950 -0.0014449730 0 0
-0.0172474990 0.0000580105 0 0
-0.0166888560 0.0015050000 0 0
-0.0160807790 0.0027364670 0 0
-0.0154801220 0.0036089960 0 0
-0.0149513610 0.0040106550 0 0
-0.0145541490 0.0038725750 0 0
-0.0143320050 0.0031758440 0 0
-0.0143063840 0.0019539490 0 0
-0.0144770350 0.0002903770 0 0
-0.0148263810 -0.0016897410 0 0
-0.0153241420 -0.0038337450 0 0
-0.0159300910 -0.0059785550 0 0
-0.0165953870 -0.0079673240 0 0
-0.0172640270 -0.0096634950 0 0
-0.0178766120 -0.0109614940 0 0
-0.0183780050 -0.0117937810 0 0
-0.0187267470 -0.0121341500 0 0
-0.0189012730 -0.0119970520 0 0
-0.0188999890 -0.0114330420 0 0
-0.0187371630 -0.0105211330 0 0
-0.0184395350 -0.0093593330 0 0
-0.0180465650 -0.0080548730 0 0
-0.0176120580 -0.0067157560 0 0
-0.0172023480 -0.0054439600 0 0
-0.0168883790 -0.0043289290 0 0
-0.0167329210 -0.0034406100 0 0
-0.0167771150 -0.0028235730 0 0
-0.0170312730 -0.0024936310 0 0
-0.0174729330 -0.0024363410 0 0
-0.0180515700 -0.0026072490 0 0
-0.0186966270 -0.0029360910 0 0
-0.0193258000 -0.0033360250 0 0
-0.0198534950 -0.0037152940 0 0
-0.0202010150 -0.0039879820 0 0
-0.0203077040 -0.0040824230 0 0
-0.0201401010 -0.0039470320 0 0
-0.0196979150 -0.0035543710 0 0
-0.0190173720 -0.0029046170 0 0
-0.0181693890 -0.0020278530 0 0
-0.0172472460 -0.0009836290 0 0
-0.0163448720 0.0001425730 0 0
-0.0155366320 0.0012457190 0 0
-0.0148683720 0.0022106160 0 0
-0.0143595270 0.0029240210 0 0
-0.0140103370 0.0032878270 0 0
-0.0138093140 0.0032312480 0 0
-0.0137387940 0.0027203990 0 0
-0.0137788500 0.0017640600 0 0
-0.0139104210 0.0004148860 0 0
-0.0141161670 -0.0012341120 0 0
-0.0143772700 -0.0030582520 0 0
-0.0146688480 -0.0049148460 0 0
-0.0149593430 -0.0066592200 0 0
-0.0152152230 -0.0081594350 0 0
-0.0154077330 -0.0093077360 0 0
-0.0155188390 -0.0100286750 0 0
-0.0155454320 -0.0102844800 0 0
-0.0155002980 -0.0100781890 0 0
-0.0154082240 -0.0094548930 0 0
-0.0152982380 -0.0085003500 0 0
-0.0151964050 -0.0073348400 0 0
-0.0151237720 -0.0061005710 0 0
-0.0151001080 -0.0049440990 0 0
-0.0151493970 -0.0039980510 0 0
-0.0153019730 -0.0033663220 0 0
-0.0155908090 -0.0031146490 0 0
-0.0160431310 -0.0032667870 0 0
-0.0166709760 -0.0038056590 0 0
-0.0174645430 -0.0046780490 0 0
-0.0183901030 -0.0058012470 0 0
-0.0193914020 -0.0070708200 0 0
-0.0203929830 -0.0083688590 0 0
-0.0213063070 -0.0095722220 0 0
-0.0220408910 -0.0105620330 0 0
-0.0225196860 -0.0112356280 0 0
-0.0226935870 -0.0115188890 0 0
-0.0225499170 -0.0113751730 0 0
-0.0221132940 -0.0108090040 0 0
-0.0214408310 -0.0098649390 0 0
-0.0206148450 -0.0086226610 0 0
-0.0197330530 -0.0071895770 0 0
-0.0188923640 -0.0056922060 0 0
-0.0181674570 -0.0042662920 0 0
-0.0175957340 -0.0030445760 0 0
-0.0171791990 -0.0021422640 0 0
-0.0169000740 -0.0016427240 0 0
-0.0167378370 -0.0015869170 0 0
-0.0166791080 -0.0019687040 0 0
-0.0167189250 -0.0027361740 0 0
-0.0168549800 -0.0037980870 0 0
-0.0170777680 -0.0050342700 0 0
-0.0173614390 -0.0063089350 0 0
-0.0176602810 -0.0074855720 0 0
-0.0179142730 -0.0084411530 0 0
-0.0180631030 -0.0090777060 0 0
-0.0180621080 -0.0093309500 0 0
-0.0178915200 -0.0091760390 0 0
-0.0175560080 -0.0086294800 0 0
-0.0170792310 -0.0077465730 0 0
-0.0164990920 -0.0066149010 0 0
-0.0158653670 -0.0053447550 0 0
-0.0152392600 -0.0040573230 0 0
-0.0146936540 -0.0028721110 0 0
-0.0143106980 -0.0018955180 0 0
-0.0141729820 -0.0012115710 0 0
-0.0143480610 -0.0008746310 0 0
-0.0148709780 -0.0009042600 0 0
-0.0157310770 -0.0012835880 0 0
-0.0168669240 -0.0019616720 0 0
-0.0181705640 -0.0028585470 0 0
-0.0195019810 -0.0038720180 0 0
-0.0207122100 -0.0048870220 0 0
-0.0216680660 -0.0057882480 0 0
-0.0222700000 -0.0064743720 0 0
-0.0224605290 -0.0068704100 0 0
-0.0222267950 -0.0069355760 0 0
-0.0216002160 -0.0066665950 0 0
-0.0206524900 -0.0060970900 0 0
-0.0194865280 -0.0052927660 0 0
-0.0182230900 -0.0043426950 0 0
-0.0169858130 -0.0033488730 0 0
-0.0158873150 -0.0024164640 0 0
-0.0150180600 -0.0016453460 0 0
-0.0144393970 -0.0011219050 0 0
-0.0141810590 -0.0009105960 0 0
-0.0142414130 -0.0010467580 0 0
-0.0145897720 -0.0015327020 0 0
-0.0151719650 -0.0023375240 0 0
-0.0159195380 -0.0033996330 0 0
-0.0167606350 -0.0046308210 0 0
-0.0176277310 -0.0059220970 0 0
-0.0184564140 -0.0071526030 0 0
-0.0191766110 -0.0082016490 0 0
-0.0197077750 -0.0089617740 0 0
-0.0199674150 -0.0093502080 0 0
-0.0198894650 -0.0093169650 0 0
-0.0194413490 -0.0088494570 0 0
-0.0186310390 -0.0079746190 0 0
-0.0175020810 -0.0067582760 0 0
-0.0161220480 -0.0053000620 0 0
-0.0145733220 -0.0037238470 0 0
-0.0129499410 -0.0021657680 0 0
-0.0113565910 -0.0007618290 0 0
-0.0099040720 0.0003640240 0 0
-0.0086992770 0.0011102600 0 0
-0.0078323140 0.0014058690 0 0
-0.0073655520 0.0012170940 0 0
-0.0073273660 0.0005532690 0 0
-0.0077095960 -0.0005308200 0 0
-0.0084672830 -0.0019394680 0 0
-0.0095223510 -0.0035471780 0 0
-0.0107741570 -0.0052126540 0 0
-0.0121153150 -0.0067923810 0 0
-0.0134461270 -0.0081528360 0 0
-0.0146827490 -0.0091816100 0 0
-0.0157600980 -0.0097976040 0 0
-0.0166324000 -0.0099594400 0 0
-0.0172727880 -0.0096703590 0 0
-0.0176729170 -0.0089782580 0 0
-0.0178431470 -0.0079705150 0 0
-0.0178129250 -0.0067641740 0 0
-0.0176305770 -0.0054930830 0 0
-0.0173612920 -0.0042940340 0 0
-0.0170817290 -0.0032931700 0 0
-0.0168702590 -0.0025937550 0 0
-0.0167943330 -0.0022667190 0 0
-0.0168991600 -0.0023445540 0 0
-0.0172002360 -0.0028179540 0 0
-0.0176783590 -0.0036355870 0 0
-0.0182770570 -0.0047089100 0 0
-0.0189067550 -0.0059226540 0 0
-0.0194594870 -0.0071485040 0 0
-0.0198328030 -0.0082588290 0 0
-0.0199549300 -0.0091391570 0 0
-0.0197983990 -0.0096997350 0 0
-0.0193745980 -0.0098863240 0 0
-0.0187171080 -0.0096885220 0 0
-0.0178690480 -0.0091424450 0 0
-0.0168796980 -0.0083257880 0 0
-0.0158051260 -0.0073461270 0 0
-0.0147086430 -0.0063253520 0 0
-0.0136606060 -0.0053839280 0 0
-0.0127362980 -0.0046279790 0 0
-0.0120107540 -0.0041403380 0 0
-0.0115513990 -0.0039748370 0 0
-0.0114096240 -0.0041526100 0 0
-0.0116129710 -0.0046607030 0 0
-0.0121612600 -0.0054548560 0 0
-0.0130282620 -0.0064667650 0 0
-0.0141660250 -0.0076132780 0 0
-0.0155078540 -0.0088044510 0 0
-0.0169692000 -0.0099491460 0 0
-0.0184491760 -0.0109590370 0 0
-0.0198363500 -0.0117531260 0 0
-0.0210200980 -0.0122636820 0 0
-0.0219054250 -0.0124424740 0 0
-0.0224279910 -0.0122654280 0 0
-0.0225665680 -0.0117352280 0 0
-0.0223493490 -0.0108831660 0 0
-0.0218505090 -0.0097707380 0 0
-0.0211775870 -0.0084885850 0 0
-0.0204543460 -0.0071501480 0 0
-0.0198031630 -0.0058801600 0 0
-0.0193288560 -0.0048005910 0 0
-0.0191059220 -0.0040168910 0 0
-0.0191715900 -0.0036058050 0 0
-0.0195255180 -0.0036054700 0 0
-0.0201344000 -0.0040094680 0 0
-0.0209381070 -0.0047664430 0 0
-0.0218555440 -0.0057848550 0 0
-0.0227926780 -0.0069418650 0 0
-0.0236564220 -0.0080961000 0 0
-0.0243722240 -0.0091035200 0 0
-0.0248963430 -0.0098342120 0 0
-0.0252144580 -0.0101882920 0 0
-0.0253280320 -0.0101092120 0 0
-0.0252398750 -0.0095915730 0 0
-0.0249497920 -0.0086808890 0 0
-0.0244612130 -0.0074658800 0 0
-0.0237927340 -0.0060663960 0 0
-0.0229882470 -0.0046197660 0 0
-0.0221202370 -0.0032671070 0 0
-0.0212825220 -0.0021408430 0 0
-0.0205738590 -0.0013543730 0 0
-0.0200786150 -0.0009935030 0 0
-0.0198510300 -0.0011089300 0 0
-0.0199072390 -0.0017105700 0 0
-0.0202262660 -0.0027652180 0 0
-0.0207575840 -0.0041982290 0 0
-0.0214305710 -0.0058993420 0 0
-0.0221626440 -0.0077324040 0 0
-0.0228661120 -0.0095476100 0 0
-0.0234551730 -0.0111942260 0 0
-0.0238529510 -0.0125326190 0 0
-0.0239977030 -0.0134454550 0 0
-0.0238481940 -0.0138482670 0 0
-0.0233878750 -0.0136988190 0 0
-0.0226268260 -0.0130032500 0 0
-0.0216016430 -0.0118171440 0 0
-0.0203736990 -0.0102412520 0 0
-0.0190255720 -0.0084123820 0 0
-0.0176558660 -0.0064899650 0 0
-0.0163724920 -0.0046392700 0 0
-0.0152838300 -0.0030129870 0 0
-0.0144874200 -0.0017335620 0 0
-0.0140574010 -0.0008792020 0 0
-0.0140340210 -0.0004764320 0 0
-0.0144189710 -0.0005007430 0 0
-0.0151773750 -0.0008844390 0 0
-0.0162438850 -0.0015284860 0 0
-0.0175292630 -0.0023152000 0 0
-0.0189260110 -0.0031203580 0 0
-0.0203150650 -0.0038249070 0 0
-0.0215766380 -0.0043266610 0 0
-0.0226052770 -0.0045509420 0 0
-0.0233254380 -0.0044574760 0 0
-0.0237025390 -0.0040421090 0 0
-0.0237462260 -0.0033343560 0 0
-0.0235053430 -0.0023921060 0 0
-0.0230554670 -0.0012941940 0 0
-0.0224814350 -0.0001319500 0 0
-0.0218611100 0.0009991290 0 0
-0.0212575700 0.0020068320 0 0
-0.0207203930 0.0028083700 0 0
-0.0202894410 0.0033355370 0 0
-0.0199952850 0.0035398000 0 0
-0.0198583850 0.0033976560 0 0
-0.0198935910 0.0029156640 0 0
-0.0201183340 0.0021336560 0 0
-0.0205525500 0.0011238170 0 0
-0.0212037040 -0.0000156248 0 0
-0.0220462950 -0.0011707110 0 0
-0.0230114760 -0.0022235220 0 0
-0.0239939360 -0.0030642200 0 0
-0.0248720430 -0.0036032450 0 0
-0.0255324280 -0.0037826240 0 0
-0.0258905030 -0.0035839920 0 0
-0.0259018120 -0.0030309620 0 0
-0.0255649190 -0.0021848930 0 0
-0.0249200850 -0.0011355690 0 0
-0.0240456900 0.0000100512 0 0
-0.0230498970 0.0011389870 0 0
-0.0220559740 0.0021432660 0 0
-0.0211852660 0.0029304350 0 0
-0.0205428930 0.0034315390 0 0
-0.0202064960 0.0036049490 0 0
-0.0202163440 0.0034366250 0 0
-0.0205680940 0.0029387240 0 0
-0.0212117940 0.0021478540 0 0
-0.0220593380 0.0011229590 0 0
-0.0229992780 -0.0000581112 0 0
-0.0239154480 -0.0013043250 0 0
-0.0247051760 -0.0025196420 0 0
-0.0252928580 -0.0036123630 0 0
-0.0256363840 -0.0045036450 0 0
-0.0257270150 -0.0051341740 0 0
-0.0255845510 -0.0054690230 0 0
-0.0252494310 -0.0055008640 0 0
-0.0247743190 -0.0052518420 0 0
-0.0242178660 -0.0047740300 0 0
-0.0236408620 -0.0041469200 0 0
-0.0231029250 -0.0034698710 0 0
-0.0226591820 -0.0028494760 0 0
-0.0223575580 -0.0023846630 0 0
-0.0222359170 -0.0021533330 0 0
-0.0223180600 -0.0022027640 0 0
-0.0226091510 -0.0025442100 0 0
-0.0230916370 -0.0031515530 0 0
-0.0237229250 -0.0039636980 0 0
-0.0244370930 -0.0048902770 0 0
-0.0251521730 -0.0058201850 0 0
-0.0257823440 -0.0066328370 0 0
-0.0262534870 -0.0072119350 0 0
-0.0265181190 -0.0074602760 0 0
-0.0265612790 -0.0073130070 0 0
-0.0263918880 -0.0067467930 0 0
-0.0260265810 -0.0057830150 0 0
-0.0254801250 -0.0044840910 0 0
-0.0247689960 -0.0029442520 0 0
-0.0239221110 -0.0012783920 0 0
-0.0229883350 0.0003878220 0 0
-0.0220352690 0.0019262130 0 0
-0.0211402440 0.0032138600 0 0
-0.0203779110 0.0041408090 0 0
-0.0198099320 0.0046175380 0 0
-0.0194803960 0.0045820230 0 0
-0.0194153630 0.0040055320 0 0
-0.0196221380 0.0028961060 0 0
-0.0200864990 0.0013000070 0 0
-0.0207699940 -0.0006981650 0 0
-0.0216105020 -0.0029773280 0 0
-0.0225271420 -0.0053853190 0 0
-0.0234280960 -0.0077489210 0 0
-0.0242194570 -0.0098883350 0 0
-0.0248145390 -0.0116347570 0 0
-0.0251438130 -0.0128491500 0 0
-0.0251643590 -0.0134399160 0 0
-0.0248662080 -0.0133759290 0 0
-0.0242731750 -0.0126907970 0 0
-0.0234376120 -0.0114758820 0 0
-0.0224314530 -0.0098636780 0 0
-0.0213373910 -0.0080078710 0 0
-0.0202416230 -0.0060670720 0 0
-0.0192273990 -0.0041938470 0 0
-0.0183697940 -0.0025250990 0 0
-0.0177323420 -0.0011708800 0 0
-0.0173637560 -0.0002038300 0 0
-0.0172922360 0.0003465450 0 0
-0.0175176400 0.0004931930 0 0
-0.0180048200 0.0002857150 0 0
-0.0186821510 -0.0001982090 0 0
-0.0194479130 -0.0008619410 0 0
-0.0201846900 -0.0015982080 0 0
-0.0207788310 -0.0022969290 0 0
-0.0211394000 -0.0028542560 0 0
-0.0212106480 -0.0031839390 0 0
-0.0209755900 -0.0032295010 0 0
-0.0204534570 -0.0029734110 0 0
-0.0196945310 -0.0024400480 0 0
-0.0187730300 -0.0016920710 0 0
-0.0177787280 -0.0008221500 0 0
-0.0168098420 0.0000578906 0 0
-0.0159684730 0.0008298910 0 0
-0.0153572530 0.0013844750 0 0
-0.0150736430 0.0016375610 0 0
-0.0151975260 0.0015445390 0 0
-0.0157722150 0.0011071430 0 0
-0.0167868940 0.0003707040 0 0
-0.0181700930 -0.0005859320 0 0
-0.0197978780 -0.0016636390 0 0
-0.0215145740 -0.0027568680 0 0
-0.0231599360 -0.0037661550 0 0
-0.0245935700 -0.0046062730 0 0
-0.0257089900 -0.0052095000 0 0
-0.0264363020 -0.0055277860 0 0
-0.0267387770 -0.0055365500 0 0
-0.0266100570 -0.0052382690 0 0
-0.0260753170 -0.0046631280 0 0
-0.0251946220 -0.0038666670 0 0
-0.0240638470 -0.0029256340 0 0
-0.0228092100 -0.0019319640 0 0
-0.0215745140 -0.0009840160 0 0
-0.0205029390 -0.0001757750 0 0
-0.0197163260 0.0004130470 0 0
-0.0192966360 0.0007235550 0 0
-0.0192757460 0.0007212770 0 0
-0.0196366780 0.0003983370 0 0
-0.0203228450 -0.0002261670 0 0
-0.0212480000 -0.0011081070 0 0
-0.0223033690 -0.0021812700 0 0
-0.0233661890 -0.0033606090 0 0
-0.0243154790 -0.0045475810 0 0
-0.0250535010 -0.0056392200 0 0
-0.0255234680 -0.0065400740 0 0
-0.0257141000 -0.0071743580 0 0
-0.0256490390 -0.0074956140 0 0
-0.0253677540 -0.0074921640 0 0
-0.0249091050 -0.0071878470 0 0
-0.0243059770 -0.0066382140 0 0
-0.0235909990 -0.0059223980 0 0
-0.0228059450 -0.0051317730 0 0
-0.0220066070 -0.0043579770 0 0
-0.0212601510 -0.0036830190 0 0
-0.0206372120 -0.0031731580 0 0
-0.0202019450 -0.0028766410 0 0
-0.0200023440 -0.0028238810 0 0
-0.0200634780 -0.0030280850 0 0
-0.0203860700 -0.0034849830 0 0
-0.0209500080 -0.0041711540 0 0
-0.0217192940 -0.0050413740 0 0
-0.0226458100 -0.0060269530 0 0
-0.0236731020 -0.0070380760 0 0
-0.0247423300 -0.0079720260 0 0
-0.0257980070 -0.0087263440 0 0
-0.0267874470 -0.0092138710 0 0
-0.0276534090 -0.0093764290 0 0
-0.0283295920 -0.0091944740 0 0
-0.0287483110 -0.0086905840 0 0
-0.0288586090 -0.0079262270 0 0
-0.0286447930 -0.0069933050 0 0
-0.0281354980 -0.0060022280 0 0
-0.0273997220 -0.0050674290 0 0
-0.0265337050 -0.0042926620 0 0
-0.0256453090 -0.0037597170 0 0
-0.0248403290 -0.0035222810 0 0
-0.0242114540 -0.0036043210 0 0
-0.0238288230 -0.0040024090 0 0
-0.0237323110 -0.0046910210 0 0
-0.0239269840 -0.0056278370 0 0
-0.0243821390 -0.0067560610 0 0
-0.0250338660 -0.0080035740 0 0
-0.0257920390 -0.0092814890 0 0
-0.0265515910 -0.0104854170 0 0
-0.0272054590 -0.0115015380 0 0
-0.0276569140 -0.0122175390 0 0
-0.0278306500 -0.0125369410 0 0
-0.0276825560 -0.0123939980 0 0
-0.0272077330 -0.0117653460 0 0
-0.0264450390 -0.0106750040 0 0
-0.0254748780 -0.0091917410 0 0
-0.0244085380 -0.0074206050 0 0
-0.0233721500 -0.0054912520 0 0
-0.0224903150 -0.0035445360 0 0
-0.0218714250 -0.0017179120 0 0
-0.0215948150 -0.0001310550 0 0
-0.0217016880 0.0011255180 0 0
-0.0221911620 0.0019960660 0 0
-0.0230209060 0.0024591010 0 0
-0.0241128290 0.0025233830 0 0
-0.0253639650 0.0022235370 0 0
-0.0266593590 0.0016164300 0 0
-0.0278840530 0.0007783320 0 0
-0.0289353710 -0.0001973140 0 0
-0.0297372810 -0.0012030710 0 0
-0.0302523820 -0.0021244390 -1 0
-0.0304822870 -0.0028520650 -1 0
-0.0304538190 -0.0032973900 -1 0
-0.0302009470 -0.0034070210 -1 0
-0.0297546660 -0.0031708330 0 0
-0.0291427810 -0.0026217350 0 0
-0.0283937700 -0.0018286990 0 0
-0.0275410610 -0.0008860500 0 0
-0.0266271040 0.0000983203 0 0
-0.0257047820 0.0010141150 0 0
-0.0248329760 0.0017590970 0 0
-0.0240669650 0.0022493230 0 0
-0.0234485250 0.0024285640 0 0
-0.0230007790 0.0022757830 0 0
-0.0227287590 0.0018094830 0 0
-0.0226221120 0.0010872270 0 0
-0.0226557390 0.0001986640 0 0
-0.0227881560 -0.0007470330 0 0
-0.0229613600 -0.0016357960 0 0
-0.0231059210 -0.0023624570 0 0
-0.0231517790 -0.0028428040 0 0
-0.0230414790 -0.0030230110 0 0
-0.0227413820 -0.0028846750 0 0
-0.0222483690 -0.0024442590 0 0
-0.0215913620 -0.0017477750 0 0
-0.0208272310 -0.0008630250 0 0
-0.0200317660 0.0001278670 0 0
-0.0192881630 0.0011340610 0 0
-0.0186754060 0.0020607030 0 0
-0.0182573700 0.0028152130 0 0
-0.0180736830 0.0033161780 0 0
-0.0181342640 0.0035039350 0 0
-0.0184185800 0.0033511750 0 0
-0.0188798020 0.0028709170 0 0
-0.0194537580 0.0021185930 0 0
-0.0200709880 0.0011863420 0 0
-0.0206677850 0.0001904010 0 0
-0.0211909200 -0.0007450670 0 0
-0.0215943170 -0.0015036640 0 0
-0.0218336270 -0.0019893890 0 0
-0.0218670240 -0.0021358860 0 0
-0.0216638260 -0.0019127780 0 0
-0.0212159420 -0.0013289790 0 0
-0.0205469310 -0.0004322830 0 0
-0.0197149440 0.0006945830 0 0
-0.0188066730 0.0019404160 0 0
-0.0179234270 0.0031744710 0 0
-0.0171646530 0.0042589450 0 0
-0.0166142670 0.0050645910 0 0
-0.0163338490 0.0054865570 0 0
-0.0163648960 0.0054571680 0 0
-0.0167370310 0.0049543450 0 0
-0.0174729460 0.0040059440 0 0
-0.0185813560 0.0026892560 0 0
-0.0200391480 0.0011228990 0 0
-0.0217749040 -0.0005499950 0 0
-0.0236665140 -0.0021825430 0 0
-0.0255558150 -0.0036411320 0 0
-0.0272730380 -0.0048150760 0 0
-0.0286611410 -0.0056212850 0 0
-0.0295948580 -0.0060080890 0 0
-0.0299948550 -0.0059597270 0 0
-0.0298376330 -0.0054994720 0 0
-0.0291599130 -0.0046881130 0 0
-0.0280560470 -0.0036169560 0 0
-0.0266677930 -0.0023980550 0 0
-0.0251665040 -0.0011546500 0 0
-0.0237297570 -0.0000120199 0 0
-0.0225170260 0.0009125820 0 0
-0.0216495610 0.0015212120 0 0
-0.0211978730 0.0017465410 0 0
-0.0211787890 0.0015608960 0 0
-0.0215620740 0.0009802160 0 0
-0.0222828010 0.0000614088 0 0
-0.0232539160 -0.0011056390 0 0
-0.0243758540 -0.0024084630 0 0
-0.0255440220 -0.0037227540 0 0
-0.0266564720 -0.0049231250 0 0
-0.0276214990 -0.0058934680 0 0
-0.0283625500 -0.0065355020 0 0
-0.0288203380 -0.0067753580 0 0
-0.0289552440 -0.0065700170 0 0
-0.0287512220 -0.0059139210 0 0
-0.0282195390 -0.0048429300 0 0
-0.0274007880 -0.0034327110 0 0
-0.0263647710 -0.0017912410 0 0
-0.0252079310 -0.0000472099 0 0
-0.0240472230 0.0016631910 0 0
-0.0230089800 0.0032085390 0 0
-0.0222129500 0.0044721420 0 0
-0.0217542860 0.0053603910 0 0
-0.0216873660 0.0058107650 0 0
-0.0220151880 0.0057992780 0 0
-0.0226880550 0.0053458800 0 0
-0.0236130200 0.0045156770 0 0
-0.0246710670 0.0034137550 0 0
-0.0257373680 0.0021732690 0 0
-0.0267018060 0.0009396970 0 0
-0.0274860890 -0.0001448500 0 0
-0.0280497350 -0.0009560020 0 0
-0.0283801250 -0.0014008020 0 0
-0.0284741710 -0.0014293900 0 0
-0.0283261250 -0.0010412890 0 0
-0.0279295310 -0.0002839520 0 0
-0.0272904970 0.0007557190 0 0
-0.0264423930 0.0019638000 0 0
-0.0254510510 0.0032121310 0 0
-0.0244066590 0.0043699370 0 0
-0.0234078230 0.0053153600 0 0
-0.0225446590 0.0059483240 0 0
-0.0218841720 0.0062038870 0 0
-0.0214612010 0.0060627500 0 0
-0.0212786940 0.0055550030 0 0
-0.0213158490 0.0047549770 0 0
-0.0215374470 0.0037686820 0 0
-0.0219002100 0.0027180760 0 0
-0.0223573180 0.0017258450 0 0
-0.0228624940 0.0009021890 0 0
-0.0233727210 0.0003347250 0 0
-0.0238488870 0.0000829272 0 0
-0.0242552620 0.0001770230 0 0
-0.0245592990 0.0006192660 0 0
-0.0247333820 0.0013856730 0 0
-0.0247596440 0.0024277150 0 0
-0.0246367530 0.0036741630 0 0
-0.0243853100 0.0050342540 0 0
-0.0240485380 0.0064038670 0 0
-0.0236876880 0.0076747580 0 0
-0.0233741220 0.0087444060 0 0
-0.0231798540 0.0095241960 0 0
-0.0231669670 0.0099461000 0 0
-0.0233770420 0.0099691430 0 0
-0.0238232400 0.0095852930 0 0
-0.0244877880 0.0088226240 0 0
-0.0253256730 0.0077442780 0 0
-0.0262724940 0.0064435470 0 0
-0.0272531810 0.0050359710 0 0
-0.0281900720 0.0036487820 0 0
-0.0290111140 0.0024080970 0 0
-0.0296592030 0.0014255350 0 0
-0.0301009020 0.0007863140 -1 0
-0.0303306540 0.0005404770 -1 0
-0.0303684730 0.0006989240 -1 0
-0.0302530990 0.0012348150 -1 0
-0.0300348360 0.0020885080 -1 0
-0.0297711250 0.0031737330 0 0
-0.0295244750 0.0043850290 0 0
-0.0293593440 0.0056079990 0 0
-0.0293336180 0.0067320700 0 0
-0.0294830450 0.0076622270 0 0
-0.0298049200 0.0083262590 0 0
-0.0302535370 0.0086778130 -1 0
-0.0307530590 0.0086979970 -1 0
-0.0312192970 0.0083971720 -1 0
-0.0315777590 0.0078160260 -1 0
-0.0317729230 0.0070239880 -1 0
-0.0317702220 0.0061139630 -1 0
-0.0315530200 0.0051938610 -1 0
-0.0311176250 0.0043763920 -1 0
-0.0304711950 0.0037680720 -1 0
-0.0296344190 0.0034570860 0 0
-0.0286444060 0.0035007720 0 0
-0.0275522430 0.0039161160 0 0
-0.0264157590 0.0046761860 0 0
-0.0252927430 0.0057127920 0 0
-0.0242386590 0.0069245680 0 0
-0.0233087820 0.0081889890 0 0
-0.0225610130 0.0093755280 0 0
-0.0220543610 0.0103574810 0 0
-0.0218411930 0.0110219670 0 0
-0.0219566410 0.0112790070 0 0
-0.0224095030 0.0110710960 0 0
-0.0231761800 0.0103835430 0 0
-0.0241995820 0.0092527450 0 0
-0.0253962550 0.0077671150 0 0
-0.0266701200 0.0060577860 0 0
-0.0279254330 0.0042817870 0 0
-0.0290741020 0.0026025250 0 0
-0.0300392490 0.0011702870 -1 0
-0.0307579980 0.0001045580 -1 0
-0.0311831630 -0.0005185840 -1 0
-0.0312835650 -0.0006704970 -1 0
-0.0310458700 -0.0003658320 -1 0
-0.0304801040 0.0003451610 -1 0
-0.0296252020 0.0013835010 0 0
-0.0285484330 0.0026472540 0 0
-0.0273377960 0.0040188960 0 0
-0.0260923400 0.0053759170 0 0
-0.0249140940 0.0066033570 0 0
-0.0239010360 0.0076058030 0 0
-0.0231407940 0.0083171960 0 0
-0.0227060910 0.0087070030 0 0
-0.0226492640 0.0087809890 0 0
-0.0229905040 0.0085757800 0 0
-0.0237017440 0.0081487380 0 0
-0.0246986600 0.0075665920 0 0
-0.0258511910 0.0068963480 0 0
-0.0270089820 0.0062004790 0 0
-0.0280291660 0.0055361600 0 0
-0.0287973020 0.0049559380 0 0
-0.0292390890 0.0045068190 0 0
-0.0293232810 0.0042267330 0 0
-0.0290577190 0.0041392950 0 0
-0.0284820870 0.0042483930 0 0
-0.0276601720 0.0045345190 0 0
-0.0266718270 0.0049543710 0 0
-0.0256050210 0.0054442640 0 0
-0.0245500010 0.0059267890 0 0
-0.0235962050 0.0063192510 0 0
-0.0228292090 0.0065421430 0 0
-0.0223243330 0.0065270940 0 0
-0.0221363560 0.0062244440 0 0
-0.0222895310 0.0056099250 0 0
-0.0227734160 0.0046890400 0 0
-0.0235446810 0.0034980400 0 0
-0.0245306950 0.0021016720 0 0
-0.0256342950 0.0005888800 0 0
-0.0267432120 -0.0009334770 0 0
-0.0277448330 -0.0023503170 0 0
-0.0285418350 -0.0035514510 0 0
-0.0290632560 -0.0044451510 0 0
-0.0292690570 -0.0049688480 0 0
-0.0291503900 -0.0050955810 0 0
-0.0287288110 -0.0048362330 0 0
-0.0280546760 -0.0042382450 0 0
-0.0272020380 -0.0033814760 0 0
-0.0262589880 -0.0023709970 0 0
-0.0253161430 -0.0013265150 0 0
-0.0244567120 -0.0003696610 0 0
-0.0237492100 0.0003889590 0 0
-0.0232429560 0.0008615340 0 0
-0.0229677310 0.0009922630 0 0
-0.0229387840 0.0007630100 0 0
-0.0231650590 0.0001953260 0 0
-0.0236537260 -0.0006510670 0 0
-0.0244032890 -0.0016843120 0 0
-0.0253865750 -0.0027919400 0 0
-0.0265367290 -0.0038561330 0 0
-0.0277487120 -0.0047686640 0 0
-0.0288970060 -0.0054424500 0 0
-0.0298610740 -0.0058189650 0 0
-0.0305483490 -0.0058718650 -1 0
-0.0309075590 -0.0056075830 -1 0
-0.0309309330 -0.0050633960 -1 0
-0.0306484980 -0.0043029170 -1 0
-0.0301184900 -0.0034089290 -1 0
-0.0294167890 -0.0024740180 0 0
-0.0286273630 -0.0015903640 0 0
-0.0278351700 -0.0008408460 0 0
-0.0271214740 -0.0002930650 0 0
-0.0265592510 0.0000037232 0 0
-0.0262068580 0.0000198933 0 0
-0.0261015310 -0.0002537600 0 0
-0.0262550720 -0.0008047590 0 0
-0.0266517200 -0.0015969440 0 0
-0.0272475230 -0.0025690250 0 0
-0.0279725130 -0.0036362330 0 0
-0.0287374090 -0.0046967720 0 0
-0.0294447670 -0.0056425980 0 0
-0.0300031360 -0.0063723250 -1 0
-0.0303421780 -0.0068036840 -1 0
-0.0304250050 -0.0068833230 -1 0
-0.0302528840 -0.0065927610 -1 0
-0.0298609300 -0.0059502480 0 0
-0.0293086860 -0.0050083510 0 0
-0.0286698630 -0.0038473340 0 0
-0.0280222620 -0.0025655730 0 0
-0.0274388710 -0.0012690720 0 0
-0.0269831420 -0.0000617133 0 0
-0.0267081370 0.0009628670 0 0
-0.0266536090 0.0017279380 0 0
-0.0268380450 0.0021794730 0 0
-0.0272512710 0.0022904640 0 0
-0.0278540280 0.0020623520 0 0
-0.0285840770 0.0015236370 0 0
-0.0293647270 0.0007272710 0 0
-0.0301132220 -0.0002524150 -1 0
-0.0307486310 -0.0013241480 -1 0
-0.0311994740 -0.0023862980 -1 0
-0.0314115380 -0.0033347670 -1 0
-0.0313568870 -0.0040706650 -1 0
-0.0310426170 -0.0045078050 -1 0
-0.0305116420 -0.0045815280 -1 0
-0.0298282250 -0.0042591890 0 0
-0.0290541660 -0.0035498160 0 0
-0.0282313450 -0.0025087780 0 0
-0.0273797080 -0.0012342440 0 0
-0.0265075220 0.0001450070 0 0
-0.0256251540 0.0014877790 0 0
-0.0247540770 0.0026602250 0 0
-0.0239274620 0.0035532530 0 0
-0.0231848850 0.0040947060 0 0
-0.0225654570 0.0042545210 0 0
-0.0221013620 0.0040430600 0 0
-0.0218124700 0.0035049210 0 0
-0.0217029160 0.0027111320 0 0
-0.0217596430 0.0017513290 0 0
-0.0219526080 0.0007258470 0 0
-0.0222376370 -0.0002626430 0 0
-0.0225628400 -0.0011178170 0 0
-0.0228770020 -0.0017585520 0 0
-0.0231369410 -0.0021276560 0 0
-0.0233121860 -0.0021991880 0 0
-0.0233873090 -0.0019824460 0 0
-0.0233626960 -0.0015214220 0 0
-0.0232541140 -0.0008900600 0 0
-0.0230910470 -0.0001847510 0 0
-0.0229132400 0.0004848490 0 0
-0.0227642890 0.0010072220 0 0
-0.0226826240 0.0012834110 0 0
-0.0226933020 0.0012426230 0 0
-0.0228044710 0.0008543130 0 0
-0.0230092040 0.0001327930 0 0
-0.0232899160 -0.0008661400 0 0
-0.0236213540 -0.0020545300 0 0
-0.0239707260 -0.0033247990 0 0
-0.0242976040 -0.0045627730 0 0
-0.0245565760 -0.0056590920 0 0
-0.0247023300 -0.0065181570 0 0
-0.0246949770 -0.0070646360 0 0
-0.0245044150 -0.0072479250 0 0
-0.0241137370 -0.0070457260 0 0
-0.0235214030 -0.0064675630 0 0
-0.0227419590 -0.0055566490 0 0
-0.0218063720 -0.0043879620 0 0
-0.0207624780 -0.0030623830 0 0
-0.0196736920 -0.0016973750 0 0
-0.0186138100 -0.0004144260 0 0
-0.0176583370 0.0006745300 0 0
-0.0168756520 0.0014779590 0 0
-0.0163212090 0.0019310640 0 0
-0.0160351990 0.0019986490 0 0
-0.0160427520 0.0016763340 0 0
-0.0163562290 0.0009910740 0 0
-0.0169766940 0.0000002125 0 0
-0.0178884280 -0.0012128530 0 0
-0.0190456050 -0.0025469140 0 0
-0.0203616120 -0.0038931640 0 0
-0.0217129500 -0.0051448420 0 0
-0.0229577680 -0.0062049970 0 0
-0.0239593310 -0.0069926500 0 0
-0.0246061870 -0.0074483810 0 0
-0.0248263960 -0.0075398490 0 0
-0.0245959740 -0.0072666320 0 0
-0.0239415300 -0.0066630500 0 0
-0.0229364460 -0.0057976930 0 0
-0.0216906220 -0.0047685790 0 0
-0.0203354750 -0.0036936450 0 0
-0.0190073330 -0.0026977470 0 0
-0.0178330850 -0.0018982580 0 0
-0.0169205420 -0.0013912630 0 0
-0.0163525800 -0.0012400590 0 0
-0.0161823820 -0.0014672220 0 0
-0.0164285520 -0.0020512610 0 0
-0.0170709550 -0.0029289220 0 0
-0.0180495390 -0.0040029470 0 0
-0.0192685500 -0.0051536890 0 0
-0.0206070670 -0.0062525460 0 0
-0.0219340690 -0.0071746960 0 0
-0.0231242170 -0.0078090520 0 0
-0.0240716360 -0.0080662490 0 0
-0.0247010420 -0.0078871440 0 0
-0.0249747540 -0.0072513990 0 0
-0.0248934300 -0.0061825450 0 0
-0.0244911260 -0.0047468050 0 0
-0.0238287410 -0.0030459460 0 0
-0.0229882820 -0.0012063750 0 0
-0.0220657160 0.0006332670 0 0
-0.0211605060 0.0023348190 0 0
-0.0203648110 0.0037727890 0 0
-0.0197565800 0.0048451010 0 0
-0.0193969310 0.0054818410 0 0
-0.0193286950 0.0056521670 0 0
-0.0195727590 0.0053693150 0 0
-0.0201221010 0.0046920400 0 0
-0.0209375050 0.0037197510 0 0
-0.0219488270 0.0025809010 0 0
-0.0230619670 0.0014176000 0 0
-0.0241696590 0.0003699470 0 0
-0.0251644850 -0.0004381950 0 0
-0.0259532130 -0.0009109280 0 0
-0.0264711920 -0.0009887730 0 0
-0.0266925250 -0.0006546090 0 0
-0.0266295680 0.0000620109 0 0
-0.0263208450 0.0010839730 0 0
-0.0258157090 0.0022930270 0 0
-0.0251653640 0.0035449140 0 0
-0.0244221470 0.0046898820 0 0
-0.0236419970 0.0055929460 0 0
-0.0228849080 0.0061493530 0 0
-0.0222119480 0.0062936290 0 0
-0.0216796270 0.0060033510 0 0
-0.0213325440 0.0052996210 0 0
-0.0211958890 0.0042448100 0 0
-0.0212700780 0.0029364360 0 0
-0.0215294260 0.0014963590 0 0
-0.0219251060 0.0000566171 0 0
-0.0223911950 -0.0012550120 0 0
-0.0228527500 -0.0023267170 0 0
-0.0232357330 -0.0030705430 0 0
-0.0234776940 -0.0034276900 0 0
-0.0235356550 -0.0033728790 0 0
-0.0233880150 -0.0029176800 0 0
-0.0230322160 -0.0021106980 0 0
-0.0224827730 -0.0010327130 0 0
-0.0217711680 0.0002126700 0 0
-0.0209453840 0.0015101210 0 0
-0.0200664060 0.0027431540 0 0
-0.0192010920 0.0038038690 0 0
-0.0184135810 0.0046019010 0 0
-0.0177579810 0.0050712910 0 0
-0.0172739280 0.0051741920 0 0
-0.0169857080 0.0049026680 0 0
-0.0169038360 0.0042805140 0 0
-0.0170259270 0.0033644650 0 0
-0.0173343270 0.0022419210 0 0
-0.0177913850 0.0010231010 0 0
-0.0183367710 -0.0001713170 0 0
-0.0188912470 -0.0012235990 0 0
-0.0193668920 -0.0020308280 0 0
-0.0196796990 -0.0025143510 0 0
-0.0197606180 -0.0026261780 0 0
-0.0195636440 -0.0023522020 0 0
-0.0190714740 -0.0017129190 0 0
-0.0182993520 -0.0007618280 0 0
-0.0172965570 0.0004193950 0 0
-0.0161442130 0.0017289550 0 0
-0.0149480970 0.0030539730 0 0
-0.0138258470 0.0042785200 0 0
-0.0128909860 0.0052916690 0 0
-0.0122395430 0.0059971840 0 0
-0.0119429330 0.0063238900 0 0
-0.0120451330 0.0062346170 0 0
-0.0125605560 0.0057325650 0 0
-0.0134720380 0.0048640530 0 0
-0.0147308200 0.0037157520 0 0
-0.0162614380 0.0024055250 0 0
-0.0179740970 0.0010686520 0 0
-0.0197807450 -0.0001581080 0 0
-0.0216030090 -0.0011530890 0 0
-0.0233654010 -0.0018247160 0 0
-0.0249835820 -0.0021217630 0 0
-0.0263630940 -0.0020370540 0 0
-0.0274127830 -0.0016053680 0 0
-0.0280652030 -0.0008977710 0 0
-0.0282944250 -0.0000139245 0 0
-0.0281258050 0.0009279720 0 0
-0.0276362560 0.0018038640 0 0
-0.0269452900 0.0024972370 0 0
-0.0261968840 0.0029105680 0 0
-0.0255333760 0.0029740870 0 0
-0.0250675440 0.0026531830 0 0
-0.0248628790 0.0019546260 0 0
-0.0249287200 0.0009288430 0 0
-0.0252287550 -0.0003342970 0 0
-0.0256965970 -0.0017157630 0 0
-0.0262524010 -0.0030814860 0 0
-0.0268161150 -0.0042976210 0 0
-0.0273151010 -0.0052441210 0 0
-0.0276873510 -0.0058251140 0 0
-0.0278835670 -0.0059765560 0 0
-0.0278696750 -0.0056719590 0 0
-0.0276288590 -0.0049255150 0 0
-0.0271626360 -0.0037909530 0 0
-0.0264919760 -0.0023556140 0 0
-0.0256583550 -0.0007314690 0 0
-0.0247222430 0.0009545620 0 0
-0.0237570470 0.0025706020 0 0
-0.0228389620 0.0039914070 0 0
-0.0220355610 0.0051113940 0 0
-0.0213971060 0.0058563320 0 0
-0.0209531370 0.0061906860 0 0
-0.0207133690 0.0061195630 0 0
-0.0206700140 0.0056859930 0 0
-0.0207994600 0.0049650450 0 0
-0.0210628050 0.0040561420 0 0
-0.0214064650 0.0030740290 0 0
-0.0217658000 0.0021380990 0 0
-0.0220733300 0.0013606040 0 0
-0.0222682520 0.0008354270 0 0
-0.0223020920 0.0006287340 0 0
-0.0221398040 0.0007718960 0 0
-0.0217601920 0.0012573500 0 0
-0.0211590830 0.0020387450 0 0
-0.0203548380 0.0030361200 0 0
-0.0193926390 0.0041453420 0 0
-0.0183444350 0.0052508090 0 0
-0.0173053730 0.0062405030 0 0
-0.0163885550 0.0070210600 0 0
-0.0157148010 0.0075287440 0 0
-0.0153919950 0.0077328290 0 0
-0.0154883780 0.0076316290 0 0
-0.0160138650 0.0072455490 0 0
-0.0169182510 0.0066117650 0 0
-0.0181029110 0.0057819420 0 0
-0.0194382040 0.0048214110 0 0
-0.0207822290 0.0038075220 0 0
-0.0219995270 0.0028262720 0 0
-0.0229775710 0.0019674880 0 0
-0.0236378820 0.0013186970 0 0
-0.0239406550 0.0009575580 0 0
-0.0238850190 0.0009432110 0 0
-0.0235075600 0.0013076550 0 0
-0.0228787590 0.0020492490 0 0
-0.0220941300 0.0031305650 0 0
-0.0212587110 0.0044810940 0 0
-0.0204708260 0.0060031450 0 0
-0.0198135760 0.0075790830 0 0
-0.0193541320 0.0090799220 0 0
-0.0191434490 0.0103766000 0 0
-0.0192124290 0.0113543600 0 0
-0.0195670260 0.0119281050 0 0
-0.0201859800 0.0120547950 0 0
-0.0210228980 0.0117396790 0 0
-0.0220125800 0.0110350820 0 0
-0.0230796010 0.0100324610 0 0
-0.0241457210 0.0088499270 0 0
-0.0251338280 0.0076173220 0 0
-0.0259696630 0.0064607190 0 0
-0.0265857340 0.0054890240 0 0
-0.0269302260 0.0047851030 0 0
-0.0269779980 0.0044015890 0 0
-0.0267376580 0.0043598600 0 0
-0.0262518280 0.0046507630 0 0
-0.0255923000 0.0052365280 0 0
-0.0248514320 0.0060537940 0 0
-0.0241290130 0.0070180310 0 0
-0.0235167970 0.0080303850 0 0
-0.0230870710 0.0089878030 0 0
-0.0228884460 0.0097949800 0 0
-0.0229455440 0.0103744860 0 0
-0.0232583370 0.0106727660 0 0
-0.0238007500 0.0106628570 0 0
-0.0245212790 0.0103458270 0 0
-0.0253493500 0.0097517610 0 0
-0.0262087680 0.0089396030 0 0
-0.0270335650 0.0079941630 0 0
-0.0277762690 0.0070189760 0 0
-0.0284015220 0.0061251760 0 0
-0.0288707980 0.0054175400 0 0
-0.0291333740 0.0049797060 0 0
-0.0291315810 0.0048624910 0 0
-0.0288148740 0.0050788330 0 0
-0.0281538760 0.0056052840 0 0
-0.0271497980 0.0063869010 0 0
-0.0258388240 0.0073428920 0 0
-0.0242935600 0.0083730160 0 0
-0.0226220510 0.0093664460 0 0
-0.0209601490 0.0102136070 0 0
-0.0194538210 0.0108191660 0 0
-0.0182358980 0.0111132160 0 0
-0.0174066140 0.0110583530 0 0
-0.0170234160 0.0106523670 0 0
-0.0170987470 0.0099279870 0 0
-0.0176023700 0.0089506230 0 0
-0.0184671960 0.0078136180 0 0
-0.0195985460 0.0066303640 0 0
-0.0208850150 0.0055239940 0 0
-0.0222087760 0.0046160290 0 0
-0.0234550910 0.0040143130 0 0
-0.0245217850 0.0038002790 0 0
-0.0253280040 0.0040171120 0 0
-0.0258206860 0.0046617910 0 0
-0.0259785460 0.0056837780 0 0
-0.0258141400 0.0069918500 0 0
-0.0253730910 0.0084680600 0 0
-0.0247296370 0.0099849730 0 0
-0.0239790160 0.0114213860 0 0
-0.0232270320 0.0126731610 0 0
-0.0225773690 0.0136584610 0 0
-0.0221193280 0.0143193030 0 0
-0.0219183400 0.0146225500 0 0
-0.0220086120 0.0145620420 0 0
-0.0223873390 0.0141608010 0 0
-0.0230129630 0.0134710430 0 0
-0.0238102650 0.0125707730 0 0
-0.0246821250 0.0115571090 0 0
-0.0255255340 0.0105375240 0 0
-0.0262485010 0.0096210040 0 0
-0.0267830920 0.0089103950 0 0
-0.0270894200 0.0084950210 0 0
-0.0271499220 0.0084413180 0 0
-0.0269607340 0.0087815360 0 0
-0.0265281360 0.0095043540 0 0
-0.0258708470 0.0105521910 0 0
-0.0250232510 0.0118270510 0 0
-0.0240362850 0.0132032310 0 0
-0.0229766220 0.0145435730 0 0
-0.0219249280 0.0157163480 0 0
-0.0209710320 0.0166103540 0 0
-0.0202037880 0.0171464360 0 0
-0.0196978270 0.0172845030 0 0
-0.0195017600 0.0170255950 0 0
-0.0196303290 0.0164092620 0 0
-0.0200615340 0.0155079670 0 0
-0.0207394760 0.0144199360 0 0
-0.0215819210 0.0132600950 0 0
-0.0224905430 0.0121484620 0 0
-0.0233633490 0.0111971150 0 0
-0.0241089040 0.0104982290 0 0
-0.0246588730 0.0101153610 0 0
-0.0249739890 0.0100787800 0 0
-0.0250420400 0.0103841780 0 0
-0.0248715500 0.0109938090 0 0
-0.0244867730 0.0118400870 0 0
-0.0239268590 0.0128321800 0 0
-0.0232464110 0.0138654810 0 0
-0.0225119640 0.0148325660 0 0
-0.0217927520 0.0156336030 0 0
-0.0211497940 0.0161849970 0 0
-0.0206290220 0.0164265680 0 0
-0.0202611310 0.0163277170 0 0
-0.0200658120 0.0158920330 0 0
-0.0200550740 0.0151589120 0 0
-0.0202322670 0.0142007540 0 0
-0.0205881010 0.0131155910 0 0
-0.0210973820 0.0120166000 0 0
-0.0217190040 0.0110200340 0 0
-0.0224003700 0.0102328730 0 0
-0.0230863930 0.0097421300 0 0
-0.0237305040 0.0096072970 0 0
-0.0243018660 0.0098555300 0 0
-0.0247843540 0.0104787030 0 0
-0.0251692480 0.0114326030 0 0
-0.0254481940 0.0126390960 0 0
-0.0256118840 0.0139920830 0 0
-0.0256555090 0.0153678270 0 0
-0.0255879870 0.0166389160 0 0
-0.0254393650 0.0176898040 0 0
-0.0252611460 0.0184309550 0 0
-0.0251175800 0.0188078020 0 0
-0.0250703580 0.0188022990 0 0
-0.0251625550 0.0184288190 0 0
-0.0254079210 0.0177278490 0 0
-0.0257881150 0.0167594050 0 0
-0.0262564480 0.0155969760 0 0
-0.0267452390 0.0143229150 0 0
-0.0271752790 0.0130254570 0 0
-0.0274671930 0.0117960170 0 0
-0.0275534220 0.0107248200 0 0
-0.0273885340 0.0098936070 0 0
-0.0269567750 0.0093655970 0 0
-0.0262760860 0.0091747330 0 0
-0.0253962920 0.0093177790 0 0
-0.0243906030 0.0097524850 0 0
-0.0233437580 0.0104024560 0 0
-0.0223414120 0.0111670360 0 0
-0.0214627590 0.0119336960 0 0
-0.0207758620 0.0125900800 0 0
-0.0203349210 0.0130334190 0 0
-0.0201789060 0.0131774550 0 0
-0.0203299580 0.0129592000 0 0
-0.0207898240 0.0123469530 0 0
-0.0215345870 0.0113480670 0 0
-0.0225099990 0.0100132130 0 0
-0.0236304080 0.0084348300 0 0
-0.0247842020 0.0067398090 0 0
-0.0258478760 0.0050776610 0 0
-0.0267074300 0.0036047670 0 0
-0.0272798270 0.0024656540 0 0
-0.0275249400 0.0017743200 0 0
-0.0274444870 0.0015998350 0 0
-0.0270727430 0.0019587100 0 0
-0.0264663910 0.0028140970 0 0
-0.0256972490 0.0040811810 0 0
-0.0248464140 0.0056376810 0 0
-0.0239969540 0.0073373510 0 0
-0.0232256510 0.0090240560 0 0
-0.0225972950 0.0105450230 0 0
-0.0221627760 0.0117633880 0 0
-0.0219572770 0.0125713010 0 0
-0.0219958020 0.0129033950 0 0
-0.0222697490 0.0127468260 0 0
-0.0227487570 0.0121428650 0 0
-0.0233853660 0.0111782280 0 0
-0.0241184370 0.0099693150 0 0
-0.0248771990 0.0086451680 0 0
-0.0255895470 0.0073332880 0 0
-0.0261931520 0.0061491070 0 0
-0.0266454190 0.0051887690 0 0
-0.0269283560 0.0045251350 0 0
-0.0270440230 0.0042055410 0 0
-0.0270016900 0.0042489200 0 0
-0.0268068060 0.0046416540 0 0
-0.0264606010 0.0053342990 0 0
-0.0259685480 0.0062424250 0 0
-0.0253503880 0.0072536500 0 0
-0.0246463970 0.0082401840 0 0
-0.0239171460 0.0090739450 0 0
-0.0232361990 0.0096417130 0 0
-0.0226786450 0.0098593850 0 0
-0.0223109850 0.0096835060 0 0
-0.0221855360 0.0091164030 0 0
-0.0223373290 0.0082030980 0 0
-0.0227798520 0.0070226530 0 0
-0.0234993610 0.0056781040 0 0
-0.0244506320 0.0042868700 0 0
-0.0255575750 0.0029715250 0 0
-0.0267215110 0.0018509130 0 0
-0.0278372270 0.0010314360 0 0
-0.0288114500 0.0005972710 0 0
-0.0295753900 0.0005995830 0 0
-0.0300867480 0.0010482600 -1 0
-0.0303240620 0.0019097070 -1 0
-0.0302809060 0.0031105960 -1 0
-0.0299653280 0.0045454690 0 0
-0.0294036850 0.0060867200 0 0
-0.0286437680 0.0075959320 0 0
-0.0277531660 0.0089358130 0 0
-0.0268131240 0.0099827030 0 0
-0.0259104270 0.0106390130 0 0
-0.0251284420 0.0108436220 0 0
-0.0245380040 0.0105784580 0 0
-0.0241910110 0.0098708970 0 0
-0.0241193910 0.0087920980 0 0
-0.0243354510 0.0074504260 0 0
-0.0248249880 0.0059788870 0 0
-0.0255335550 0.0045181580 0 0
-0.0263601120 0.0031998390 0 0
-0.0271697680 0.0021337880 0 0
-0.0278215000 0.0014005590 0 0
-0.0281977530 0.0010484660 0 0
-0.0282255050 0.0010939410 0 0
-0.0278845770 0.0015227070 0 0
-0.0272046520 0.0022899760 0 0
-0.0262560210 0.0033210290 0 0
-0.0251383220 0.0045152820 0 0
-0.0239671000 0.0057544230 0 0
-0.0228566660 0.0069124440 0 0
-0.0219024090 0.0078665140 0 0
-0.0211684490 0.0085097950 0 0
-0.0206834790 0.0087656060 0 0
-0.0204441090 0.0085985320 0 0
-0.0204229270 0.0080178220 0 0
-0.0205775210 0.0070728430 0 0
-0.0208584220 0.0058447500 0 0
-0.0212154440 0.0044384940 0 0
-0.0216014770 0.0029756710 0 0
-0.0219743320 0.0015857070 0 0
-0.0222991320 0.0003933400 0 0
-0.0225513790 -0.0004966790 0 0
-0.0227176620 -0.0010139790 0 0
-0.0227926110 -0.0011312140 0 0
-0.0227754270 -0.0008641190 0 0
-0.0226707090 -0.0002649250 0 0
-0.0224939310 0.0005863400 0 0
-0.0222764130 0.0015904670 0 0
-0.0220644220 0.0026380750 0 0
-0.0219124100 0.0036193700 0 0
-0.0218749490 0.0044338670 0 0
-0.0220002440 0.0049991130 0 0
-0.0223235980 0.0052577550 0 0
-0.0228600580 0.0051822990 0 0
-0.0235994760 0.0047772210 0 0
-0.0245058480 0.0040790120 0 0
-0.0255187650 0.0031544610 0 0
-0.0265563210 0.0020962440 0 0
-0.0275226260 0.0010147060 0 0
-0.0283213730 0.0000260204 0 0
-0.0288718130 -0.0007619230 0 0
-0.0291215900 -0.0012634470 0 0
-0.0290531200 -0.0014256770 0 0
-0.0286842230 -0.0012334370 0 0
-0.0280663130 -0.0007079200 0 0
-0.0272810400 0.0000993759 0 0
-0.0264313060 0.0011142440 0 0
-0.0256228570 0.0022464040 0 0
-0.0249408270 0.0033954320 0 0
-0.0244332180 0.0044576350 0 0
-0.0241095940 0.0053344090 0 0
-0.0239522760 0.0059418020 0 0
-0.0239310960 0.0062214870 0 0
-0.0240134730 0.0061517900 0 0
-0.0241657160 0.0057544870 0 0
-0.0243475470 0.0050938000 0 0
-0.0245071630 0.0042681360 0 0
-0.0245839060 0.0033970450 0 0
-0.0245198800 0.0026055580 0 0
-0.0242755180 0.0020083280 0 0
-0.0238410350 0.0016966530 0 0
-0.0232374100 0.0017308210 0 0
-0.0225069180 0.0021376300 0 0
-0.0216999810 0.0029101690 0 0
-0.0208664030 0.0040070840 0 0
-0.0200541450 0.0053518920 0 0
-0.0193124960 0.0068357270 0 0
-0.0186938900 0.0083260780 0 0
-0.0182506490 0.0096810000 0 0
-0.0180276780 0.0107657020 0 0
-0.0180550300 0.0114678420 0 0
-0.0183432280 0.0117091140 0 0
-0.0188819550 0.0114527270 0 0
-0.0196416700 0.0107071810 0 0
-0.0205770780 0.0095259300 0 0
-0.0216305410 0.0080020030 0 0
-0.0227339990 0.0062580320 0 0
-0.0238110140 0.0044337560 0 0
-0.0247821900 0.0026731680 0 0
-0.0255743200 0.0011119970 0 0
-0.0261299330 -0.0001344090 0 0
-0.0264142300 -0.0009814550 0 0
-0.0264187400 -0.0013822470 0 0
-0.0261624960 -0.0013310470 0 0
-0.0256913340 -0.0008635380 0 0
-0.0250744620 -0.0000530704 0 0
-0.0243970310 0.0009975860 0 0
-0.0237494790 0.0021673940 0 0
-0.0232167640 0.0033288310 0 0
-0.0228703980 0.0043593100 0 0
-0.0227636870 0.0051523330 0 0
-0.0229292100 0.0056282760 0 0
-0.0233781470 0.0057438590 0 0
-0.0241012560 0.0054985570 0 0
-0.0250715760 0.0049362960 0 0
-0.0262491150 0.0041414370 0 0
-0.0275847040 0.0032283190 0 0
-0.0290173900 0.0023250690 0 0
-0.0304653510 0.0015556420 -1 0
-0.0318201830 0.0010251980 -1 0
-0.0329555550 0.0008109270 -1 0
-0.0337506050 0.0009572530 -1 0
-0.0341164870 0.0014736960 -1 0
-0.0340126100 0.0023347440 -1 0
-0.0334478570 0.0034823470 -1 0
-0.0324723030 0.0048320650 -1 0
-0.0311676570 0.0062827070 -1 0
-0.0296395350 0.0077268940 0 0
-0.0280094680 0.0090596360 0 0
-0.0264044110 0.0101844420 0 0
-0.0249443700 0.0110182670 0 0
-0.0237303080 0.0114960110 0 0
-0.0228335540 0.0115750190 0 0
-0.0222872580 0.0112404280 0 0
-0.0220819270 0.0105107400 0 0
-0.0221681600 0.0094405710 0 0
-0.0224675560 0.0081177430 0 0
-0.0228883210 0.0066545770 0 0
-0.0233392520 0.0051755730 0 0
-0.0237385050 0.0038042800 0 0
-0.0240197170 0.0026515330 0 0
-0.0241386530 0.0018058230 0 0
-0.0240772210 0.0013257450 0 0
-0.0238401130 0.0012349650 0 0
-0.0234464810 0.0015203770 0 0
-0.0229237690 0.0021334930 0 0
-0.0223072570 0.0029952750 0 0
-0.0216438360 0.0040045300 0 0
-0.0209960030 0.0050484410 0 0
-0.0204405410 0.0060132800 0 0
-0.0200583300 0.0067947750 0 0
-0.0199185620 0.0073079710 0 0
-0.0200653300 0.0074951630 0 0
-0.0205120100 0.0073309610 0 0
-0.0212438040 0.0068253130 0 0
-0.0222251900 0.0060252390 0 0
-0.0234070470 0.0050138880 0 0
-0.0247287850 0.0039039980 0 0
-0.0261144240 0.0028244070 0 0
-0.0274674600 0.0019021480 0 0
-0.0286729340 0.0012453570 0 0
-0.0296109220 0.0009307670 0 0
-0.0301769970 0.0009959590 -1 0
-0.0303015230 0.0014352980 -1 0
-0.0299622300 0.0022003980 0 0
-0.0291880780 0.0032067470 0 0
-0.0280545780 0.0043454860 0 0
-0.0266722870 0.0054971440 0 0
-0.0251710120 0.0065448410 0 0
-0.0236828530 0.0073861460 0 0
-0.0223275860 0.0079428780 0 0
-0.0212027960 0.0081676990 0 0
-0.0203790850 0.0080469890 0 0
-0.0198983060 0.0076004210 0 0
-0.0197718030 0.0068778860 0 0
-0.0199778780 0.0059541100 0 0
-0.0204612650 0.0049213900 0 0
-0.0211383830 0.0038814610 0 0
-0.0219093280 0.0029375510 0 0
-0.0226725890 0.0021870670 0 0
-0.0233364790 0.0017141090 0 0
-0.0238254720 0.0015808080 0 0
-0.0240843300 0.0018193590 0 0
-0.0240817520 0.0024285560 0 0
-0.0238117210 0.0033752580 0 0
-0.0232912160 0.0045978090 0 0
-0.0225564540 0.0060100310 0 0
-0.0216604680 0.0075072880 0 0
-0.0206709050 0.0089751060 0 0
-0.0196645420 0.0102987670 0 0
-0.0187184680 0.0113729250 0 0
-0.0179018890 0.0121120760 0 0
-0.0172710120 0.0124616860 0 0
-0.0168652030 0.0124062540 0 0
-0.0167020940 0.0119703130 0 0
-0.0167728710 0.0112128340 0 0
-0.0170408100 0.0102191970 0 0
-0.0174442230 0.0090934470 0 0
-0.0179030020 0.0079498370 0 0
-0.0183279700 0.0069019350 0 0
-0.0186325440 0.0060502340 0 0
-0.0187451900 0.0054713430 0 0
-0.0186199280 0.0052108200 0 0
-0.0182429300 0.0052799450 0 0
-0.0176355670 0.0056565260 0 0
-0.0168554570 0.0062896340 0 0
-0.0159951580 0.0071069720 0 0
-0.0151750300 0.0080229680 0 0
-0.0145260410 0.0089462820 0 0
-0.0141628720 0.0097855720 0 0
-0.0141564850 0.0104532740 0 0
-0.0145203180 0.0108698270 0 0
-0.0152166280 0.0109714150 0 0
-0.0161746690 0.0107209060 0 0
-0.0173071390 0.0101184510 0 0
-0.0185189250 0.0092076260 0 0
-0.0197106470 0.0080743200 0 0
-0.0207824410 0.0068380360 0 0
-0.0216423010 0.0056373730 0 0
-0.0222194010 0.0046124430 0 0
-0.0224772290 0.0038874670 0 0
-0.0224185770 0.0035568730 0 0
-0.0220783890 0.0036768490 0 0
-0.0215088260 0.0042617600 0 0
-0.0207656110 0.0052834620 0 0
-0.0199017450 0.0066727670 0 0
-0.0189683790 0.0083243000 0 0
-0.0180179370 0.0101059780 0 0
-0.0171051880 0.0118723270 0 0
-0.0162863570 0.0134795060 0 0
-0.0156182240 0.0147998830 0 0
-0.0151561390 0.0157346130 0 0
-0.0149479190 0.0162234630 0 0
-0.0150234470 0.0162510310 0 0
-0.0153840980 0.0158483660 0 0
-0.0159968010 0.0150898170 0 0
-0.0167949930 0.0140852520 0 0
-0.0176863370 0.0129675340 0 0
-0.0185657230 0.0118765240 0 0
-0.0193303500 0.0109429240 0 0
-0.0198934680 0.0102746710 0 0
-0.0201953490 0.0099463580 0 0
-0.0202105510 0.0099919290 0 0
-0.0199491030 0.0104018720 0 0
-0.0194515680 0.0111262890 0 0
-0.0187825140 0.0120837980 0 0
-0.0180252940 0.0131737310 0 0
-0.0172750610 0.0142880810 0 0
-0.0166271650 0.0153215490 0 0
-0.0161646020 0.0161803410 0 0
-0.0159504060 0.0167903230 0 0
-0.0160251360 0.0171037520 0 0
-0.0164048660 0.0171031630 0 0
-0.0170780730 0.0168014330 0 0
-0.0180052290 0.0162382220 0 0
-0.0191238690 0.0154745340 0 0
-0.0203565620 0.0145876010 0 0
-0.0216174840 0.0136663080 0 0
-0.0228167520 0.0128050250 0 0
-0.0238648110 0.0120947070 0 0
-0.0246799140 0.0116129500 0 0
-0.0252004680 0.0114153430 0 0
-0.0253998010 0.0115296680 0 0
-0.0252956200 0.0119539680 0 0
-0.0249465290 0.0126581060 0 0
-0.0244360610 0.0135870030 0 0
-0.0238527930 0.0146641400 0 0
-0.0232749210 0.0157959980 0 0
-0.0227617260 0.0168794770 0 0
-0.0223503650 0.0178129880 0 0
-0.0220562330 0.0185087920 0 0
-0.0218762480 0.0189029230 0 0
-0.0217944100 0.0189608020 0 0
-0.0217880310 0.0186790010 0 0
-0.0218334600 0.0180840210 0 0
-0.0219106160 0.0172284720 0 0
-0.0220047010 0.0161853100 0 0
-0.0221040280 0.0150415810 0 0
-0.0221959150 0.0138926930 0 0
-0.0222644780 0.0128364210 0 0
-0.0222926740 0.0119650120 0 0
-0.0222670920 0.0113550090 0 0
-0.0221813450 0.0110566220 0 0
-0.0220359150 0.0110859310 0 0
-0.0218367950 0.0114221590 0 0
-0.0215959480 0.0120097020 0 0
-0.0213323970 0.0127638210 0 0
-0.0210706810 0.0135800050 0 0
-0.0208374320 0.0143472520 0 0
-0.0206597790 0.0149632340 0 0
-0.0205664430 0.0153470740 0 0
-0.0205885760 0.0154466330 0 0
-0.0207569250 0.0152405450 0 0
-0.0210946500 0.0147368010 0 0
-0.0216090140 0.0139694200 0 0
-0.0222863210 0.0129948390 0 0
-0.0230916020 0.0118889570 0 0
-0.0239718770 0.0107433820 0 0
-0.0248620910 0.0096585360 0 0
-0.0256935450 0.0087333130 0 0
-0.0264033260 0.0080529440 0 0
-0.0269413590 0.0076781670 0 0
-0.0272729690 0.0076392940 0 0
-0.0273799830 0.0079362640 0 0
-0.0272661060 0.0085420500 0 0
-0.0269671010 0.0094066850 0 0
-0.0265571690 0.0104614210 0 0
-0.0261401370 0.0116226920 0 0
-0.0258235970 0.0127950400 0 0
-0.0256882110 0.0138743840 0 0
-0.0257681260 0.0147553600 0 0
-0.0260499610 0.0153444020 0 0
-0.0264861260 0.0155747520 0 0
-0.0270118750 0.0154172010 0 0
-0.0275586430 0.0148835160 0 0
-0.0280629060 0.0140234700 0 0
-0.0284706830 0.0129175660 0 0
-0.0287367960 0.0116672820 0 0
-0.0288210590 0.0103846570 0 0
-0.0286858560 0.0091826870 0 0
-0.0282964570 0.0081663750 0 0
-0.0276221500 0.0074233710 0 0
-0.0266386580 0.0070145790 0 0
-0.0253360160 0.0069670210 0 0
-0.0237337350 0.0072705360 0 0
-0.0218988780 0.0078779680 0 0
-0.0199584040 0.0087081390 0 0
-0.0180965390 0.0096518630 0 0
-0.0165328550 0.0105817770 0 0
-0.0154869920 0.0113654500 0 0
-0.0151429630 0.0118792670 0 0
-0.0156232430 0.0120205310 0 0
-0.0169759650 0.0117167150 0 0
-0.0191746420 0.0109322020 0 0
-0.0221281330 0.0096732300 0 0
-0.0256973220 0.0079902740 0 0
-0.0297141610 0.0059746750 0 0
-0.0339991620 0.0037471120 -1 0
-0.0383760120 0.0014400630 -1 0
-0.0426841710 -0.0008202540 -1 0
-0.0467889480 -0.0029276750 -1 0
-0.0505873790 -0.0048039860 -1 0
-0.0540108920 -0.0064021770 -1 0
-0.0570280940 -0.0077074490 -1 0
-0.0596486170 -0.0087375880 -1 0
-0.0619248210 -0.0095429890 -1 0
-0.0639475530 -0.0102053580 -1 0
-0.0658357570 -0.0108321830 -1 0
-0.0677223030 -0.0115439730 -1 0
-0.0697374200 -0.0124558240 -1 0
-0.0719918220 -0.0136599560 -1 0
-0.0745639970 -0.0152149550 -1 0
-0.0774948000 -0.0171420520 -1 0
-0.0807879240 -0.0194258480 -1 0
-0.0844127890 -0.0220174410 -1 0
-0.0883083310 -0.0248387870 -1 0
-0.0923897310 -0.0277881400 -1 0
-0.0965606800 -0.0307475280 -1 -1
-0.1007291680 -0.0335932080 -1 -1
-0.1048192780 -0.0362087220 -1 -1
-0.1087718610 -0.0384992400 -1 -1
-0.1125354020 -0.0404046290 -1 -1
-0.1160572220 -0.0419070780 -1 -1
-0.1192838870 -0.0430305010 -1 -1
-0.1221702840 -0.0438332210 -1 -1
-0.1246910630 -0.0443977860 -1 -1
-0.1268499270 -0.0448205500 -1 -1
-0.1286851910 -0.0452020210 -1 -1
-0.1302698700 -0.0456381980 -1 -1
-0.1317038890 -0.0462131530 -1 -1
-0.1330984060 -0.0469933140 -1 -1
-0.1345561380 -0.0480235470 -1 -1
-0.1361530290 -0.0493242400 -1 -1
-0.1379256700 -0.0508883270 -1 -1
-0.1398678410 -0.0526787780 -1 -1
-0.1419365480 -0.0546290340 -1 -1
-0.1440633560 -0.0566483030 -1 -1
-0.1461653830 -0.0586308940 -1 -1
-0.1481534360 -0.0604671970 -1 -1
-0.1499384530 -0.0620542310 -1 -1
-0.1514384330 -0.0633050080 -1 -1
-0.1525868750 -0.0641570410 -1 -1
-0.1533421870 -0.0645797230 -1 -1
-0.1536960020 -0.0645788950 -1 -1
-0.1536768650 -0.0641969830 -1 -1
-0.1533463260 -0.0635087990 -1 -1
-0.1527881600 -0.0626144810 -1 -1
-0.1520951080 -0.0616309070 -1 -1
-0.1513583760 -0.0606820390 -1 -1
-0.1506628730 -0.0598879310 -1 -1
-0.1500866270 -0.0593525440 -1 -1
-0.1496991580 -0.0591523370 -1 -1
-0.1495550080 -0.0593283050 -1 -1
-0.1496843190 -0.0598827400 -1 -1
-0.1500857320 -0.0607800340 -1 -1
-0.1507248990 -0.0619501270 -1 -1
-0.1515380060 -0.0632938150 -1 -1
-0.1524383060 -0.0646906510 -1 -1
-0.1533247340 -0.0660107980 -1 -1
-0.1540923870 -0.0671302120 -1 -1
-0.1546439420 -0.0679452310 -1 -1
-0.1549004990 -0.0683822800 -1 -1
-0.1548105670 -0.0684020030 -1 -1
-0.1543563680 -0.0680001140 -1 -1
-0.1535568330 -0.0672064390 -1 -1
-0.1524666920 -0.0660819550 -1 -1
-0.1511722790 -0.0647135430 -1 -1
-0.1497860450 -0.0632064400 -1 -1
-0.1484395530 -0.0616747550 -1 -1
-0.1472697810 -0.0602316780 -1 -1
-0.1463947410 -0.0589812240 -1 -1
-0.1458856430 -0.0580118580 -1 -1
-0.1457511010 -0.0573908160 -1 -1
-0.1459414310 -0.0571580410 -1 -1
-0.1463665680 -0.0573197800 -1 -1
-0.1469166810 -0.0578436210 -1 -1
-0.1474800120 -0.0586581220 -1 -1
-0.1479569490 -0.0596593580 -1 -1
-0.1482696290 -0.0607232990 -1 -1
-0.1483659930 -0.0617204460 -1 -1
-0.1482184690 -0.0625301270 -1 -1
-0.1478193460 -0.0630534860 -1 -1
-0.1471759060 -0.0632240780 -1 -1
-0.1463076080 -0.0630147540 -1 -1
-0.1452461360 -0.0624405010 -1 -1
-0.1440371550 -0.0615576130 -1 -1
-0.1427411610 -0.0604586970 -1 -1
-0.1414321170 -0.0592624430 -1 -1
-0.1401945430 -0.0580987940 -1 -1
-0.1391185850 -0.0570931040 -1 -1
-0.1382910340 -0.0563530300 -1 -1
-0.1377823480 -0.0559591140 -1 -1
-0.1376332630 -0.0559578370 -1 -1
-0.1378456410 -0.0563565470 -1 -1
-0.1383806120 -0.0571213990 -1 -1
-0.1391644540 -0.0581795960 -1 -1
-0.1401000370 -0.0594259790 -1 -1
-0.1410799790 -0.0607336170 -1 -1
-0.1419981600 -0.0619676820 -1 -1
-0.1427585680 -0.0630001160 -1 -1
-0.1432822720 -0.0637216270 -1 -1
-0.1435132040 -0.0640497390 -1 -1
-0.1434224600 -0.0639338840 -1 -1
-0.1430101380 -0.0633589420 -1 -1
-0.1423042880 -0.0623477290 -1 -1
-0.1413574970 -0.0609612150 -1 -1
-0.1402419320 -0.0592946710 -1 -1
-0.1390436090 -0.0574696590 -1 -1
-0.1378561240 -0.0556232110 -1 -1
-0.1367730620 -0.0538954230 -1 -1
-0.1358781620 -0.0524160700 -1 -1
-0.1352336850 -0.0512911960 -1 -1
-0.1348702100 -0.0505917390 -1 -1
-0.1347821800 -0.0503463950 -1 -1
-0.1349308110 -0.0505397250 -1 -1
-0.1352520290 -0.0511148370 -1 -1
-0.1356663890 -0.0519787060 -1 -1
-0.1360897560 -0.0530088380 -1 -1
-0.1364440670 -0.0540626030 -1 -1
-0.1366660520 -0.0549917360 -1 -1
-0.1367115720 -0.0556615540 -1 -1
-0.1365564350 -0.0559702450 -1 -1
-0.1361965200 -0.0558625870 -1 -1
-0.1356478150 -0.0553351650 -1 -1
-0.1349453260 -0.0544337120 -1 -1
-0.1341409940 -0.0532446950 -1 -1
-0.1333005120 -0.0518833360 -1 -1
-0.1324970290 -0.0504797750 -1 -1
-0.1318007460 -0.0491644640 -1 -1
-0.1312682890 -0.0480540870 -1 -1
-0.1309379050 -0.0472405680 -1 -1
-0.1308313830 -0.0467850540 -1 -1
-0.1309572790 -0.0467160230 -1 -1
-0.1313112360 -0.0470294190 -1 -1
-0.1318744770 -0.0476895040 -1 -1
-0.1326129270 -0.0486304490 -1 -1
-0.1334778690 -0.0497598690 -1 -1
-0.1344087590 -0.0509659040 -1 -1
-0.1353375350 -0.0521275120 -1 -1
-0.1361912790 -0.0531259880 -1 -1
-0.1368921040 -0.0538566310 -1 -1
-0.1373583230 -0.0542404410 -1 -1
-0.1375111390 -0.0542348210 -1 -1
-0.1372866460 -0.0538402190 -1 -1
-0.1366497950 -0.0530989890 -1 -1
-0.1356060400 -0.0520862240 -1 -1
-0.1342073390 -0.0508968440 -1 -1
-0.1325521930 -0.0496331790 -1 -1
-0.1307795010 -0.0483949760 -1 -1
-0.1290527730 -0.0472725440 -1 -1
-0.1275343040 -0.0463425920 -1 -1
-0.1263592350 -0.0456654960 -1 -1
-0.1256214180 -0.0452836100 -1 -1
-0.1253719670 -0.0452204920 -1 -1
-0.1256224670 -0.0454801520 -1 -1
-0.1263472100 -0.0460461120 -1 -1
-0.1274853580 -0.0468815140 -1 -1
-0.1289465130 -0.0479311330 -1 -1
-0.1306214960 -0.0491249180 -1 -1
-0.1323970130 -0.0503827790 -1 -1
-0.1341706730 -0.0516212110 -1 -1
-0.1358622350 -0.0527618270 -1 -1
-0.1374176010 -0.0537403570 -1 -1
-0.1388050120 -0.0545140250 -1 -1
-0.1400071300 -0.0550658970 -1 -1
-0.1410145580 -0.0554056900 -1 -1
-0.1418240500 -0.0555678790 -1 -1
-0.1424407060 -0.0556082680 -1 -1
-0.1428815050 -0.0555992680 -1 -1
-0.1431778890 -0.0556236660 -1 -1
-0.1433752310 -0.0557668760 -1 -1
-0.1435271830 -0.0561071900 -1 -1
-0.1436853420 -0.0567040950 -1 -1
-0.1438887590 -0.0575872380 -1 -1
-0.1441586520 -0.0587497270 -1 -1
-0.1444988140 -0.0601475700 -1 -1
-0.1448971930 -0.0617048280 -1 -1
-0.1453249530 -0.0633230220 -1 -1
-0.1457348750 -0.0648929600 -1 -1
-0.1460650610 -0.0663074480 -1 -1
-0.1462500650 -0.0674734600 -1 -1
-0.1462336890 -0.0683224080 -1 -1
-0.1459773300 -0.0688175060 -1 -1
-0.1454651550 -0.0689579200 -1 -1
-0.1447095480 -0.0687793780 -1 -1
-0.1437543240 -0.0683505870 -1 -1
-0.1426709660 -0.0677651070 -1 -1
-0.1415480620 -0.0671295750 -1 -1
-0.1404780890 -0.0665506220 -1 -1
-0.1395454920 -0.0661229720 -1 -1
-0.1388188630 -0.0659204130 -1 -1
-0.1383477540 -0.0659908760 -1 -1
-0.1381611050 -0.0663554640 -1 -1
-0.1382638780 -0.0670087490 -1 -1
-0.1386328940 -0.0679178290 -1 -1
-0.1392163470 -0.0690212650 -1 -1
-0.1399396130 -0.0702311920 -1 -1
-0.1407157530 -0.0714408170 -1 -1
-0.1414569790 -0.0725369090 -1 -1
-0.1420842450 -0.0734141360 -1 -1
-0.1425344490 -0.0739873850 -1 -1
-0.1427658520 -0.0742001760 -1 -1
-0.1427612530 -0.0740292620 -1 -1
-0.1425285960 -0.0734857170 -1 -1
-0.1421004930 -0.0726129370 -1 -1
-0.1415328490 -0.0714826710 -1 -1
-0.1408992600 -0.0701901280 -1 -1
-0.1402792690 -0.0688478820 -1 -1
-0.1397443300 -0.0675773800 -1 -1
-0.1393477910 -0.0664978620 -1 -1
-0.1391211770 -0.0657140250 -1 -1
-0.1390744880 -0.0653041690 -1 -1
-0.1391980660 -0.0653101710 -1 -1
-0.1394654940 -0.0657308540 -1 -1
-0.1398374690 -0.0665210910 -1 -1
-0.1402663070 -0.0675975350 -1 -1
-0.1407002410 -0.0688491070 -1 -1
-0.1410863500 -0.0701496480 -1 -1
-0.1413729720 -0.0713710910 -1 -1
-0.1415132930 -0.0723960330 -1 -1
-0.1414695140 -0.0731291190 -1 -1
-0.1412161120 -0.0735062670 -1 -1
-0.1407423910 -0.0734995580 -1 -1
-0.1400543060 -0.0731163520 -1 -1
-0.1391747460 -0.0723945580 -1 -1
-0.1381427900 -0.0713975750 -1 -1
-0.1370133460 -0.0702100800 -1 -1
-0.1358572330 -0.0689327540 -1 -1
-0.1347597590 -0.0676737690 -1 -1
-0.1338146340 -0.0665374740 -1 -1
-0.1331119870 -0.0656130780 -1 -1
-0.1327240260 -0.0649658600 -1 -1
-0.1326939770 -0.0646318610 -1 -1
-0.1330305090 -0.0646158540 -1 -1
-0.1337066290 -0.0648916510 -1 -1
-0.1346623860 -0.0654038620 -1 -1
-0.1358115100 -0.0660717830 -1 -1
-0.1370509100 -0.0667970050 -1 -1
-0.1382710110 -0.0674747970 -1 -1
-0.1393652920 -0.0680065980 -1 -1
-0.1402385260 -0.0683101560 -1 -1
-0.1408142440 -0.0683254880 -1 -1
-0.1410419580 -0.0680177230 -1 -1
-0.1409043140 -0.0673795120 -1 -1
-0.1404232910 -0.0664338750 -1 -1
-0.1396610310 -0.0652350870 -1 -1
-0.1387098950 -0.0638649010 -1 -1
-0.1376738940 -0.0624242270 -1 -1
-0.1366526690 -0.0610226840 -1 -1
-0.1357377070 -0.0597679650 -1 -1
-0.1350175710 -0.0587554580 -1 -1
-0.1345775950 -0.0580582710 -1 -1
-0.1344843480 -0.0577195290 -1 -1
-0.1347625370 -0.0577496650 -1 -1
-0.1353808540 -0.0581288510 -1 -1
-0.1362552620 -0.0588113170 -1 -1
-0.1372658890 -0.0597285800 -1 -1
-0.1382783930 -0.0607918230 -1 -1
-0.1391629680 -0.0618961120 -1 -1
-0.1398093110 -0.0629286840 -1 -1
-0.1401380930 -0.0637812820 -1 -1
-0.1401078640 -0.0643642310 -1 -1
-0.1397161540 -0.0646186850 -1 -1
-0.1389954440 -0.0645238010 -1 -1
-0.1380054400 -0.0640976020 -1 -1
-0.1368238640 -0.0633929170 -1 -1
-0.1355386630 -0.0624904310 -1 -1
-0.1342429870 -0.0614895260 -1 -1
-0.1330316300 -0.0604971800 -1 -1
-0.1319959470 -0.0596167650 -1 -1
-0.1312151970 -0.0589389070 -1 -1
-0.1307462200 -0.0585343270 -1 -1
-0.1306161570 -0.0584470370 -1 -1
-0.1308200750 -0.0586879110 -1 -1
-0.1313208830 -0.0592312670 -1 -1
-0.1320509210 -0.0600170420 -1 -1
-0.1329193520 -0.0609586070 -1 -1
-0.1338263690 -0.0619538100 -1 -1
-0.1346778340 -0.0628963210 -1 -1
-0.1353937840 -0.0636856700 -1 -1
-0.1359110570 -0.0642358130 -1 -1
-0.1361845270 -0.0644820640 -1 -1
-0.1361890070 -0.0643863160 -1 -1
-0.1359202790 -0.0639410480 -1 -1
-0.1353941560 -0.0631722860 -1 -1
-0.1346446380 -0.0621402880 -1 -1
-0.1337220680 -0.0609360140 -1 -1
-0.1326898820 -0.0596723640 -1 -1
-0.1316186250 -0.0584714990 -1 -1
-0.1305789330 -0.0574512380 -1 -1
-0.1296356710 -0.0567131630 -1 -1
-0.1288431540 -0.0563335490 -1 -1
-0.1282411550 -0.0563571500 -1 -1
-0.1278527300 -0.0567937270 -1 -1
-0.1276841290 -0.0576172460 -1 -1
-0.1277255180 -0.0587674010 -1 -1
-0.1279527770 -0.0601530810 -1 -1
-0.1283328040 -0.0616579810 -1 -1
-0.1288303870 -0.0631493020 -1 -1
-0.1294083720 -0.0644903620 -1 -1
-0.1300179570 -0.0655561430 -1 -1
-0.1305895620 -0.0662486650 -1 -1
-0.1310377680 -0.0665085690 -1 -1
-0.1312809860 -0.0663208870 -1 -1
-0.1312643120 -0.0657153520 -1 -1
-0.1309741070 -0.0647629890 -1 -1
-0.1304405400 -0.0635696470 -1 -1
-0.1297304730 -0.0622654870 -1 -1
-0.1289347440 -0.0609901880 -1 -1
-0.1281537700 -0.0598760250 -1 -1
-0.1274848170 -0.0590318860 -1 -1
-0.1270127950 -0.0585310500 -1 -1
-0.1268040340 -0.0584051810 -1 -1
-0.1269013990 -0.0586451390 -1 -1
-0.1273196360 -0.0592060870 -1 -1
-0.1280405390 -0.0600138420 -1 -1
-0.1290095470 -0.0609717780 -1 -1
-0.1301375230 -0.0619696410 -1 -1
-0.1313094740 -0.0628949660 -1 -1
-0.1323982730 -0.0636450180 -1 -1
-0.1332809470 -0.0641364790 -1 -1
-0.1338558760 -0.0643125060 -1 -1
-0.1340593630 -0.0641478670 -1 -1
-0.1338785830 -0.0636512720 -1 -1
-0.1333553630 -0.0628635450 -1 -1
-0.1325767610 -0.0618523800 -1 -1
-0.1316555790 -0.0607051330 -1 -1
-0.1307092620 -0.0595201170 -1 -1
-0.1298439940 -0.0583969960 -1 -1
-0.1291464650 -0.0574280300 -1 -1
-0.1286822900 -0.0566911120 -1 -1
-0.1284969750 -0.0562440040 -1 -1
-0.1286148120 -0.0561194790 -1 -1
-0.1290355630 -0.0563219640 -1 -1
-0.1297331690 -0.0568263790 -1 -1
-0.1306590320 -0.0575795720 -1 -1
-0.1317475840 -0.0585043630 -1 -1
-0.1329206870 -0.0595061150 -1 -1
-0.1340910840 -0.0604819260 -1 -1
-0.1351676920 -0.0613320550 -1 -1
-0.1360637070 -0.0619720170 -1 -1
-0.1367062120 -0.0623429040 -1 -1
-0.1370466320 -0.0624176160 -1 -1
-0.1370719980 -0.0622019150 -1 -1
-0.1368140260 -0.0617311030 -1 -1
-0.1363492670 -0.0610643780 -1 -1
-0.1357841440 -0.0602788400 -1 -1
-0.1352269620 -0.0594638140 -1 -1
-0.1347602660 -0.0587146980 -1 -1
-0.1344276730 -0.0581249110 -1 -1
-0.1342379680 -0.0577756350 -1 -1
-0.1341783720 -0.0577250130 -1 -1
-0.1342261760 -0.0579996190 -1 -1
-0.1343521270 -0.0585901400 -1 -1
-0.1345174150 -0.0594515550 -1 -1
-0.1346722950 -0.0605075340 -1 -1
-0.1347625240 -0.0616585290 -1 -1
-0.1347415720 -0.0627922180 -1 -1
-0.1345810920 -0.0637950040 -1 -1
-0.1342746270 -0.0645636370 -1 -1
-0.1338351250 -0.0650155740 -1 -1
-0.1332894800 -0.0650964600 -1 -1
-0.1326729410 -0.0647843240 -1 -1
-0.1320245450 -0.0640913630 -1 -1
-0.1313837190 -0.0630636790 -1 -1
-0.1307885670 -0.0617777750 -1 -1
-0.1302759890 -0.0603328150 -1 -1
-0.1298825460 -0.0588400210 -1 -1
-0.1296450960 -0.0574123920 -1 -1
-0.1296005680 -0.0561569130 -1 -1
-0.1297828040 -0.0551684280 -1 -1
-0.1302144390 -0.0545228960 -1 -1
-0.1308965400 -0.0542697010 -1 -1
-0.1318031450 -0.0544251450 -1 -1
-0.1328850910 -0.0549690430 -1 -1
-0.1340793990 -0.0558448240 -1 -1
-0.1353158370 -0.0569632980 -1 -1
-0.1365171050 -0.0582106110 -1 -1
-0.1375979670 -0.0594602310 -1 -1
-0.1384705440 -0.0605873650 -1 -1
-0.1390563760 -0.0614828220 -1 -1
-0.1392989390 -0.0620637770 -1 -1
-0.1391700080 -0.0622806950 -1 -1
-0.1386690480 -0.0621207440 -1 -1
-0.1378203240 -0.0616077880 -1 -1
-0.1366715170 -0.0607990020 -1 -1
-0.1352922640 -0.0597786570 -1 -1
-0.1337691030 -0.0586495560 -1 -1
-0.1321968250 -0.0575225720 -1 -1
-0.1306685980 -0.0565051980 -1 -1
-0.1292666510 -0.0556903100 -1 -1
-0.1280559730 -0.0551465850 -1 -1
-0.1270839000 -0.0549123290 -1 -1
-0.1263850400 -0.0549933310 -1 -1
-0.1259862110 -0.0553638310 -1 -1
-0.1259045790 -0.0559703250 -1 -1
-0.1261363040 -0.0567389990 -1 -1
-0.1266421070 -0.0575858440 -1 -1
-0.1273424140 -0.0584262010 -1 -1
-0.1281285760 -0.0591814450 -1 -1
-0.1288834090 -0.0597835760 -1 -1
-0.1294996730 -0.0601795030 -1 -1
-0.1298918120 -0.0603352760 -1 -1
-0.1300027210 -0.0602396490 -1 -1
-0.1298078400 -0.0599066690 -1 -1
-0.1293175080 -0.0593768550 -1 -1
-0.1285768810 -0.0587157650 -1 -1
-0.1276610320 -0.0580085840 -1 -1
-0.1266640810 -0.0573503160 -1 -1
-0.1256848280 -0.0568327960 -1 -1
-0.1248131610 -0.0565313040 -1 -1
-0.1241202800 -0.0564940910 -1 -1
-0.1236534620 -0.0567365600 -1 -1
-0.1234340200 -0.0572398930 -1 -1
-0.1234569450 -0.0579538110 -1 -1
-0.1236927010 -0.0588036560 -1 -1
-0.1240925850 -0.0597001970 -1 -1
-0.1245976970 -0.0605490520 -1 -1
-0.1251501340 -0.0612581980 -1 -1
-0.1257032760 -0.0617442780 -1 -1
-0.1262266590 -0.0619384390 -1 -1
-0.1267038960 -0.0617921110 -1 -1
-0.1271280380 -0.0612825580 -1 -1
-0.1275008040 -0.0604169990 -1 -1
-0.1278381310 -0.0592337150 -1 -1
-0.1281766130 -0.0577997520 -1 -1
-0.1285711800 -0.0562062050 -1 -1
-0.1290810870 -0.0545620400 -1 -1
-0.1297519530 -0.0529864070 -1 -1
-0.1306029200 -0.0515988240 -1 -1
-0.1316225330 -0.0505071090 -1 -1
-0.1327737000 -0.0497942710 -1 -1
-0.1340051500 -0.0495069490 -1 -1
-0.1352625580 -0.0496477440 -1 -1
-0.1364935450 -0.0501731320 -1 -1
-0.1376470200 -0.0509982530 -1 -1
-0.1386711000 -0.0520079850 -1 -1
-0.1395142230 -0.0530710880 -1 -1
-0.1401317840 -0.0540544480 -1 -1
-0.1404947970 -0.0548365730 -1 -1
-0.1405936010 -0.0553193730 -1 -1
-0.1404342600 -0.0554358190 -1 -1
-0.1400321490 -0.0551523820 -1 -1
-0.1394081960 -0.0544683760 -1 -1
-0.1385890770 -0.0534150550 -1 -1
-0.1376088500 -0.0520551250 -1 -1
-0.1365099600 -0.0504810020 -1 -1
-0.1353438960 -0.0488091510 -1 -1
-0.1341718850 -0.0471689390 -1 -1
-0.1330644640 -0.0456874620 -1 -1
-0.1320984420 -0.0444743210 -1 -1
-0.1313503950 -0.0436099150 -1 -1
-0.1308864840 -0.0431384750 -1 -1
-0.1307508830 -0.0430648450 -1 -1
-0.1309579760 -0.0433536050 -1 -1
-0.1314907930 -0.0439308630 -1 -1
-0.1323011030 -0.0446904540 -1 -1
-0.1333064830 -0.0455053390 -1 -1
-0.1343899200 -0.0462430290 -1 -1
-0.1354121030 -0.0467823480 -1 -1
-0.1362353620 -0.0470284520 -1 -1
-0.1367475530 -0.0469239690 -1 -1
-0.1368779470 -0.0464552120 -1 -1
-0.1366052960 -0.0456531790 -1 -1
-0.1359586500 -0.0445896490 -1 -1
-0.1350096570 -0.0433691590 -1 -1
-0.1338575970 -0.0421181200 -1 -1
-0.1326117000 -0.0409725210 -1 -1
-0.1313752410 -0.0400649880 -1 -1
-0.1302340380 -0.0395113160 -1 -1
-0.1292505960 -0.0393969710 -1 -1
-0.1284643370 -0.0397657680 -1 -1
-0.1278958820 -0.0406140430 -1 -1
-0.1275507600 -0.0418915560 -1 -1
-0.1274201800 -0.0435073180 -1 -1
-0.1274803660 -0.0453386720 -1 -1
-0.1276913430 -0.0472436540 -1 -1
-0.1279954220 -0.0490759840 -1 -1
-0.1283186840 -0.0507003150 -1 -1
-0.1285788440 -0.0520050610 -1 -1
-0.1286976830 -0.0529110770 -1 -1
-0.1286129660 -0.0533756550 -1 -1
-0.1282862970 -0.0533929120 -1 -1
-0.1277064600 -0.0529922840 -1 -1
-0.1268898530 -0.0522358120 -1 -1
-0.1258794440 -0.0512133180 -1 -1
-0.1247418990 -0.0500340470 -1 -1
-0.1235617850 -0.0488149440 -1 -1
-0.1224330950 -0.0476676040 -1 -1
-0.1214494410 -0.0466863020 -1 -1
-0.1206935360 -0.0459386940 -1 -1
-0.1202269400 -0.0454605380 -1 -1
-0.1200833720 -0.0452554710 -1 -1
-0.1202678260 -0.0452986860 -1 -1
-0.1207584750 -0.0455416850 -1 -1
-0.1215067180 -0.0459167330 -1 -1
-0.1224365940 -0.0463421360 -1 -1
-0.1234499340 -0.0467291230 -1 -1
-0.1244410710 -0.0469894520 -1 -1
-0.1253171490 -0.0470430600 -1 -1
-0.1260133840 -0.0468262180 -1 -1
-0.1264947320 -0.0463002910 -1 -1
-0.1267468280 -0.0454592010 -1 -1
-0.1267675290 -0.0443327490 -1 -1
-0.1265666990 -0.0429844800 -1 -1
-0.1261718060 -0.0415047240 -1 -1
-0.1256313970 -0.0400001560 -1 -1
-0.1250118670 -0.0385815780 -1 -1
-0.1243890640 -0.0373521040 -1 -1
-0.1238377710 -0.0363975270 -1 -1
-0.1234206080 -0.0357794410 -1 -1
-0.1231784480 -0.0355308480 -1 -1
-0.1231251040 -0.0356540350 -1 -1
-0.1232472120 -0.0361208740 -1 -1
-0.1235083800 -0.0368752020 -1 -1
-0.1238560790 -0.0378368500 -1 -1
-0.1242290220 -0.0389075760 -1 -1
-0.1245633050 -0.0399794170 -1 -1
-0.1247975940 -0.0409449000 -1 -1
-0.1248781500 -0.0417076820 -1 -1
-0.1247635530 -0.0421924170 -1 -1
-0.1244291670 -0.0423531730 -1 -1
-0.1238716230 -0.0421792780 -1 -1
-0.1231119510 -0.0416964860 -1 -1
-0.1221944830 -0.0409621280 -1 -1
-0.1211802400 -0.0400562160 -1 -1
-0.1201373250 -0.0390725680 -1 -1
-0.1191326530 -0.0381116230 -1 -1
-0.1182277720 -0.0372731860 -1 -1
-0.1174782440 -0.0366475410 -1 -1
-0.1169330960 -0.0363064820 -1 -1
-0.1166307910 -0.0362968130 -1 -1
-0.1165920430 -0.0366369040 -1 -1
-0.1168137770 -0.0373156910 -1 -1
-0.1172683660 -0.0382936700 -1 -1
-0.1179084270 -0.0395058280 -1 -1
-0.1186735760 -0.0408662700 -1 -1
-0.1194954820 -0.0422734580 -1 -1
-0.1203018120 -0.0436154860 -1 -1
-0.1210224590 -0.0447770260 -1 -1
-0.1215982080 -0.0456500580 -1 -1
-0.1219874140 -0.0461477230 -1 -1
-0.1221667680 -0.0462178040 -1 -1
-0.1221272120 -0.0458517580 -1 -1
-0.1218704520 -0.0450865420 -1 -1
-0.1214113940 -0.0439991160 -1 -1
-0.1207859200 -0.0426961910 -1 -1
-0.1200567610 -0.0413024120 -1 -1
-0.1193101980 -0.0399484620 -1 -1
-0.1186431560 -0.0387586910 -1 -1
-0.1181462350 -0.0378382270 -1 -1
-0.1178885930 -0.0372617320 -1 -1
-0.1179082870 -0.0370671500 -1 -1
-0.1182100800 -0.0372552940 -1 -1
-0.1187694750 -0.0377925830 -1 -1
-0.1195381470 -0.0386143610 -1 -1
-0.1204473600 -0.0396292370 -1 -1
-0.1214115190 -0.0407260390 -1 -1
-0.1223356960 -0.0417837200 -1 -1
-0.1231271590 -0.0426832270 -1 -1
-0.1237069190 -0.0433199780 -1 -1
-0.1240175140 -0.0436152290 -1 -1
-0.1240271570 -0.0435243860 -1 -1
-0.1237332710 -0.0430414820 -1 -1
-0.1231662230 -0.0422001690 -1 -1
-0.1223897680 -0.0410704790 -1 -1
-0.1214951580 -0.0397503910 -1 -1
-0.1205907770 -0.0383537600 -1 -1
-0.1197918030 -0.0369979880 -1 -1
-0.1192104340 -0.0357935860 -1 -1
-0.1189419660 -0.0348359870 -1 -1
-0.1190459770 -0.0341996950 -1 -1
-0.1195321970 -0.0339343910 -1 -1
-0.1203602990 -0.0340616270 -1 -1
-0.1214508620 -0.0345715020 -1 -1
-0.1226989620 -0.0354207060 -1 -1
-0.1239871360 -0.0365340260 -1 -1
-0.1251985390 -0.0378105090 -1 -1
-0.1262294240 -0.0391339080 -1 -1
-0.1269984500 -0.0403854940 -1 -1
-0.1274514340 -0.0414567730 -1 -1
-0.1275627870 -0.0422606630 -1 -1
-0.1273353370 -0.0427405350 -1 -1
-0.1267986860 -0.0428759030 -1 -1
-0.1260063930 -0.0426838020 -1 -1
-0.1250328240 -0.0422161100 -1 -1
-0.1239691880 -0.0415536960 -1 -1
-0.1229170580 -0.0407981380 -1 -1
-0.1219775610 -0.0400612910 -1 -1
-0.1212359580 -0.0394528920 -1 -1
-0.1207455770 -0.0390676050 -1 -1
-0.1205182800 -0.0389740290 -1 -1
-0.1205261220 -0.0392075490 -1 -1
-0.1207129950 -0.0397671850 -1 -1
-0.1210106100 -0.0406154970 -1 -1
-0.1213527300 -0.0416808960 -1 -1
-0.1216842710 -0.0428626610 -1 -1
-0.1219647650 -0.0440392100 -1 -1
-0.1221669800 -0.0450798970 -1 -1
-0.1222731340 -0.0458598580 -1 -1
-0.1222716740 -0.0462760160 -1 -1
-0.1221555730 -0.0462607490 -1 -1
-0.1219222760 -0.0457899930 -1 -1
-0.1215765490 -0.0448855880 -1 -1
-0.1211356080 -0.0436136500 -1 -1
-0.1206319600 -0.0420790510 -1 -1
-0.1201097740 -0.0404145880 -1 -1
-0.1196160890 -0.0387652320 -1 -1
-0.1191923880 -0.0372707730 -1 -1
-0.1188701680 -0.0360511880 -1 -1
-0.1186692570 -0.0351970610 -1 -1
-0.1185963370 -0.0347648860 -1 -1
-0.1186435780 -0.0347761000 -1 -1
-0.1187893200 -0.0352184320 -1 -1
-0.1190017860 -0.0360477790 -1 -1
-0.1192448540 -0.0371899760 -1 -1
-0.1194852710 -0.0385441970 -1 -1
-0.1197013150 -0.0399897920 -1 -1
-0.1198888550 -0.0413963970 -1 -1
-0.1200563290 -0.0426365710 -1 -1
-0.1202063360 -0.0436004570 -1 -1
-0.1203157140 -0.0442101000 -1 -1
-0.1203312710 -0.0444287660 -1 -1
-0.1201869050 -0.0442625650 -1 -1
-0.1198317300 -0.0437565060 -1 -1
-0.1192520040 -0.0429883060 -1 -1
-0.1184757110 -0.0420607080 -1 -1
-0.1175618200 -0.0410912750 -1 -1
-0.1165849040 -0.0401996060 -1 -1
-0.1156232270 -0.0394939740 -1 -1
-0.1147513950 -0.0390596950 -1 -1
-0.1140344760 -0.0389502010 -1 -1
-0.1135202430 -0.0391815810 -1 -1
-0.1132301600 -0.0397319900 -1 -1
-0.1131545140 -0.0405460010 -1 -1
-0.1132563000 -0.0415417890 -1 -1
-0.1134822680 -0.0426192630 -1 -1
-0.1137742870 -0.0436687540 -1 -1
-0.1140748500 -0.0445802980 -1 -1
-0.1143274820 -0.0452532520 -1 -1
-0.1144781650 -0.0456056360 -1 -1
-0.1144813260 -0.0455823720 -1 -1
-0.1143077510 -0.0451610550 -1 -1
-0.1139502370 -0.0443542180 -1 -1
-0.1134255140 -0.0432087830 -1 -1
-0.1127732000 -0.0418036530 -1 -1
-0.1120527190 -0.0402447200 -1 -1
-0.1113379100 -0.0386557720 -1 -1
-0.1107084090 -0.0371648310 -1 -1
-0.1102387480 -0.0358879040 -1 -1
-0.1099882770 -0.0349144640 -1 -1
-0.1099931090 -0.0342983210 -1 -1
-0.1102584990 -0.0340540600 -1 -1
-0.1107523880 -0.0341578720 -1 -1
-0.1114054180 -0.0345526430 -1 -1
-0.1121219700 -0.0351567310 -1 -1
-0.1127992070 -0.0358739550 -1 -1
-0.1133453770 -0.0366026710 -1 -1
-0.1136913830 -0.0372441510 -1 -1
-0.1137953820 -0.0377112510 -1 -1
-0.1136421390 -0.0379367460 -1 -1
-0.1132388620 -0.0378800650 -1 -1
-0.1126098310 -0.0375320190 -1 -1
-0.1117915060 -0.0369169890 -1 -1
-0.1108281390 -0.0360909110 -1 -1
-0.1097680510 -0.0351341400 -1 -1
-0.1086623360 -0.0341408530 -1 -1
-0.1075667410 -0.0332080810 -1 -1
-0.1065433300 -0.0324261410 -1 -1
-0.1056574200 -0.0318706160 -1 -1
-0.1049697520 -0.0315957230 -1 -1
-0.1045275250 -0.0316294520 -1 -1
-0.1043569870 -0.0319712190 -1 -1
-0.1044597370 -0.0325923560 -1 -1
-0.1048152370 -0.0334387010 -1 -1
-0.1053877050 -0.0344348170 -1 -1
-0.1061295820 -0.0354907020 -1 -1
-0.1069768980 -0.0365117450 -1 -1
-0.1078433130 -0.0374102460 -1 -1
-0.1086236560 -0.0381142750 -1 -1
-0.1092084660 -0.0385710020 -1 -1
-0.1095022400 -0.0387457860 -1 -1
-0.1094392580 -0.0386209950 -1 -1
-0.1089947660 -0.0381977010 -1 -1
-0.1081904480 -0.0374998030 -1 -1
-0.1070934550 -0.0365769610 -1 -1
-0.1058090870 -0.0355029600 -1 -1
-0.1044680890 -0.0343689450 -1 -1
-0.1032101870 -0.0332733220 -1 -1
-0.1021658800 -0.0323111110 -1 -1
-0.1014396510 -0.0315647730 -1 -1
-0.1010981860 -0.0310966940 -1 -1
-0.1011649020 -0.0309427620 -1 -1
-0.1016201750 -0.0311072980 -1 -1
-0.1024066970 -0.0315599450 -1 -1
-0.1034385520 -0.0322353750 -1 -1
-0.1046120500 -0.0330375480 -1 -1
-0.1058181170 -0.0338503460 -1 -1
-0.1069554670 -0.0345536600 -1 -1
-0.1079405840 -0.0350410480 -1 -1
-0.1087116120 -0.0352343850 -1 -1
-0.1092278490 -0.0350921320 -1 -1
-0.1094675630 -0.0346101320 -1 -1
-0.1094261340 -0.0338168410 -1 -1
-0.1091169420 -0.0327667290 -1 -1
-0.1085750710 -0.0315343320 -1 -1
-0.1078594530 -0.0302087570 -1 -1
-0.1070489130 -0.0288875950 -1 0
-0.1062315840 -0.0276701100 -1 0
-0.1054916910 -0.0266501850 -1 0
-0.1048991040 -0.0259088760 -1 0
-0.1045035170 -0.0255063170 -1 0
-0.1043316260 -0.0254742880 -1 0
-0.1043867010 -0.0258119680 -1 0
-0.1046513890 -0.0264864170 -1 0
-0.1050923490 -0.0274371860 -1 0
-0.1056639900 -0.0285836230 -1 0
-0.1063112920 -0.0298335720 -1 0
-0.1069737360 -0.0310917560 -1 -1
-0.1075907460 -0.0322662440 -1 -1
-0.1081074860 -0.0332731330 -1 -1
-0.1084797040 -0.0340408880 -1 -1
-0.1086765350 -0.0345151880 -1 -1
-0.1086815860 -0.0346640410 -1 -1
-0.1084946580 -0.0344824130 -1 -1
-0.1081343050 -0.0339953220 -1 -1
-0.1076376540 -0.0332582620 -1 -1
-0.1070559300 -0.0323542420 -1 -1
-0.1064492840 -0.0313868220 -1 -1
-0.1058831890 -0.0304691660 -1 -1
-0.1054232550 -0.0297105750 -1 0
-0.1051254880 -0.0292028760 -1 0
-0.1050255350 -0.0290089740 -1 0
-0.1051333190 -0.0291556800 -1 0
-0.1054346840 -0.0296315870 -1 0
-0.1058969270 -0.0303889670 -1 -1
-0.1064767630 -0.0313482360 -1 -1
-0.1071309010 -0.0324047470 -1 -1
