0.0268168410 -0.0905546050 0 -1
0.0299763890 -0.0937404930 0 -1
0.0323562010 -0.0972515320 1 -1
0.0337101190 -0.1007359660 1 -1
0.0338922420 -0.1038442290 1 -1
0.0328710080 -0.1062618960 1 -1
0.0307348740 -0.1077387000 1 -1
0.0276878560 -0.1081119290 0 -1
0.0240334060 -0.1073230660 0 -1
0.0201455670 -0.1054258840 0 -1
0.0164296530 -0.1025836090 0 -1
0.0132787850 -0.0990542360 0 -1
0.0110324920 -0.0951658630 0 -1
0.0099412520 -0.0912850620 0 -1
0.0101410200 -0.0877803320 0 -1
0.0116414230 -0.0849829590 0 -1
0.0143277640 -0.0831502800 0 -1
0.0179735560 -0.0824379710 0 -1
0.0222610470 -0.0828858810 0 -1
0.0268092550 -0.0844183440 0 -1
0.0312083030 -0.0868571840 1 -1
0.0350569170 -0.0899436590 1 -1
0.0379997680 -0.0933651980 1 -1
0.0397617800 -0.0967844320 1 -1
0.0401763700 -0.0998692980 1 -1
0.0392044590 -0.1023227040 1 -1
0.0369411650 -0.1039096610 1 -1
0.0336077840 -0.1044793550 1 -1
0.0295291650 -0.1039797010 0 -1
0.0251003390 -0.1024627330 0 -1
0.0207485960 -0.1000798350 0 -1
0.0168956130 -0.0970665330 0 -1
0.0139194480 -0.0937184670 0 -1
0.0121152720 -0.0903623980 0 -1
0.0116598150 -0.0873264190 0 -1
0.0125887670 -0.0849114970 0 -1
0.0147922930 -0.0833642380 0 -1
0.0180274760 -0.0828510320 0 -1
0.0219449900 -0.0834366560 0 -1
0.0261281750 -0.0850726820 0 -1
0.0301407480 -0.0875999320 1 -1
0.0335757910 -0.0907653500 1 -1
0.0360981260 -0.0942498810 1 -1
0.0374749280 -0.0977027400 1 -1
0.0375924270 -0.1007783680 1 -1
0.0364595580 -0.1031724350 1 -1
0.0342018010 -0.1046520900 1 -1
0.0310480450 -0.1050762210 1 -1
0.0273108350 -0.1044049070 0 -1
0.0233584960 -0.1027005430 0 -1
0.0195796440 -0.1001228770 0 -1
0.0163454260 -0.0969171710 0 -1
0.0139756880 -0.0933933040 0 -1
0.0127106950 -0.0898960390 0 -1
0.0126880230 -0.0867697580 0 -1
0.0139272250 -0.0843223140 0 -1
0.0163261240 -0.0827928950 0 -1
0.0196696190 -0.0823279750 0 -1
0.0236493140 -0.0829673930 0 -1
0.0278916940 -0.0846408670 0 -1
0.0319923950 -0.0871748040 1 -1
0.0355543230 -0.0903092470 1 -1
0.0382267110 -0.0937239390 1 -1
0.0397405950 -0.0970710170 1 -1
0.0399355460 -0.1000108530 1 -1
0.0387743400 -0.1022470690 1 -1
0.0363457500 -0.1035565960 1 -1
0.0328577490 -0.1038112960 1 -1
0.0286218730 -0.1029889570 0 -1
0.0240273500 -0.1011729880 0 -1
0.0195052480 -0.0985418560 0 -1
0.0154864190 -0.0953508620 0 -1
0.0123582760 -0.0919086850 0 -1
0.0104249540 -0.0885493950 0 -1
0.0098752990 -0.0856002960 0 -1
0.0107625430 -0.0833481310 0 -1
0.0129980950 -0.0820083110 0 -1
0.0163600360 -0.0817019450 0 -1
0.0205149310 -0.0824440060 0 -1
0.0250508050 -0.0841442500 0 -1
0.0295194010 -0.0866202150 0 -1
0.0334841650 -0.0896189320 1 -1
0.0365675360 -0.0928429060 1 -1
0.0384903970 -0.0959770390 1 -1
0.0390982240 -0.0987154940 1 -1
0.0383710430 -0.1007884930 1 -1
0.0364180760 -0.1019875320 1 -1
0.0334616480 -0.1021857540 1 -1
0.0298148300 -0.1013506360 0 -1
0.0258542430 -0.0995475290 0 -1
0.0219881820 -0.0969339160 0 -1
0.0186208520 -0.0937451660 0 -1
0.0161138930 -0.0902734290 0 -1
0.0147471610 -0.0868416430 0 -1
0.0146837330 -0.0837740160 0 -1
0.0159468780 -0.0813646770 0 -1
0.0184155270 -0.0798475840 0 -1
0.0218397950 -0.0793713650 0 -1
0.0258724820 -0.0799822470 0 -1
0.0301095830 -0.0816173650 1 -1
0.0341331600 -0.0841091490 1 -1
0.0375522350 -0.0871997820 1 -1
0.0400400820 -0.0905644830 1 -1
0.0413666640 -0.0938429350 1 -1
0.0414217510 -0.0966770720 1 -1
0.0402228550 -0.0987508750 1 -1
0.0379060190 -0.0998258670 1 -1
0.0347035930 -0.0997664230 1 -1
0.0309165340 -0.0985517900 1 -1
0.0268874320 -0.0962752740 0 -1
0.0229763210 -0.0931328340 0 -1
0.0195372650 -0.0894030310 0 -1
0.0168918750 -0.0854201660 0 -1
0.0152987770 -0.0815428660 0 -1
0.0149236190 -0.0781204250 0 -1
0.0158163980 -0.0754594540 0 -1
0.0179007450 -0.0737940850 0 -1
0.0209773360 -0.0732630940 0 -1
0.0247417480 -0.0738960980 0 -1
0.0288149500 -0.0756101760 0 -1
0.0327825120 -0.0782180400 1 -1
0.0362372660 -0.0814474570 1 -1
0.0388206180 -0.0849691280 1 -1
0.0402592510 -0.0884286500 1 -1
0.0403935840 -0.0914792680 1 -1
0.0391936680 -0.0938138920 1 -1
0.0367607970 -0.0951947950 1 -1
0.0333167640 -0.0954775740 1 -1
0.0291830600 -0.0946256080 0 -1
0.0247508400 -0.0927129820 0 -1
0.0204428460 -0.0899160950 0 -1
0.0166711390 -0.0864954290 0 -1
0.0137960630 -0.0827695430 0 -1
0.0120903800 -0.0790840960 0 -1
0.0117110250 -0.0757794320 0 -1
0.0126817070 -0.0731594130 0 -1
0.0148903300 -0.0714627240 0 -1
0.0181030210 -0.0708380920 0 -1
0.0219914720 -0.0713270660 0 -1
0.0261669160 -0.0728587020 0 -1
0.0302161440 -0.0752576280 1 -1
0.0337385670 -0.0782635510 1 -1
0.0363836520 -0.0815589050 1 -1
0.0378858770 -0.0848009300 1 -1
0.0380924980 -0.0876545590 1 -1
0.0369795680 -0.0898238820 1 -1
0.0346538960 -0.0910807970 1 -1
0.0313408760 -0.0912881280 1 -1
0.0273595910 -0.0904133540 0 -1
0.0230890680 -0.0885307230 0 -1
0.0189315730 -0.0858125300 0 -1
0.0152772760 -0.0825119420 0 -1
0.0124703270 -0.0789395670 0 -1
0.0107751790 -0.0754353470 0 -1
0.0103473140 -0.0723376310 0 -1
0.0112163330 -0.0699516160 0 -1
0.0132853570 -0.0685195990 0 -1
0.0163443350 -0.0681964570 0 -1
0.0200923820 -0.0690335220 0 -1
0.0241648670 -0.0709719610 0 -1
0.0281633680 -0.0738457920 0 -1
0.0316892920 -0.0773947690 1 -1
0.0343821930 -0.0812869610 1 -1
0.0359601410 -0.0851499190 1 -1
0.0362550060 -0.0886081900 1 -1
0.0352342500 -0.0913232110 1 -1
0.0330038070 -0.0930303550 1 -1
0.0297918780 -0.0935682620 0 -1
0.0259188970 -0.0928971190 0 -1
0.0217609430 -0.0911040320 0 -1
0.0177117920 -0.0883945640 0 -1
0.0141465470 -0.0850709050 0 -1
0.0113888460 -0.0814992350 0 -1
0.0096831890 -0.0780702250 0 -1
0.0091743070 -0.0751573090 0 -1
0.0098956810 -0.0730780500 0 -1
0.0117679320 -0.0720632460 0 -1
0.0146060940 -0.0722360490 0 -1
0.0181349040 -0.0736014740 0 -1
0.0220119900 -0.0760465800 0 -1
0.0258578970 -0.0793523200 0 -1
0.0292905780 -0.0832166990 0 -1
0.0319620310 -0.0872858890 1 -1
0.0335941720 -0.0911887880 1 -1
0.0340090380 -0.0945719020 1 -1
0.0331482350 -0.0971321620 1 -1
0.0310793080 -0.0986448010 1 -1
0.0279892030 -0.0989842340 0 -1
0.0241655840 -0.0981370030 0 -1
0.0199679590 -0.0962047360 0 -1
0.0157922470 -0.0933943710 0 -1
0.0120322110 -0.0899958320 0 -1
0.0090406960 -0.0863510600 0 -1
0.0070949380 -0.0828188840 0 -1
0.0063705030 -0.0797396260 0 -1
0.0069258640 -0.0774036700 0 -1
0.0086969460 -0.0760272500 0 -1
0.0115011850 -0.0757354280 0 -1
0.0150524750 -0.0765509390 0 -1
0.0189877520 -0.0783900410 0 -1
0.0229027850 -0.0810679500 0 -1
0.0263927640 -0.0843148070 0 -1
0.0290937970 -0.0878010450 0 -1
0.0307219280 -0.0911699610 1 -1
0.0311054330 -0.0940744100 1 -1
0.0302056690 -0.0962129760 1 -1
0.0281228780 -0.0973603020 0 -1
0.0250860380 -0.0973883230 0 -1
0.0214283260 -0.0962777700 0 -1
0.0175512180 -0.0941193600 0 -1
0.0138819020 -0.0911043710 0 -1
0.0108294560 -0.0875063410 0 -1
0.0087435850 -0.0836563740 0 -1
0.0078790190 -0.0799133720 0 -1
0.0083697310 -0.0766307370 0 -1
0.0102161370 -0.0741223610 0 -1
0.0132855140 -0.0726305950 0 -1
0.0173244850 -0.0722987420 0 -1
0.0219825140 -0.0731526870 0 -1
0.0268450450 -0.0750968090 0 -1
0.0314736030 -0.0779254500 1 -1
0.0354492250 -0.0813467340 1 -1
0.0384149690 -0.0850142130 1 -1
0.0401122340 -0.0885620340 1 -1
0.0404057000 -0.0916398990 1 -1
0.0392941360 -0.0939451970 1 -1
0.0369072480 -0.0952502300 1 -1
0.0334906240 -0.0954229240 1 -1
0.0293816960 -0.0944396150 0 -1
0.0249785640 -0.0923882510 0 -1
0.0207025790 -0.0894609350 0 -1
0.0169583090 -0.0859363180 0 -1
0.0140969670 -0.0821533790 0 -1
0.0123874460 -0.0784785190 0 -1
0.0119957670 -0.0752688930 0 -1
0.0129717050 -0.0728360630 0 -1
0.0152417290 -0.0714145520 0 -1
0.0186101740 -0.0711388600 0 -1
0.0227724650 -0.0720306920 0 -1
0.0273419360 -0.0739971020 0 -1
0.0318865290 -0.0768399330 1 -1
0.0359693540 -0.0802762180 1 -1
0.0391900470 -0.0839678100 1 -1
0.0412257420 -0.0875566800 1 -1
0.0418680900 -0.0907008360 1 -1
0.0410503240 -0.0931064800 1 -1
0.0388582970 -0.0945540530 1 -1
0.0355211760 -0.0949168420 1 -1
0.0313826770 -0.0941707410 1 -1
0.0268601150 -0.0923945770 0 -1
0.0224006580 -0.0897621270 0 -1
0.0184401900 -0.0865271930 0 -1
0.0153650350 -0.0830019560 0 -1
0.0134759480 -0.0795288270 0 -1
0.0129569100 -0.0764478700 0 -1
0.0138536950 -0.0740633070 0 -1
0.0160666440 -0.0726126610 0 -1
0.0193597940 -0.0722416160 0 -1
0.0233859880 -0.0729875900 0 -1
0.0277250020 -0.0747749040 0 -1
0.0319294990 -0.0774229980 1 -1
0.0355729670 -0.0806662080 1 -1
0.0382942450 -0.0841816840 1 -1
0.0398337730 -0.0876220300 1 -1
0.0400576880 -0.0906496350 1 -1
0.0389678800 -0.0929696830 1 -1
0.0366983190 -0.0943582360 1 -1
0.0334991480 -0.0946820280 1 -1
0.0297098270 -0.0939085580 0 -1
0.0257231430 -0.0921074070 0 -1
0.0219443280 -0.0894439490 0 -1
0.0187508050 -0.0861656600 0 -1
0.0164557900 -0.0825812200 0 -1
0.0152780720 -0.0790330940 0 -1
0.0153229240 -0.0758650060 0 -1
0.0165784950 -0.0733874120 0 -1
0.0189259640 -0.0718454840 0 -1
0.0221571130 -0.0713935860 0 -1
0.0259939070 -0.0720785390 0 -1
0.0301090100 -0.0738332890 1 -1
0.0341497960 -0.0764823900 1 -1
0.0377674130 -0.0797592630 1 -1
0.0406484280 -0.0833330340 1 -1
0.0425441480 -0.0868413690 1 -1
0.0432938250 -0.0899256800 1 -1
0.0428400520 -0.0922656670 1 -1
0.0412354270 -0.0936106700 1 -1
0.0386398020 -0.0938052270 1 -1
0.0353076380 -0.0928057030 1 -1
0.0315652880 -0.0906850700 1 -1
0.0277797500 -0.0876249310 0 -1
0.0243225510 -0.0838968120 0 -1
0.0215321970 -0.0798361280 0 -1
0.0196783250 -0.0758111570 0 -1
0.0189316200 -0.0721882290 0 -1
0.0193439790 -0.0692953600 0 -1
0.0208423300 -0.0673889330 0 -1
0.0232373200 -0.0666285870 0 -1
0.0262455460 -0.0670632070 0 -1
0.0295212660 -0.0686276770 0 -1
0.0326922030 -0.0711487510 1 -1
0.0353953290 -0.0743594410 1 -1
0.0373108600 -0.0779225210 1 -1
0.0381932430 -0.0814632090 1 -1
0.0378964370 -0.0846083280 1 -1
0.0363903800 -0.0870264110 1 -1
0.0337668970 -0.0884629880 1 -1
0.0302341060 -0.0887672070 1 -1
0.0260993090 -0.0879073640 0 -1
0.0217418440 -0.0859736160 0 -1
0.0175772770 -0.0831673460 0 -1
0.0140148680 -0.0797784160 0 -1
0.0114133720 -0.0761528190 0 -1
0.0100416000 -0.0726543960 0 -1
0.0100483760 -0.0696254210 0 -1
0.0114451090 -0.0673516160 0 -1
0.0141037990 -0.0660362340 0 -1
0.0177713450 -0.0657851580 0 -1
0.0220979030 -0.0666021180 0 -1
0.0266755510 -0.0683919650 0 -1
0.0310823480 -0.0709704370 1 -1
0.0349252580 -0.0740799020 1 -1
0.0378758270 -0.0774114050 1 -1
0.0396955300 -0.0806326510 1 -1
0.0402518520 -0.0834194650 1 -1
0.0395284110 -0.0854871540 1 -1
0.0376290870 -0.0866185550 1 -1
0.0347711100 -0.0866862020 1 -1
0.0312638190 -0.0856662930 1 -1
0.0274765910 -0.0836422620 0 -1
0.0238019470 -0.0807968970 0 -1
0.0206173780 -0.0773940080 0 -1
0.0182484170 -0.0737524050 0 -1
0.0169366050 -0.0702151020 0 -1
0.0168151500 -0.0671166740 0 -1
0.0178937500 -0.0647521530 0 -1
0.0200553060 -0.0633497850 0 -1
0.0230676110 -0.0630483960 0 -1
0.0266093660 -0.0638810800 0 -1
0.0303057130 -0.0657689880 1 -1
0.0337671190 -0.0685279770 1 -1
0.0366264830 -0.0718872250 1 -1
0.0385723530 -0.0755163960 1 -1
0.0393787530 -0.0790577760 1 -1
0.0389310430 -0.0821604550 1 -1
0.0372432530 -0.0845138470 1 -1
0.0344608480 -0.0858778780 1 -1
0.0308460900 -0.0861071930 1 -1
0.0267476510 -0.0851666400 0 -1
0.0225592870 -0.0831354890 0 -1
0.0186754440 -0.0801990890 0 -1
0.0154524450 -0.0766291310 0 -1
0.0131795530 -0.0727561930 0 -1
0.0120590400 -0.0689386460 0 -1
0.0121925310 -0.0655300930 0 -1
0.0135714350 -0.0628463040 0 -1
0.0160725980 -0.0611335490 0 -1
0.0194641640 -0.0605421910 0 -1
0.0234250760 -0.0611099750 0 -1
0.0275762240 -0.0627575800 0 -1
0.0315176350 -0.0652966850 1 -1
0.0348661070 -0.0684497310 1 -1
0.0372907990 -0.0718795750 1 -1
0.0385465240 -0.0752254890 1 -1
0.0385021700 -0.0781408940 1 -1
0.0371583440 -0.0803285210 1 -1
0.0346489720 -0.0815693020 1 -1
0.0312257110 -0.0817419380 1 -1
0.0272293140 -0.0808317480 0 -1
0.0230551390 -0.0789292110 0 -1
0.0191175590 -0.0762195350 0 -1
0.0158128370 -0.0729650220 0 -1
0.0134799880 -0.0694817810 0 -1
0.0123642970 -0.0661112860 0 -1
0.0125909010 -0.0631875030 0 -1
0.0141527470 -0.0610026290 0 -1
0.0169126180 -0.0597763030 0 -1
0.0206173220 -0.0596328270 0 -1
0.0249227030 -0.0605891220 0 -1
0.0294275970 -0.0625540750 0 -1
0.0337134820 -0.0653386480 1 -1
0.0373858130 -0.0686753030 1 -1
0.0401122260 -0.0722445570 1 -1
0.0416528160 -0.0757060140 1 -1
0.0418794260 -0.0787306810 1 -1
0.0407836710 -0.0810312580 1 -1
0.0384750740 -0.0823881190 1 -1
0.0351707130 -0.0826694240 1 -1
0.0311769880 -0.0818438630 1 -1
0.0268636320 -0.0799847690 0 -1
0.0226305980 -0.0772647770 0 -1
0.0188703980 -0.0739406310 0 -1
0.0159304380 -0.0703290450 0 -1
0.0140797080 -0.0667762430 0 -1
0.0134825550 -0.0636247340 0 -1
0.0141814290 -0.0611805590 0 -1
0.0160905850 -0.0596829070 0 -1
0.0190028510 -0.0592782760 0 -1
0.0226098840 -0.0600033990 0 -1
0.0265328370 -0.0617807970 0 -1
0.0303589070 -0.0644274320 1 -1
0.0336811440 -0.0676746620 1 -1
0.0361399090 -0.0711968220 1 -1
0.0374618630 -0.0746445240 1 -1
0.0374907110 -0.0776785110 1 -1
0.0362055260 -0.0800010390 1 -1
0.0337245780 -0.0813827220 1 -1
0.0302939350 -0.0816833840 1 -1
0.0262614190 -0.0808656500 0 -1
0.0220385800 -0.0789997270 0 -1
0.0180563080 -0.0762577740 0 -1
0.0147200130 -0.0728974790 0 -1
0.0123680410 -0.0692364450 0 -1
0.0112372300 -0.0656209110 0 -1
0.0114406770 -0.0623930520 0 -1
0.0129597630 -0.0598597850 0 -1
0.0156486840 -0.0582642990 0 -1
0.0192501340 -0.0577620820 0 -1
0.0234219650 -0.0584042430 0 -1
0.0277725780 -0.0601306940 0 -1
0.0319002240 -0.0627746310 1 -1
0.0354307210 -0.0660780870 1 -1
0.0380490960 -0.0697165070 1 -1
0.0395236130 -0.0733298380 1 -1
0.0397233390 -0.0765579790 1 -1
0.0386294940 -0.0790779690 1 -1
0.0363391540 -0.0806388530 1 -1
0.0330605380 -0.0810889230 1 -1
0.0290989320 -0.0803908410 0 -1
0.0248312340 -0.0786229090 0 -1
0.0206694740 -0.0759677770 0 -1
0.0170179250 -0.0726912650 0 -1
0.0142301550 -0.0691138470 0 -1
0.0125717580 -0.0655776930 0 -1
0.0121939810 -0.0624132480 0 -1
0.0131209960 -0.0599090970 0 -1
0.0152488490 -0.0582866190 0 -1
0.0183539130 -0.0576798460 0 -1
0.0221133010 -0.0581224700 0 -1
0.0261386660 -0.0595445850 0 -1
0.0300179840 -0.0617795590 1 -1
0.0333572520 -0.0645794360 1 -1
0.0358178220 -0.0676375640 1 -1
0.0371484240 -0.0706172740 1 -1
0.0372106620 -0.0731843680 1 -1
0.0359944220 -0.0750404000 1 -1
0.0336189130 -0.0759538160 1 -1
0.0303180670 -0.0757855040 1 -1
0.0264137630 -0.0745047300 0 -1
0.0222827570 -0.0721928960 0 -1
0.0183221720 -0.0690358270 0 -1
0.0149155370 -0.0653066560 0 -1
0.0123988330 -0.0613402940 0 -1
0.0110272080 -0.0575003600 0 -1
0.0109472640 -0.0541415590 0 -1
0.0121808910 -0.0515725310 0 -1
0.0146222840 -0.0500243490 0 -1
0.0180467910 -0.0496286220 0 -1
0.0221315340 -0.0504071380 0 -1
0.0264875250 -0.0522725270 0 -1
0.0306991940 -0.0550379050 1 -1
0.0343649990 -0.0584337040 1 -1
0.0371352410 -0.0621307570 1 -1
0.0387459010 -0.0657689130 1 -1
0.0390455240 -0.0689898980 1 -1
0.0380094520 -0.0714722600 1 -1
0.0357381520 -0.0729651910 1 -1
0.0324423500 -0.0733169140 1 -1
0.0284202660 -0.0724928880 0 -1
0.0240308790 -0.0705806690 0 -1
0.0196658900 -0.0677807660 0 -1
0.0157215200 -0.0643848460 0 -1
0.0125677000 -0.0607444350 0 -1
0.0105116030 -0.0572348300 0 -1
0.0097594200 -0.0542186470 0 -1
0.0103866180 -0.0520111910 0 -1
0.0123252430 -0.0508485590 0 -1
0.0153713560 -0.0508612580 0 -1
0.0192107120 -0.0520584100 0 -1
0.0234559940 -0.0543266740 0 -1
0.0276875530 -0.0574440450 0 -1
0.0314928380 -0.0611047440 1 -1
0.0345041720 -0.0649506810 1 -1
0.0364352030 -0.0686061420 1 -1
0.0371122800 -0.0717128320 1 -1
0.0364935240 -0.0739627630 1 -1
0.0346707040 -0.0751272580 1 -1
0.0318546990 -0.0750803690 1 -1
0.0283489610 -0.0738137310 0 -1
0.0245164280 -0.0714389420 0 -1
0.0207450790 -0.0681754100 0 -1
0.0174153260 -0.0643258880 0 -1
0.0148688690 -0.0602445040 0 -1
0.0133781710 -0.0563019460 0 -1
0.0131187040 -0.0528511190 0 -1
0.0141470080 -0.0501950950 0 -1
0.0163872700 -0.0485587890 0 -1
0.0196314030 -0.0480670350 0 -1
0.0235578060 -0.0487324640 0 -1
0.0277681370 -0.0504553450 0 -1
0.0318339490 -0.0530349710 1 -1
0.0353429020 -0.0561899810 1 -1
0.0379387840 -0.0595850820 1 -1
0.0393549190 -0.0628626930 1 -1
0.0394411370 -0.0656775540 1 -1
0.0381810060 -0.0677313470 1 -1
0.0356940860 -0.0688041420 1 -1
0.0322210800 -0.0687784790 1 -1
0.0280957780 -0.0676512650 0 -1
0.0237110310 -0.0655313420 0 -1
0.0194836690 -0.0626245960 0 -1
0.0158189910 -0.0592102540 0 -1
0.0130747730 -0.0556117870 0 -1
0.0115268390 -0.0521654070 0 -1
0.0113400210 -0.0491887960 0 -1
0.0125489680 -0.0469524920 0 -1
0.0150521540 -0.0456560220 0 -1
0.0186202560 -0.0454100320 0 -1
0.0229183340 -0.0462256280 0 -1
0.0275396810 -0.0480121730 0 -1
0.0320474210 -0.0505843220 1 -1
0.0360184920 -0.0536784630 1 -1
0.0390847250 -0.0569775360 1 -1
0.0409676240 -0.0601420680 1 -1
0.0415047440 -0.0628444910 1 -1
0.0406651800 -0.0648025880 1 -1
0.0385518730 -0.0658075790 1 -1
0.0353896110 -0.0657437070 1 -1
0.0314992360 -0.0645977580 1 -1
0.0272619750 -0.0624584040 0 -1
0.0230813690 -0.0595072050 0 -1
0.0193480650 -0.0560035710 0 -1
0.0164066280 -0.0522642790 0 -1
0.0145225230 -0.0486369420 0 -1
0.0138535120 -0.0454678070 0 -1
0.0144338580 -0.0430662110 0 -1
0.0161752670 -0.0416703250 0 -1
0.0188809510 -0.0414200710 0 -1
0.0222673750 -0.0423416180 0 -1
0.0259911220 -0.0443450970 0 -1
0.0296806130 -0.0472348850 0 -1
0.0329715600 -0.0507302420 1 -1
0.0355426900 -0.0544930230 1 -1
0.0371470990 -0.0581593210 1 -1
0.0376352700 -0.0613728370 1 -1
0.0369676630 -0.0638181360 1 -1
0.0352166940 -0.0652512420 1 -1
0.0325589300 -0.0655246170 1 -1
0.0292589190 -0.0646039800 0 -1
0.0256465250 -0.0625745390 0 -1
0.0220885110 -0.0596343130 0 -1
0.0189541580 -0.0560739540 0 -1
0.0165774290 -0.0522456200 0 -1
0.0152217300 -0.0485254950 0 -1
0.0150527870 -0.0452746510 0 -1
0.0161210160 -0.0428027290 0 -1
0.0183523150 -0.0413387790 0 -1
0.0215486790 -0.0410120690 0 -1
0.0254037360 -0.0418435680 0 -1
0.0295354350 -0.0437476160 0 -1
0.0335298220 -0.0465422890 1 -1
0.0369864650 -0.0499665370 1 -1
0.0395599110 -0.0537027730 1 -1
0.0409944730 -0.0574039980 1 -1
0.0411489880 -0.0607241750 1 -1
0.0400091650 -0.0633497430 1 -1
0.0376875660 -0.0650297990 1 -1
0.0344120980 -0.0656021590 1 -1
0.0305039790 -0.0650115180 1 -1
0.0263470030 -0.0633163400 0 -1
0.0223510920 -0.0606837140 0 -1
0.0189138580 -0.0573735920 0 -1
0.0163834910 -0.0537140540 0 -1
0.0150250110 -0.0500689760 0 -1
0.0149915520 -0.0468004670 0 -1
0.0163040220 -0.0442306030 0 -1
0.0188442830 -0.0426080780 0 -1
0.0223659620 -0.0420835930 0 -1
0.0265226540 -0.0426958220 0 -1
0.0309075690 -0.0443693900 1 -1
0.0350964590 -0.0469249720 1 -1
0.0386888670 -0.0500994340 1 -1
0.0413463730 -0.0535728270 1 -1
0.0428256760 -0.0569992870 1 -1
0.0430018890 -0.0600395850 1 -1
0.0418782430 -0.0623931720 1 -1
0.0395813800 -0.0638268880 1 -1
0.0363431790 -0.0641974300 1 -1
0.0324727380 -0.0634652810 1 -1
0.0283254870 -0.0616983810 0 -1
0.0242754780 -0.0590651920 0 -1
0.0206904430 -0.0558181260 0 -1
0.0179040960 -0.0522687040 0 -1
0.0161835080 -0.0487567520 0 -1
0.0156977660 -0.0456172690 0 -1
0.0164959220 -0.0431482300 0 -1
0.0184976150 -0.0415812470 0 -1
0.0214972220 -0.0410577080 0 -1
0.0251824340 -0.0416139510 0 -1
0.0291667470 -0.0431778620 0 -1
0.0330319560 -0.0455772750 1 -1
0.0363738110 -0.0485589180 1 -1
0.0388440070 -0.0518153120 1 -1
0.0401843930 -0.0550162980 1 -1
0.0402513570 -0.0578416060 1 -1
0.0390282630 -0.0600110300 1 -1
0.0366241980 -0.0613098300 1 -1
0.0332602310 -0.0616078850 1 -1
0.0292467370 -0.0608714390 0 -1
0.0249550790 -0.0591663630 0 -1
0.0207858640 -0.0566522260 0 -1
0.0171349410 -0.0535675250 0 -1
0.0143570710 -0.0502074700 0 -1
0.0127284490 -0.0468965800 0 -1
0.0124135510 -0.0439587660 0 -1
0.0134440290 -0.0416872310 0 -1
0.0157147720 -0.0403161120 0 -1
0.0189971770 -0.0399958810 0 -1
0.0229650220 -0.0407747390 0 -1
0.0272266380 -0.0425886380 0 -1
0.0313604050 -0.0452630990 1 -1
0.0349535930 -0.0485287910 1 -1
0.0376425320 -0.0520498220 1 -1
0.0391493470 -0.0554604060 1 -1
0.0393109250 -0.0584045280 1 -1
0.0380974840 -0.0605739190 1 -1
0.0356190630 -0.0617401460 1 -1
0.0321180470 -0.0617766390 1 -1
0.0279456300 -0.0606681370 0 -1
0.0235224570 -0.0585080920 0 -1
0.0192893740 -0.0554868690 0 -1
0.0156586910 -0.0518732880 0 -1
0.0129748890 -0.0479906180 0 -1
0.0114870750 -0.0441878890 0 -1
0.0113303070 -0.0408080160 0 -1
0.0125135380 -0.0381546380 0 -1
0.0149160640 -0.0364609560 0 -1
0.0182967140 -0.0358657550 0 -1
0.0223179180 -0.0364002040 0 -1
0.0265822630 -0.0379854970 0 -1
0.0306755980 -0.0404409690 1 -1
0.0342092750 -0.0435031620 1 -1
0.0368552680 -0.0468539330 1 -1
0.0383713980 -0.0501529170 1 -1
0.0386180580 -0.0530699970 1 -1
0.0375696400 -0.0553152040 1 -1
0.0353214190 -0.0566649060 1 -1
0.0320875620 -0.0569829970 1 -1
0.0281835170 -0.0562344020 0 -1
0.0239916510 -0.0544879840 0 -1
0.0199190110 -0.0519083550 0 -1
0.0163585950 -0.0487392800 0 -1
0.0136575430 -0.0452822240 0 -1
0.0120876370 -0.0418710560 0 -1
0.0118152280 -0.0388419170 0 -1
0.0128768820 -0.0364995520 0 -1
0.0151711710 -0.0350848530 0 -1
0.0184700160 -0.0347482820 0 -1
0.0224437610 -0.0355319590 0 -1
0.0266929560 -0.0373625930 0 -1
0.0307842640 -0.0400572920 1 -1
0.0342900760 -0.0433425800 1 -1
0.0368304700 -0.0468839560 1 -1
0.0381149100 -0.0503214890 1 -1
0.0379789520 -0.0533069350 1 -1
0.0364084220 -0.0555388530 1 -1
0.0335430860 -0.0567923310 1 -1
0.0296569730 -0.0569401110 0 -1
0.0251212830 -0.0559635060 0 -1
0.0203609200 -0.0539536590 0 -1
0.0158130590 -0.0511038550 0 -1
0.0118902910 -0.0476927850 0 -1
0.0089481030 -0.0440588070 0 -1
0.0072568480 -0.0405664550 0 -1
0.0069792210 -0.0375685450 0 -1
0.0081545120 -0.0353691750 0 -1
0.0106910400 -0.0341924940 0 -1
0.0143689310 -0.0341597520 0 -1
0.0188552030 -0.0352761760 0 -1
0.0237313230 -0.0374294180 0 -1
0.0285317230 -0.0404001700 0 -1
0.0327903330 -0.0438839150 1 -1
0.0360910750 -0.0475224190 1 -1
0.0381165920 -0.0509425430 1 -1
0.0386857660 -0.0537972280 1 -1
0.0377707400 -0.0558020070 1 -1
0.0354926530 -0.0567618660 1 -1
0.0321029330 -0.0565863470 1 -1
0.0279555240 -0.0552936260 0 -1
0.0234707820 -0.0530054520 0 -1
0.0190923650 -0.0499341550 0 -1
0.0152429840 -0.0463621600 0 -1
0.0122862190 -0.0426154440 0 -1
0.0104964750 -0.0390338900 0 -1
0.0100349690 -0.0359417630 0 -1
0.0109327720 -0.0336202350 0 -1
0.0130860310 -0.0322828020 0 -1
0.0162664230 -0.0320549300 0 -1
0.0201448910 -0.0329603380 0 -1
0.0243244360 -0.0349166290 0 -1
0.0283782610 -0.0377416700 0 -1
0.0318911710 -0.0411700640 1 -1
0.0345028970 -0.0448774590 1 -1
0.0359489860 -0.0485104450 1 -1
0.0360903790 -0.0517205330 1 -1
0.0349248150 -0.0541998760 1 -1
0.0325809720 -0.0557139430 1 -1
0.0293000010 -0.0561257110 0 -1
0.0254081320 -0.0554087230 0 -1
0.0212837540 -0.0536487510 0 -1
0.0173224340 -0.0510339330 0 -1
0.0139017220 -0.0478337140 0 -1
0.0113466700 -0.0443691820 0 -1
0.0098988170 -0.0409791240 0 -1
0.0096934170 -0.0379863270 0 -1
0.0107481150 -0.0356679030 0 -1
0.0129626960 -0.0342319120 0 -1
0.0161285390 -0.0338007090 0 -1
0.0199480200 -0.0344007210 0 -1
0.0240631930 -0.0359589910 0 -1
0.0280886320 -0.0383078000 0 -1
0.0316434180 -0.0411986980 1 -1
0.0343836580 -0.0443257540 1 -1
0.0360376650 -0.0473555180 1 -1
0.0364387020 -0.0499605640 1 -1
0.0355468740 -0.0518540470 1 -1
0.0334551400 -0.0528216570 1 -1
0.0303784450 -0.0527458000 1 -1
0.0266287540 -0.0516176920 0 -1
0.0225818430 -0.0495364990 0 -1
0.0186414410 -0.0466976800 0 -1
0.0152030450 -0.0433730700 0 -1
0.0126172550 -0.0398845140 0 -1
0.0111538190 -0.0365730030 0 -1
0.0109712480 -0.0337658200 0 -1
0.0120979560 -0.0317444340 0 -1
0.0144287250 -0.0307165050 0 -1
0.0177368400 -0.0307953550 0 -1
0.0216985390 -0.0319886930 0 -1
0.0259253850 -0.0341970120 0 -1
0.0300016430 -0.0372219610 1 -1
0.0335242760 -0.0407844650 1 -1
0.0361426340 -0.0445507910 1 -1
0.0375943420 -0.0481633180 1 -1
0.0377331200 -0.0512729860 1 -1
0.0365445800 -0.0535716720 1 -1
0.0341474260 -0.0548231170 1 -1
0.0307792860 -0.0548892850 1 -1
0.0267697210 -0.0537478130 0 -1
0.0225057370 -0.0514973670 0 -1
0.0183943680 -0.0483497140 0 -1
0.0148252020 -0.0446087920 0 -1
0.0121358640 -0.0406391440 0 -1
0.0105832680 -0.0368280130 0 -1
0.0103209380 -0.0335453340 0 -1
0.0113817360 -0.0311054850 0 -1
0.0136685530 -0.0297351610 0 0
0.0169588690 -0.0295518000 0 0
0.0209267840 -0.0305551850 0 -1
0.0251790660 -0.0326319330 0 -1
0.0292965940 -0.0355701480 0 -1
0.0328744300 -0.0390811710 1 -1
0.0355589210 -0.0428264590 1 -1
0.0370812330 -0.0464486180 1 -1
0.0372844790 -0.0496048690 1 -1
0.0361411920 -0.0519995620 1 -1
0.0337584960 -0.0534117280 1 -1
0.0303680510 -0.0537148070 1 -1
0.0263002680 -0.0528869840 0 -1
0.0219476250 -0.0510114770 0 -1
0.0177247790 -0.0482674860 0 -1
0.0140306900 -0.0449135340 0 -1
0.0112139750 -0.0412645680 0 -1
0.0095422620 -0.0376634310 0 -1
0.0091777090 -0.0344482120 0 -1
0.0101600500 -0.0319187750 0 -1
0.0123979570 -0.0303063930 0 -1
0.0156720520 -0.0297498690 0 0
0.0196538830 -0.0302810540 0 -1
0.0239410690 -0.0318223040 0 -1
0.0281031770 -0.0341964360 0 -1
0.0317293770 -0.0371466360 1 -1
0.0344700020 -0.0403622770 1 -1
0.0360693310 -0.0435076040 1 -1
0.0363890430 -0.0462518940 1 -1
0.0354194100 -0.0483000620 1 -1
0.0332758970 -0.0494218680 1 -1
0.0301831000 -0.0494767670 1 -1
0.0264504760 -0.0484306910 0 -1
0.0224441100 -0.0463618490 0 -1
0.0185565070 -0.0434548190 0 -1
0.0151738010 -0.0399831050 0 -1
0.0126402200 -0.0362811540 0 -1
0.0112226770 -0.0327091500 0 -1
0.0110801810 -0.0296155430 0 0
0.0122423470 -0.0273020330 0 0
0.0146005340 -0.0259946090 0 0
0.0179148270 -0.0258227030 0 0
0.0218387130 -0.0268074760 0 0
0.0259598080 -0.0288596930 0 0
0.0298503370 -0.0317874360 0 -1
0.0331178710 -0.0353142050 1 -1
0.0354473250 -0.0391067160 1 -1
0.0366289090 -0.0428083720 1 -1
0.0365714320 -0.0460731250 1 -1
0.0353032480 -0.0485968220 1 -1
0.0329632550 -0.0501448890 1 -1
0.0297840790 -0.0505744180 0 -1
0.0260700980 -0.0498480450 0 -1
0.0221729630 -0.0480382560 0 -1
0.0184653720 -0.0453222040 0 -1
0.0153116100 -0.0419671820 0 -1
0.0130337330 -0.0383066070 0 -1
0.0118756760 -0.0347075710 0 -1
0.0119721070 -0.0315329960 0 -1
0.0133301330 -0.0291028740 0 0
0.0158277310 -0.0276600720 0 0
0.0192277530 -0.0273458530 0 0
0.0232044540 -0.0281876380 0 0
0.0273781800 -0.0300985240 0 -1
0.0313528420 -0.0328874160 1 -1
0.0347518120 -0.0362792080 1 -1
0.0372497620 -0.0399434630 1 -1
0.0385997520 -0.0435281340 1 -1
0.0386559060 -0.0466943880 1 -1
0.0373903480 -0.0491490850 1 -1
0.0349006850 -0.0506717740 1 -1
0.0314051050 -0.0511336570 1 -1
0.0272241450 -0.0505072320 0 -1
0.0227493710 -0.0488662730 0 -1
0.0184021900 -0.0463769450 0 -1
0.0145890960 -0.0432821110 0 -1
0.0116595410 -0.0398804840 0 -1
0.0098716030 -0.0365007180 0 -1
0.0093696010 -0.0334709140 0 -1
0.0101752240 -0.0310860500 0 -1
0.0121905960 -0.0295770910 0 0
0.0152099500 -0.0290859720 0 0
0.0189371330 -0.0296499020 0 0
0.0230087970 -0.0311963640 0 -1
0.0270244810 -0.0335492480 0 -1
0.0305832550 -0.0364469010 1 -1
0.0333237200 -0.0395715070 1 -1
0.0349616110 -0.0425858950 1 -1
0.0353199190 -0.0451713040 1 -1
0.0343497660 -0.0470595430 1 -1
0.0321397240 -0.0480557370 1 -1
0.0289082910 -0.0480522570 0 -1
0.0249769910 -0.0470360670 0 -1
0.0207298540 -0.0450900150 0 -1
0.0165704540 -0.0423871160 0 -1
0.0128846230 -0.0391771280 0 -1
0.0100089120 -0.0357652480 0 -1
0.0082010910 -0.0324837620 0 -1
0.0076130720 -0.0296588070 0 0
0.0082721770 -0.0275754470 0 0
0.0100765290 -0.0264456540 0 0
0.0128053780 -0.0263843910 0 0
0.0161419610 -0.0273972500 0 0
0.0197063690 -0.0293807880 0 0
0.0230948660 -0.0321347870 0 -1
0.0259203840 -0.0353837700 0 -1
0.0278504200 -0.0388045000 0 -1
0.0286413930 -0.0420572380 0 -1
0.0281674800 -0.0448189420 0 -1
0.0264386530 -0.0468151160 0 -1
0.0236025600 -0.0478459210 0 -1
0.0199280800 -0.0478035650 0 -1
0.0157728120 -0.0466806130 0 -1
0.0115410220 -0.0445704030 0 -1
0.0076398520 -0.0416603270 0 -1
0.0044395280 -0.0382172840 0 -1
0.0022413790 -0.0345641040 0 -1
0.0012553550 -0.0310479140 0 -1
0.0015856520 -0.0280043200 0 0
0.0032223210 -0.0257225410 0 0
0.0060396190 -0.0244156340 0 0
0.0098042400 -0.0241984000 0 0
0.0141951830 -0.0250752710 0 0
0.0188337330 -0.0269406950 0 0
0.0233195730 -0.0295926320 0 0
0.0272670000 -0.0327556140 0 -1
0.0303362550 -0.0361079380 1 -1
0.0322601170 -0.0393100770 1 -1
0.0328680880 -0.0420345580 1 -1
0.0321066570 -0.0439971490 1 -1
0.0300510340 -0.0449865040 1 -1
0.0269042540 -0.0448876560 0 -1
0.0229817770 -0.0436951520 0 -1
0.0186822580 -0.0415140060 0 -1
0.0144476280 -0.0385487290 0 -1
0.0107167060 -0.0350821050 0 -1
0.0078768650 -0.0314466170 0 -1
0.0062198230 -0.0279920100 0 0
0.0059095150 -0.0250515150 0 0
0.0069677490 -0.0229089180 0 0
0.0092774910 -0.0217697810 0 0
0.0125995730 -0.0217410190 0 0
0.0165990010 -0.0228220610 0 0
0.0208784630 -0.0249079260 0 0
0.0250167580 -0.0278017170 0 0
0.0286101240 -0.0312336880 0 -1
0.0313142740 -0.0348851100 1 -1
0.0328825530 -0.0384156090 1 -1
0.0331930090 -0.0414930400 1 -1
0.0322579170 -0.0438246890 1 -1
0.0302145380 -0.0451865210 1 -1
0.0273029410 -0.0454459900 0 -1
0.0238384300 -0.0445755560 0 -1
0.0201812230 -0.0426561210 0 -1
0.0167032650 -0.0398703170 0 -1
0.0137545410 -0.0364857820 0 -1
0.0116324440 -0.0328294840 0 -1
0.0105562690 -0.0292555450 0 0
0.0106476710 -0.0261101750 0 0
0.0119174610 -0.0236977760 0 0
0.0142595530 -0.0222517340 0 0
0.0174548230 -0.0219122830 0 0
0.0211894600 -0.0227126720 0 0
0.0250896620 -0.0245742250 0 0
0.0287663870 -0.0273112920 0 0
0.0318579650 -0.0306474370 1 -1
0.0340625440 -0.0342427730 1 -1
0.0351608830 -0.0377299580 1 -1
0.0350329840 -0.0407538800 1 -1
0.0336693780 -0.0430087200 1 -1
0.0311748590 -0.0442674580 1 -1
0.0277618080 -0.0444019120 0 -1
0.0237320190 -0.0433933970 0 -1
0.0194490570 -0.0413340390 0 -1
0.0153048170 -0.0384184520 0 -1
0.0116830300 -0.0349259690 0 -1
0.0089220220 -0.0311943740 0 -1
0.0072798680 -0.0275869720 0 0
0.0069057310 -0.0244560840 0 0
0.0078220530 -0.0221069480 0 0
0.0099216660 -0.0207660700 0 0
0.0129799330 -0.0205573160 0 0
0.0166780730 -0.0214886510 0 0
0.0206339710 -0.0234519160 0 0
0.0244385430 -0.0262358680 0 0
0.0276952610 -0.0295498720 0 0
0.0300589510 -0.0330541800 1 -1
0.0312703630 -0.0363931960 1 -1
0.0311832420 -0.0392290440 1 -1
0.0297797080 -0.0412734620 0 -1
0.0271712180 -0.0423163480 0 -1
0.0235863380 -0.0422483190 0 -1
0.0193484320 -0.0410730690 0 -1
0.0148454880 -0.0389062010 0 -1
0.0104942590 -0.0359607180 0 -1
0.0067016070 -0.0325225740 0 -1
0.0038251250 -0.0289203870 0 0
0.0021356310 -0.0254925220 0 0
0.0017870890 -0.0225538730 0 0
0.0027999280 -0.0203654280 0 0
0.0050598090 -0.0191106130 0 0
0.0083306280 -0.0188809100 0 0
0.0122801410 -0.0196708040 0 0
0.0165161230 -0.0213811090 0 0
0.0206286570 -0.0238294920 0 0
0.0242323270 -0.0267670410 0 0
0.0270031900 -0.0298998060 0 0
0.0287078080 -0.0329140640 0 -1
0.0292232310 -0.0355039490 0 -1
0.0285469430 -0.0373997640 0 -1
0.0267950590 -0.0383943620 0 -1
0.0241878300 -0.0383650610 0 -1
0.0210237210 -0.0372889390 0 -1
0.0176456740 -0.0352485860 0 -1
0.0144053050 -0.0324259370 0 -1
0.0116307130 -0.0290846330 0 0
0.0096000140 -0.0255435820 0 0
0.0085198330 -0.0221452660 0 0
0.0085092520 -0.0192227320 0 0
0.0095910000 -0.0170682670 0 0
0.0116897880 -0.0159049570 0 0
0.0146366620 -0.0158626100 0 0
0.0181800280 -0.0169617400 0 0
0.0220048650 -0.0191096420 0 0
0.0257593090 -0.0221093650 0 0
0.0290858140 -0.0256793210 0 0
0.0316543080 -0.0294806490 1 0
0.0331953250 -0.0331501430 1 -1
0.0335308270 -0.0363361600 1 -1
0.0325999010 -0.0387335000 1 -1
0.0304743460 -0.0401125050 1 -1
0.0273575150 -0.0403390950 0 -1
0.0235632380 -0.0393851230 0 -1
0.0194784740 -0.0373297690 0 -1
0.0155186700 -0.0343528760 0 -1
0.0120853010 -0.0307208910 0 -1
0.0095284500 -0.0267651890 0 0
0.0081116270 -0.0228527550 0 0
0.0079806760 -0.0193512490 0 0
0.0091453410 -0.0165920690 0 0
0.0114788820 -0.0148355210 0 0
0.0147329310 -0.0142430680 0 0
0.0185621740 -0.0148611470 0 0
0.0225571420 -0.0166174010 0 0
0.0262857650 -0.0193273980 0 0
0.0293410180 -0.0227110420 0 0
0.0313873130 -0.0264197220 1 0
0.0321980260 -0.0300736270 1 -1
0.0316795580 -0.0333045880 1 -1
0.0298793820 -0.0357967180 0 -1
0.0269771090 -0.0373180720 0 -1
0.0232606770 -0.0377408780 0 -1
0.0190926180 -0.0370508290 0 -1
0.0148719900 -0.0353457760 0 -1
0.0109965060 -0.0328239330 0 -1
0.0078271270 -0.0297625790 0 0
0.0056558140 -0.0264889020 0 0
0.0046787660 -0.0233456770 0 0
0.0049796000 -0.0206558140 0 0
0.0065250710 -0.0186905640 0 0
0.0091715490 -0.0176452150 0 0
0.0126786250 -0.0176240410 0 0
0.0167281400 -0.0186341050 0 0
0.0209493980 -0.0205865770 0 0
0.0249509210 -0.0233048200 0 0
0.0283559020 -0.0265392290 0 0
0.0308372490 -0.0299883330 1 0
0.0321496390 -0.0333248800 1 -1
0.0321554250 -0.0362251950 1 -1
0.0308400340 -0.0383995550 1 -1
0.0283146760 -0.0396204090 0 -1
0.0248066980 -0.0397456480 0 -1
0.0206383260 -0.0387351640 0 -1
0.0161952390 -0.0366586660 0 -1
0.0118884670 -0.0336922490 0 -1
0.0081140920 -0.0301027260 0 -1
0.0052145420 -0.0262216170 0 0
0.0034450940 -0.0224124700 0 0
0.0029498850 -0.0190351340 0 0
0.0037503450 -0.0164097420 0 0
0.0057455380 -0.0147832490 0 0
0.0087225660 -0.0143025600 0 0
0.0123760570 -0.0149990160 0 0
0.0163355830 -0.0167871130 0 0
0.0201994020 -0.0194764520 0 0
0.0235725190 -0.0227926100 0 0
0.0261055490 -0.0264026840 0 0
0.0275307350 -0.0299442950 0 0
0.0276928460 -0.0330587440 0 -1
0.0265706350 -0.0354271120 0 -1
0.0242821290 -0.0368046620 0 -1
0.0210701750 -0.0370477680 0 -1
0.0172711010 -0.0361291450 0 -1
0.0132741520 -0.0341400190 0 -1
0.0094805160 -0.0312801890 0 -1
0.0062670980 -0.0278375410 0 0
0.0039549230 -0.0241583010 0 0
0.0027804360 -0.0206101200 0 0
0.0028709170 -0.0175423990 0 0
0.0042283230 -0.0152496980 0 0
0.0067258430 -0.0139432760 0 0
0.0101186920 -0.0137338300 0 0
0.0140676160 -0.0146262320 0 0
0.0181727370 -0.0165244160 0 0
0.0220154310 -0.0192429880 0 0
0.0252037800 -0.0225230960 0 0
0.0274144050 -0.0260530760 0 0
0.0284241530 -0.0294956430 0 0
0.0281288540 -0.0325201890 0 -1
0.0265500820 -0.0348346200 0 -1
0.0238314850 -0.0362123850 0 -1
0.0202237180 -0.0365142100 0 -1
0.0160578560 -0.0357037280 0 -1
0.0117120780 -0.0338538440 0 -1
0.0075776130 -0.0311416450 0 -1
0.0040259690 -0.0278322570 0 0
0.0013767960 -0.0242529910 0 0
-0.0001331580 -0.0207596850 0 0
-0.0003767170 -0.0176989750 0 0
0.0006471860 -0.0153718190 0 0
0.0028121140 -0.0140031020 0 0
0.0058783440 -0.0137202870 0 0
0.0095192940 -0.0145427650 0 0
0.0133560900 -0.0163823990 0 0
0.0169960130 -0.0190541490 0 0
0.0200697010 -0.0222944050 0 0
0.0222636290 -0.0257849050 0 0
0.0233473950 -0.0291811230 0 0
0.0231955890 -0.0321440880 0 -1
0.0218021730 -0.0343734840 0 -1
0.0192848980 -0.0356386570 0 -1
0.0158784720 -0.0358035890 0 -1
0.0119150710 -0.0348417340 0 -1
0.0077911740 -0.0328381220 0 -1
0.0039250060 -0.0299792690 0 0
0.0007123190 -0.0265336990 0 0
-0.0015157070 -0.0228256070 0 0
-0.0025297620 -0.0192036210 0 0
-0.0022272510 -0.0160071720 0 0
-0.0006382640 -0.0135336100 0 0
0.0020844030 -0.0120090090 0 0
0.0056829180 -0.0115658780 0 0
0.0098157910 -0.0122307340 0 0
0.0140851360 -0.0139227370 0 0
0.0180722740 -0.0164629150 0 0
0.0213802900 -0.0195927060 0 0
0.0236788590 -0.0229996720 0 0
0.0247442660 -0.0263475040 0 0
0.0244856420 -0.0293074930 0 0
0.0229508420 -0.0315892500 0 -1
0.0203131380 -0.0329686520 0 -1
0.0168457300 -0.0333107700 0 -1
0.0128907620 -0.0325849560 0 -1
0.0088272980 -0.0308695950 0 -1
0.0050405090 -0.0283454880 0 0
0.0018920130 -0.0252779920 0 0
-0.0003094880 -0.0219892750 0 0
-0.0013362440 -0.0188241470 0 0
-0.0010641780 -0.0161140380 0 0
0.0005139350 -0.0141430710 0 0
0.0032862770 -0.0131196950 0 0
0.0070302800 -0.0131574160 0 0
0.0114310150 -0.0142670080 0 0
0.0161095840 -0.0163592650 0 0
0.0206599520 -0.0192544510 0 0
0.0246897890 -0.0226958810 0 0
0.0278593740 -0.0263688180 0 0
0.0299134780 -0.0299267110 0 0
0.0307030380 -0.0330239400 1 -1
0.0301961140 -0.0353510050 1 -1
0.0284798590 -0.0366675200 0 -1
0.0257543680 -0.0368297390 0 -1
0.0223167290 -0.0358094840 0 -1
0.0185335780 -0.0337003510 0 -1
0.0148039150 -0.0307084000 0 -1
0.0115174530 -0.0271284510 0 0
0.0090140680 -0.0233105480 0 0
0.0075485240 -0.0196224650 0 0
0.0072645050 -0.0164128920 0 0
0.0081822570 -0.0139778380 0 0
0.0102010030 -0.0125325840 0 0
0.0131120160 -0.0121924780 0 0
0.0166167940 -0.0129645020 0 0
0.0203491810 -0.0147490540 0 0
0.0239053340 -0.0173507910 0 0
0.0268847510 -0.0204976150 0 0
0.0289384190 -0.0238665180 0 0
0.0298135810 -0.0271145890 0 0
0.0293848030 -0.0299131360 0 0
0.0276660550 -0.0319816180 0 -1
0.0248043720 -0.0331161700 0 -1
0.0210597610 -0.0332076520 0 -1
0.0167772380 -0.0322480100 0 -1
0.0123556600 -0.0303278150 0 -1
0.0082145800 -0.0276278040 0 0
0.0047573010 -0.0244042650 0 0
0.0023298030 -0.0209666320 0 0
0.0011807960 -0.0176472280 0 0
0.0014322350 -0.0147658450 0 0
0.0030672920 -0.0125946830 0 0
0.0059355080 -0.0113301380 0 0
0.0097697570 -0.0110754620 0 0
0.0142108630 -0.0118346120 0 0
0.0188394470 -0.0135155680 0 0
0.0232154870 -0.0159407870 0 0
0.0269236690 -0.0188631260 0 0
0.0296183570 -0.0219867400 0 0
0.0310592040 -0.0249922880 1 0
0.0311314470 -0.0275649430 1 0
0.0298516560 -0.0294236840 0 0
0.0273629960 -0.0303502090 0 -1
0.0239213790 -0.0302147850 0 -1
0.0198711780 -0.0289951400 0 0
0.0156111560 -0.0267838330 0 0
0.0115550520 -0.0237811780 0 0
0.0080922880 -0.0202745400 0 0
0.0055523400 -0.0166077300 0 0
0.0041739930 -0.0131448100 0 0
0.0040803920 -0.0102322170 0 0
0.0052631480 -0.0081628780 0 0
0.0075807930 -0.0071459950 0 0
0.0107747530 -0.0072858240 0 0
0.0145000920 -0.0085714410 0 0
0.0183637880 -0.0108780870 0 0
0.0219632000 -0.0139799510 0 0
0.0249211980 -0.0175734320 0 0
0.0269183250 -0.0213080960 0 0
0.0277218110 -0.0248207620 0 0
0.0272091370 -0.0277682550 0 0
0.0253842880 -0.0298567590 0 0
0.0223845500 -0.0308677670 0 -1
0.0184733370 -0.0306797980 0 -1
0.0140149770 -0.0292828650 0 0
0.0094332000 -0.0267824560 0 0
0.0051622460 -0.0233912770 0 0
0.0016009150 -0.0194089200 0 0
-0.0009255020 -0.0151919180 0 0
-0.0021945830 -0.0111186120 0 0
-0.0021059630 -0.0075535100 0 0
-0.0006882170 -0.0048143620 0 0
0.0019063650 -0.0031436500 0 0
0.0054169290 -0.0026863790 0 0
0.0094982560 -0.0034764240 0 0
0.0137545910 -0.0054329160 0 0
0.0177804920 -0.0083669330 0 0
0.0212008690 -0.0119979190 0 0
0.0237025930 -0.0159782030 0 0
0.0250569140 -0.0199238800 0 0
0.0251370180 -0.0234512350 0 0
0.0239322720 -0.0262168940 0 0
0.0215558190 -0.0279561070 0 0
0.0182409350 -0.0285115790 0 0
0.0143226450 -0.0278483510 0 0
0.0102036920 -0.0260547390 0 0
0.0063089920 -0.0233311380 0 0
0.0030369370 -0.0199683100 0 0
0.0007162750 -0.0163173750 0 0
-0.0004254880 -0.0127547730 0 0
-0.0002799680 -0.0096451180 0 0
0.0011368640 -0.0073046830 0 0
0.0036894400 -0.0059692150 0 0
0.0071353810 -0.0057704140 0 0
0.0111464160 -0.0067247200 0 0
0.0153376740 -0.0087357970 0 0
0.0193025350 -0.0116086580 0 0
0.0226491840 -0.0150708710 0 0
0.0250372020 -0.0187972050 0 0
0.0262126660 -0.0224372140 0 0
0.0260384570 -0.0256467440 0 0
0.0245150500 -0.0281218470 0 0
0.0217857250 -0.0296303520 0 0
0.0181216990 -0.0300359550 0 -1
0.0138885910 -0.0293111720 0 0
0.0095019960 -0.0275376690 0 0
0.0053817350 -0.0248952180 0 0
0.0019111990 -0.0216423500 0 0
-0.0005963020 -0.0180910330 0 0
-0.0019239450 -0.0145766080 0 0
-0.0019690920 -0.0114254300 0 0
-0.0007501960 -0.0089242560 0 0
0.0015971400 -0.0072951560 0 0
0.0048336940 -0.0066778270 0 0
0.0086388460 -0.0071188840 0 0
0.0126401190 -0.0085669430 0 0
0.0164472060 -0.0108742340 0 0
0.0196879860 -0.0138071640 0 0
0.0220446530 -0.0170668990 0 0
0.0232865220 -0.0203187220 0 0
0.0232943120 -0.0232271560 0 0
0.0220712250 -0.0254922540 0 0
0.0197391060 -0.0268817610 0 0
0.0165222830 -0.0272547340 0 0
0.0127242210 -0.0265742320 0 0
0.0087007130 -0.0249090810 0 0
0.0048304590 -0.0224259710 0 0
0.0014825820 -0.0193729780 0 0
-0.0010184150 -0.0160551700 0 0
-0.0024270440 -0.0128034920 0 0
-0.0026047250 -0.0099399910 0 0
-0.0015356810 -0.0077445140 0 0
0.0006715800 -0.0064281530 0 0
0.0037962230 -0.0061161650 0 0
0.0075274240 -0.0068398480 0 0
0.0114935080 -0.0085352480 0 0
0.0152952430 -0.0110474020 0 0
0.0185421110 -0.0141407940 0 0
0.0208904670 -0.0175175240 0 0
0.0220801040 -0.0208436680 0 0
0.0219638480 -0.0237824450 0 0
0.0205260790 -0.0260306050 0 0
0.0178882090 -0.0273523930 0 0
0.0142996040 -0.0276053140 0 0
0.0101130340 -0.0267541750 0 0
0.0057472410 -0.0248727590 0 0
0.0016423040 -0.0221345980 0 0
-0.0017876170 -0.0187951040 0 0
-0.0042010440 -0.0151666540 0 0
-0.0053695430 -0.0115878930 0 0
-0.0052026890 -0.0083901560 0 0
-0.0037518190 -0.0058653930 0 0
-0.0011948480 -0.0042392370 0 0
0.0021903120 -0.0036510380 0 0
0.0060570710 -0.0041413820 0 0
0.0100225980 -0.0056475650 0 0
0.0136999190 -0.0080076230 0 0
0.0167298260 -0.0109734590 0 0
0.0188124210 -0.0142335720 0 0
0.0197353230 -0.0174446580 0 0
0.0193941520 -0.0202686980 0 0
0.0178030470 -0.0224101220 0 0
0.0150957660 -0.0236474110 0 0
0.0115175900 -0.0238548330 0 0
0.0074057180 -0.0230125400 0 0
0.0031558930 -0.0212056380 0 0
-0.0008211310 -0.0186138780 0 0
-0.0041438340 -0.0154937130 0 0
-0.0064963030 -0.0121543060 0 0
-0.0076540290 -0.0089289060 0 0
-0.0075012440 -0.0061435900 0 0
-0.0060418550 -0.0040860010 0 0
-0.0034016530 -0.0029768420 0 0
0.0001821780 -0.0029466080 0 0
0.0043843870 -0.0040198510 0 0
0.0088237820 -0.0061090850 0 0
0.0130986610 -0.0090200990 0 0
0.0168215820 -0.0124694430 0 0
0.0196529290 -0.0161127550 0 0
0.0213330540 -0.0195804800 0 0
0.0217102890 -0.0225163610 0 0
0.0207610020 -0.0246137390 0 0
0.0185972930 -0.0256456120 0 0
0.0154579070 -0.0254867730 0 0
0.0116819450 -0.0241276940 0 0
0.0076708240 -0.0216786520 0 0
0.0038456540 -0.0183615130 0 0
0.0006048360 -0.0144882630 0 0
-0.0017155240 -0.0104280590 0 0
-0.0028759190 -0.0065667970 0 0
-0.0027588520 -0.0032651330 0 0
-0.0013812180 -0.0008217330 0 0
0.0011090160 0.0005536570 0 0
0.0044509580 0.0007565540 0 0
0.0082998080 -0.0002056730 0 0
0.0122625550 -0.0022168800 0 0
0.0159372480 -0.0050646980 0 0
0.0189527040 -0.0084613240 0 0
0.0210050040 -0.0120707260 0 0
0.0218866580 -0.0155398090 0 0
0.0215044840 -0.0185302140 0 0
0.0198846540 -0.0207479910 0 0
0.0171661840 -0.0219701440 0 0
0.0135847200 -0.0220674180 0 0
0.0094489180 -0.0210210310 0 0
0.0051128340 -0.0189292240 0 0
0.0009478270 -0.0160002050 0 0
-0.0026841080 -0.0125313480 0 0
-0.0054564580 -0.0088778440 0 0
-0.0071062530 -0.0054156800 0 0
-0.0074637010 -0.0025039110 0 0
-0.0064782580 -0.0004497180 0 0
-0.0042335850 0.0005220950 0 0
-0.0009449550 0.0002930350 0 0
0.0030621720 -0.0011358470 0 0
0.0073876290 -0.0036447380 0 0
0.0115988830 -0.0070092580 0 0
0.0152750350 -0.0109244340 0 0
0.0180502730 -0.0150348370 0 0
0.0196535710 -0.0189684660 0 0
0.0199374310 -0.0223721590 0 0
0.0188900510 -0.0249456140 0 0
0.0166319970 -0.0264706730 0 0
0.0134010450 -0.0268322870 0 0
0.0095279630 -0.0260285190 0 0
0.0054057840 -0.0241691410 0 0
0.0014537940 -0.0214635580 0 0
-0.0019226440 -0.0181988490 0 0
-0.0043723800 -0.0147099250 0 0
-0.0056331600 -0.0113457090 0 0
-0.0055569360 -0.0084354230 0 0
-0.0041248760 -0.0062578230 0 0
-0.0014514840 -0.0050155990 0 0
0.0022244490 -0.0048173600 0 0
0.0065638120 -0.0056691640 0 0
0.0111632450 -0.0074758630 0 0
0.0155963860 -0.0100509800 0 0
0.0194546840 -0.0131338320 0 0
0.0223863840 -0.0164127220 0 0
0.0241324450 -0.0195532680 0 0
0.0245542930 -0.0222305510 0 0
0.0236475980 -0.0241619940 0 0
0.0215404080 -0.0251363010 0 0
0.0184777850 -0.0250347090 0 0
0.0147955000 -0.0238423810 0 0
0.0108847370 -0.0216491830 0 0
0.0071515220 -0.0186406020 0 0
0.0039770600 -0.0150806130 0 0
0.0016837460 -0.0112878270 0 0
0.0005074700 -0.0076061950 0 0
0.0005756780 -0.0043726000 0 0
0.0018933500 -0.0018846850 0 0
0.0043412500 -0.0003721170 0 0
0.0076894520 0.0000262158 0 0
0.0116240210 -0.0007232880 0 0
0.0157801630 -0.0025452040 0 0
0.0197758850 -0.0052629730 0 0
0.0232437120 -0.0086165590 0 0
0.0258602360 -0.0122868690 0 0
0.0273739080 -0.0159248440 0 0
0.0276296960 -0.0191840150 0 0
0.0265868550 -0.0217547150 0 0
0.0243265800 -0.0233959560 0 0
0.0210481860 -0.0239596960 0 0
0.0170528820 -0.0234041060 0 0
0.0127151740 -0.0217954410 0 0
0.0084447100 -0.0192994740 0 0
0.0046432260 -0.0161639570 0 0
0.0016617250 -0.0126943570 0 0
-0.0002362070 -0.0092252730 0 0
-0.0008992260 -0.0060891740 0 0
-0.0002986870 -0.0035841950 0 0
0.0014737870 -0.0019443110 0 0
0.0042191300 -0.0013160240 0 0
0.0076522130 -0.0017440480 0 0
0.0114287130 -0.0031660230 0 0
0.0151732440 -0.0054161840 0 0
0.0185078430 -0.0082397020 0 0
0.0210838910 -0.0113191310 0 0
0.0226175900 -0.0143103670 0 0
0.0229227140 -0.0168816190 0 0
0.0219342360 -0.0187485450 0 0
0.0197206560 -0.0197015160 0 0
0.0164832650 -0.0196244720 0 0
0.0125387000 -0.0185060950 0 0
0.0082845000 -0.0164423530 0 0
0.0041535830 -0.0136282810 0 0
0.0005655040 -0.0103385630 0 0
-0.0021196430 -0.0068990110 0 0
-0.0036393720 -0.0036527370 0 0
-0.0038538700 -0.0009253410 0 0
-0.0027557090 0.0010072450 0 0
-0.0004656020 0.0019455310 0 0
0.0027831410 0.0017855100 0 0
0.0066691220 0.0005283590 0 0
0.0108137350 -0.0017191300 0 0
0.0148154540 -0.0047524520 0 0
0.0182850380 -0.0082855510 0 0
0.0208805150 -0.0119760910 0 0
0.0223415250 -0.0154591550 0 0
0.0225199890 -0.0183855560 0 0
0.0214004360 -0.0204587480 0 0
0.0191041760 -0.0214650190 0 0
0.0158759590 -0.0212943160 0 0
0.0120543860 -0.0199511570 0 0
0.0080295820 -0.0175553710 0 0
0.0041973600 -0.0143322470 0 0
0.0009213410 -0.0105923870 0 0
-0.0014930560 -0.0067023820 0 0
-0.0028170680 -0.0030477680 0 0
-0.0029142680 0.0000082537 0 0
-0.0017539280 0.0021639970 0 0
0.0005813510 0.0032102580 0 0
0.0038982530 0.0030498330 0 0
0.0079077130 0.0017043680 0 0
0.0122507420 -0.0006913570 0 0
0.0165313910 -0.0039057640 0 0
0.0203531150 -0.0076340840 0 0
0.0233559430 -0.0115258720 0 0
0.0252522940 -0.0152149830 0 0
0.0258587600 -0.0183521250 0 0
0.0251200040 -0.0206382690 0 0
0.0231190920 -0.0218543030 0 0
0.0200690580 -0.0218826470 0 0
0.0162863930 -0.0207189160 0 0
0.0121538590 -0.0184725840 0 0
0.0080805770 -0.0153560560 0 0
0.0044628180 -0.0116632580 0 0
0.0016461210 -0.0077408040 0 0
-0.0001092770 -0.0039550760 0 0
-0.0006559010 -0.0006574920 0 0
0.0000250572 0.0018496170 0 0
0.0018232500 0.0033424030 0 0
0.0045136430 0.0036960190 0 0
0.0077807540 0.0028949220 0 0
0.0112493760 0.0010338140 0 0
0.0145224530 -0.0016908270 0 0
0.0172249070 -0.0049995220 0 0
0.0190471710 -0.0085578800 0 0
0.0197799630 -0.0120104340 0 0
0.0193343640 -0.0150157500 0 0
0.0177463270 -0.0172787510 0 0
0.0151686540 -0.0185773810 0 0
0.0118540110 -0.0187821630 0 0
0.0081304780 -0.0178677920 0 0
0.0043696430 -0.0159157980 0 0
0.0009491800 -0.0131077710 0 0
-0.0017853580 -0.0097096180 0 0
-0.0035548910 -0.0060474010 0 0
-0.0041738470 -0.0024752940 0 0
-0.0035664730 0.0006618260 0 0
-0.0017707270 0.0030652760 0 0
0.0010678450 0.0045123880 0 0
0.0047084210 0.0048760260 0 0
0.0088328860 0.0041341010 0 0
0.0130718780 0.0023702860 0 0
0.0170394020 -0.0002335410 0 0
0.0203719070 -0.0034133710 0 0
0.0227656000 -0.0068478010 0 0
0.0240070240 -0.0101898460 0 0
0.0239935500 -0.0131021210 0 0
0.0227420310 -0.0152911560 0 0
0.0203860320 -0.0165368370 0 0
0.0171631610 -0.0167133970 0 0
0.0133934930 -0.0157999120 0 0
0.0094500910 -0.0138803490 0 0
0.0057244110 -0.0111346250 0 0
0.0025906500 -0.0078221920 0 0
0.0003720170 -0.0042592570 0 0
-0.0006893050 -0.0007906460 0 0
-0.0004561230 0.0022423120 0 0
0.0010883650 0.0045353270 0 0
0.0038349990 0.0058522520 0 0
0.0075538300 0.0060499350 0 0
0.0119110440 0.0050943260 0 0
0.0164983320 0.0030660940 0 0
0.0208737090 0.0001544450 0 0
0.0246092170 -0.0033609550 0 0
0.0273378700 -0.0071381530 0 0
0.0287923610 -0.0108081220 0 0
0.0288309180 -0.0140134370 0 0
0.0274490360 -0.0164461800 0 0
0.0247778570 -0.0178800630 0 0
0.0210708320 -0.0181923100 0 0
0.0166802150 -0.0173732620 0 0
0.0120242360 -0.0155241990 0 0
0.0075468870 -0.0128449660 0 0
0.0036746680 -0.0096127010 0 0
0.0007745650 -0.0061537450 0 0
-0.0008838550 -0.0028124940 0 0
-0.0011579290 0.0000792093 0 0
-0.0000472138 0.0022307500 0 0
0.0023079050 0.0034190800 0 0
0.0056421600 0.0035110560 0 0
0.0095924010 0.0024788920 0 0
0.0137332150 0.0004064390 0 0
0.0176195380 -0.0025148210 0 0
0.0208330480 -0.0060007790 0 0
0.0230266540 -0.0097009140 0 0
0.0239608390 -0.0132339150 0 0
0.0235268510 -0.0162285350 0 0
0.0217546230 -0.0183641970 0 0
0.0188074700 -0.0194063170 0 0
0.0149662060 -0.0192326130 0 0
0.0106015050 -0.0178472110 0 0
0.0061334400 -0.0153797780 0 0
0.0019848250 -0.0120694320 0 0
-0.0014605440 -0.0082368620 0 0
-0.0038890590 -0.0042496920 0 0
-0.0050792880 -0.0004854760 0 0
-0.0049184240 0.0027041710 0 0
-0.0034146370 0.0050257210 0 0
-0.0007022000 0.0062701340 0 0
0.0029658050 0.0063313450 0 0
0.0072393150 0.0052146450 0 0
0.0117054980 0.0030340480 0 0
0.0159310250 0.0000000067 0 0
0.0195063700 -0.0036000790 0 0
0.0220857880 -0.0074266890 0 0
0.0234200090 -0.0111175390 0 0
0.0233807440 -0.0143205260 0 0
0.0219737440 -0.0167276910 0 0
0.0193367970 -0.0181060180 0 0
0.0157236500 -0.0183209230 0 0
0.0114779700 -0.0173499670 0 0
0.0070005370 -0.0152859400 0 0
0.0027125960 -0.0123285400 0 0
-0.0009810260 -0.0087641670 0 0
-0.0037270690 -0.0049355820 0 0
-0.0052566220 -0.0012058780 0 0
-0.0054131840 0.0020781650 0 0
-0.0041717160 0.0046194640 0 0
-0.0016446180 0.0061981810 0 0
0.0019273840 0.0066911170 0 0
0.0061990470 0.0060808460 0 0
0.0107561640 0.0044537570 0 0
0.0151574660 0.0019884450 0 0
0.0189777190 -0.0010623980 0 0
0.0218489600 -0.0043939570 0 0
0.0234966210 -0.0076750330 0 0
0.0237669330 -0.0105785140 0 0
0.0226431980 -0.0128154010 0 0
0.0202489390 -0.0141670510 0 0
0.0168362040 -0.0145086620 0 0
0.0127595320 -0.0138198280 0 0
0.0084383210 -0.0121825320 0 0
0.0043119590 -0.0097693490 0 0
0.0007939100 -0.0068248980 0 0
-0.0017689960 -0.0036430190 0 0
-0.0031283650 -0.0005409280 0 0
-0.0031554920 0.0021693080 0 0
-0.0018512930 0.0042106230 0 0
0.0006556140 0.0053693710 0 0
0.0041229810 0.0055192590 0 0
0.0082202100 0.0046376100 0 0
0.0125616220 0.0028106420 0 0
0.0167429170 0.0002257500 0 0
0.0203768510 -0.0028481930 0 0
0.0231278760 -0.0060889070 0 0
0.0247459190 -0.0091536200 0 0
0.0250927340 -0.0117146170 0 0
0.0241521420 -0.0134945430 0 0
0.0220249730 -0.0142968860 0 0
0.0189166850 -0.0140274190 0 0
0.0151212210 -0.0127043810 0 0
0.0109983830 -0.0104562340 0 0
0.0069422210 -0.0075069520 0 0
0.0033422870 -0.0041508480 0 0
0.0005435560 -0.0007206980 0 0
-0.0011886170 0.0024463480 0 0
-0.0016948470 0.0050406930 0 0
-0.0009375020 0.0068074040 0 0
0.0009958430 0.0075678390 0 0
0.0039012830 0.0072354750 0 0
0.0074774600 0.0058247920 0 0
0.0113523800 0.0034515130 0 0
0.0151173340 0.0003229880 0 0
0.0183670060 -0.0032809080 0 0
0.0207428600 -0.0070337930 0 0
0.0219744520 -0.0105921830 0 0
0.0219116060 -0.0136254290 0 0
0.0205411480 -0.0158441190 0 0
0.0179861770 -0.0170260380 0 0
0.0144902970 -0.0170393140 0 0
0.0103903270 -0.0158602290 0 0
0.0060813650 -0.0135812540 0 0
0.0019788310 -0.0104064110 0 0
-0.0015195650 -0.0066340450 0 0
-0.0040706440 -0.0026284000 0 0
-0.0054191300 0.0012180990 0 0
-0.0054235380 0.0045283200 0 0
-0.0040709700 0.0069833260 0 0
-0.0014800690 0.0083577140 0 0
0.0021071900 0.0085425960 0 0
0.0063462210 0.0075537600 0 0
0.0108243610 0.0055241750 0 0
0.0151050030 0.0026830390 0 0
0.0187731030 -0.0006731330 0 0
0.0214764360 -0.0042114960 0 0
0.0229602290 -0.0075925420 0 0
0.0230923940 -0.0104975910 0 0
0.0218753700 -0.0126540220 0 0
0.0194426880 -0.0138573700 0 0
0.0160430640 -0.0139888550 0 0
0.0120166010 -0.0130269050 0 0
0.0077647910 -0.0110515690 0 0
0.0037141810 -0.0082408280 0 0
0.0002751410 -0.0048577220 0 0
-0.0022001550 -0.0012276330 0 0
-0.0034550480 0.0022932430 0 0
-0.0033561800 0.0053548220 0 0
-0.0019086000 0.0076504110 0 0
0.0007433930 0.0089496470 0 0
0.0043299340 0.0091236000 0 0
0.0084836150 0.0081589080 0 0
0.0127801600 0.0061583680 0 0
0.0167856810 0.0033280020 0 0
0.0201018650 -0.0000463098 0 0
0.0224038170 -0.0036280000 0 0
0.0234701470 -0.0070614160 0 0
0.0232041180 -0.0100047000 0 0
0.0216414430 -0.0121628250 0 0
0.0189420970 -0.0133177580 0 0
0.0153690890 -0.0133519690 0 0
0.0112598920 -0.0122620340 0 0
0.0069950500 -0.0101599740 0 0
0.0029660530 -0.0072618660 0 0
-0.0004578010 -0.0038651350 0 0
-0.0029638680 -0.0003171310 0 0
-0.0043292360 0.0030212250 0 0
-0.0044461170 0.0058123230 0 0
-0.0033334430 0.0077751180 0 0
-0.0011328140 0.0087113220 0 0
0.0019086840 0.0085223600 0 0
0.0054654180 0.0072165190 0 0
0.0091668920 0.0049067820 0 0
0.0126335670 0.0018003130 0 0
0.0155105480 -0.0018198000 0 0
0.0174985790 -0.0056199610 0 0
0.0183821740 -0.0092472090 0 0
0.0180514400 -0.0123633930 0 0
0.0165138960 -0.0146784820 0 0
0.0138948490 -0.0159785240 0 0
0.0104263750 -0.0161445630 0 0
0.0064262920 -0.0151616840 0 0
0.0022695920 -0.0131198030 0 0
-0.0016459790 -0.0102072640 0 0
-0.0049384700 -0.0066961670 0 0
-0.0072801880 -0.0029184150 0 0
-0.0084307960 0.0007659120 0 0
-0.0082617530 0.0040038650 0 0
-0.0067706870 0.0064842440 0 0
-0.0040842710 0.0079680120 0 0
-0.0004477560 0.0083116490 0 0
0.0037987480 0.0074812830 0 0
0.0082532350 0.0055564640 0 0
0.0124886810 0.0027231540 0 0
0.0160916480 -0.0007437790 0 0
0.0187026470 -0.0045069180 0 0
0.0200552580 -0.0081987480 0 0
0.0200071120 -0.0114572820 0 0
0.0185566120 -0.0139618320 0 0
0.0158433690 -0.0154654180 0 0
0.0121336000 -0.0158202730 0 0
0.0077926190 -0.0149932350 0 0
0.0032464190 -0.0130686600 0 0
-0.0010640830 -0.0102381650 0 0
-0.0047294940 -0.0067790230 0 0
-0.0074120410 -0.0030250310 0 0
-0.0088760160 0.0006663270 0 0
-0.0090085240 0.0039477920 0 0
-0.0078291170 0.0065152760 0 0
-0.0054854040 0.0081371150 0 0
-0.0022353400 0.0086760970 0 0
0.0015788600 0.0081017220 0 0
0.0055624170 0.0064926150 0 0
0.0093055920 0.0040298660 0 0
0.0124243190 0.0009809840 0 0
0.0145980160 -0.0023255870 0 0
0.0156003510 -0.0055331830 0 0
0.0153199920 -0.0082930810 0 0
0.0137694380 -0.0103005130 0 0
0.0110826730 -0.0113268150 0 0
0.0075028460 -0.0112432960 0 0
0.0033599310 -0.0100335800 0 0
-0.0009603370 -0.0077939710 0 0
-0.0050528490 -0.0047231410 0 0
-0.0085314400 -0.0011027640 0 0
-0.0110663850 0.0027292030 0 0
-0.0124176340 0.0064107220 0 0
-0.0124595620 0.0095907950 0 0
-0.0111940310 0.0119641200 0 0
-0.0087511370 0.0133016020 0 0
-0.0053780130 0.0134732940 0 0
-0.0014147840 0.0124608340 0 0
0.0027417970 0.0103582980 0 0
0.0066813770 0.0073625200 0 0
0.0100215510 0.0037545220 0 0
0.0124434550 -0.0001261690 0 0
0.0137205700 -0.0039121880 0 0
0.0137395800 -0.0072418650 0 0
0.0125115270 -0.0097932600 0 0
0.0101723460 -0.0113160800 0 0
0.0069716450 -0.0116585450 0 0
0.0032490250 -0.0107855840 0 0
-0.0006003050 -0.0087846090 0 0
-0.0041666120 -0.0058569130 0 0
-0.0070686300 -0.0022959960 0 0
-0.0089935950 0.0015434240 0 0
-0.0097299280 0.0052819950 0 0
-0.0091887340 0.0085547280 0 0
-0.0074108630 0.0110482680 0 0
-0.0045582330 0.0125316230 0 0
-0.0008923250 0.0128766910 0 0
0.0032541740 0.0120676270 0 0
0.0075078690 0.0102001890 0 0
0.0114856490 0.0074718450 0 0
0.0148262220 0.0041626090 0 0
0.0172216490 0.0006073510 0 0
0.0184465270 -0.0028378840 0 0
0.0183818420 -0.0058318490 0 0
0.0170307480 -0.0080824900 0 0
0.0145234780 -0.0093759470 0 0
0.0111091170 -0.0095963310 0 0
0.0071327120 -0.0087342200 0 0
0.0029984510 -0.0068852110 0 0
-0.0008748830 -0.0042406910 0 0
-0.0040973680 -0.0010709300 0 0
-0.0063461440 0.0023002660 0 0
-0.0073973390 0.0055279490 0 0
-0.0071480260 0.0082817710 0 0
-0.0056241740 0.0102802070 0 0
-0.0029752490 0.0113182150 0 0
0.0005409900 0.0112852040 0 0
0.0045815200 0.0101731460 0 0
0.0087487510 0.0080757910 0 0
0.0126282150 0.0051793290 0 0
0.0158306880 0.0017445850 0 0
0.0180336340 -0.0019178860 0 0
0.0190153590 -0.0054768580 0 0
0.0186772000 -0.0086108770 0 0
0.0170527090 -0.0110382710 0 0
0.0143038300 -0.0125443160 0 0
0.0107037030 -0.0130025670 0 0
0.0066072210 -0.0123884200 0 0
0.0024125360 -0.0107841900 0 0
-0.0014811370 -0.0083743200 0 0
-0.0047125030 -0.0054284220 0 0
-0.0069890830 -0.0022719230 0 0
-0.0081099770 0.0007513900 0 0
-0.0079823760 0.0033180010 0 0
-0.0066310590 0.0051586520 0 0
-0.0041977090 0.0060846570 0 0
-0.0009281980 0.0060051470 0 0
0.0028505290 0.0049343070 0 0
0.0067607020 0.0029883960 0 0
0.0104084870 0.0003732390 0 0
0.0134207810 -0.0026363990 0 0
0.0154804260 -0.0057229680 0 0
0.0163563720 -0.0085548490 0 0
0.0159271090 -0.0108157370 0 0
0.0141961040 -0.0122340160 0 0
0.0112964940 -0.0126117160 0 0
0.0074819500 -0.0118509750 0 0
0.0031028420 -0.0099721010 0 0
-0.0014296600 -0.0071157750 0 0
-0.0056867710 -0.0035268540 0 0
-0.0092672650 0.0004757010 0 0
-0.0118389710 0.0045354830 0 0
-0.0131715680 0.0082961500 0 0
-0.0131577570 0.0114364080 0 0
-0.0118211110 0.0136998550 0 0
-0.0093099540 0.0149173100 0 0
-0.0058788380 0.0150202480 0 0
-0.0018613650 0.0140448930 0 0
0.0023615680 0.0121264110 0 0
0.0063952460 0.0094836460 0 0
0.0098649070 0.0063970060 0 0
0.0124489430 0.0031827910 0 0
0.0139104430 0.0001658110 0 0
0.0141236000 -0.0023490700 0 0
0.0130886450 -0.0041054250 0 0
0.0109300380 -0.0049208870 0 0
0.0078790830 -0.0047055530 0 0
0.0042481620 -0.0034703760 0 0
0.0004028830 -0.0013255680 0 0
-0.0032666250 0.0015297350 0 0
-0.0063767620 0.0048256020 0 0
-0.0085852700 0.0082463410 0 0
-0.0096281980 0.0114605710 0 0
-0.0093524310 0.0141532480 0 0
-0.0077362490 0.0160562650 0 0
-0.0048947270 0.0169742910 0 0
-0.0010702750 0.0168027470 0 0
0.0033904520 0.0155366680 0 0
0.0080710960 0.0132714760 0 0
0.0125280360 0.0101964210 0 0
0.0163364110 0.0065797250 0 0
0.0191351020 0.0027448470 0 0
0.0206654920 -0.0009597290 0 0
0.0207987880 -0.0041932410 0 0
0.0195481500 -0.0066551770 0 0
0.0170640160 -0.0081159050 0 0
0.0136141960 -0.0084422790 0 0
0.0095536190 -0.0076131920 0 0
0.0052889400 -0.0057215620 0 0
0.0012413270 -0.0029638020 0 0
-0.0021910760 0.0003797020 0 0
-0.0046703740 0.0039709690 0 0
-0.0059532590 0.0074466730 0 0
-0.0059169550 0.0104538380 0 0
-0.0045720340 0.0126851920 0 0
-0.0020613140 0.0139104050 0 0
0.0013538630 0.0139996380 0 0
0.0053193950 0.0129364140 0 0
0.0094249170 0.0108186390 0 0
0.0132464770 0.0078483550 0 0
0.0163895330 0.0043115240 0 0
0.0185280180 0.0005497690 0 0
0.0194357960 -0.0030732430 0 0
0.0190072920 -0.0062071600 0 0
0.0172667810 -0.0085479580 0 0
0.0143668250 -0.0098655830 0 0
0.0105750440 -0.0100249770 0 0
0.0062492900 -0.0089993660 0 0
0.0018033440 -0.0068740890 0 0
-0.0023340740 -0.0038400240 0 0
-0.0057636350 -0.0001775310 0 0
-0.0081578390 0.0037680480 0 0
-0.0092943430 0.0076185580 0 0
-0.0090746100 0.0110005410 0 0
-0.0075276850 0.0135839740 0 0
-0.0048030450 0.0151174800 0 0
-0.0011556780 0.0154552980 0 0
0.0030764130 0.0145723910 0 0
0.0075023690 0.0125662280 0 0
0.0117139710 0.0096458740 0 0
0.0153224020 0.0061106790 0 0
0.0179933580 0.0023212940 0 0
0.0194794090 -0.0013350650 0 0
0.0196468450 -0.0044830370 0 0
0.0184908650 -0.0067975410 0 0
0.0161347360 -0.0080372940 0 0
0.0128146610 -0.0080691510 0 0
0.0088556010 -0.0068812670 0 0
0.0046421850 -0.0045848920 0 0
0.0005864220 -0.0014042390 0 0
-0.0029084460 0.0023467250 0 0
-0.0054885700 0.0062989850 0 0
-0.0068900730 0.0100687960 0 0
-0.0069704570 0.0132965520 0 0
-0.0057244580 0.0156798360 0 0
-0.0032832880 0.0169992190 0 0
0.0001016340 0.0171360910 0 0
0.0040878240 0.0160815780 0 0
0.0082785760 0.0139361960 0 0
0.0122621010 0.0109008670 0 0
0.0156496430 0.0072600710 0 0
0.0181103600 0.0033571520 0 0
0.0194004340 -0.0004377250 0 0
0.0193840560 -0.0037641770 0 0
0.0180449530 -0.0063085210 0 0
0.0154875770 -0.0078369000 0 0
0.0119283480 -0.0082204760 0 0
0.0076789620 -0.0074486040 0 0
0.0031221850 -0.0056279910 0 0
-0.0013213950 -0.0029687900 0 0
-0.0052346100 0.0002393450 0 0
-0.0082476840 0.0036576010 0 0
-0.0100783080 0.0069314180 0 0
-0.0105617810 0.0097244540 0 0
-0.0096666390 0.0117508090 0 0
-0.0074947130 0.0128029060 0 0
-0.0042685280 0.0127718700 0 0
-0.0003095110 0.0116571620 0 0
0.0039912050 0.0095638220 0 0
0.0082079780 0.0066892910 0 0
0.0119201060 0.0033038440 0 0
0.0147535860 -0.0002731980 0 0
0.0164213240 -0.0037015070 0 0
0.0167553240 -0.0066514350 0 0
0.0157250250 -0.0088365890 0 0
0.0134391580 -0.0100429580 0 0
0.0101318390 -0.0101504140 0 0
0.0061356200 -0.0091445690 0 0
0.0018454100 -0.0071191320 0 0
-0.0023217260 -0.0042688350 0 0
-0.0059663950 -0.0008721060 0 0
-0.0087439980 0.0027362530 0 0
-0.0103976610 0.0061996380 0 0
-0.0107842060 0.0091768910 0 0
-0.0098898070 0.0113771580 0 0
-0.0078326520 0.0125881720 0 0
-0.0048517580 0.0126959440 0 0
-0.0012833410 0.0116953180 0 0
0.0024728020 0.0096906810 0 0
0.0059939850 0.0068861410 0 0
0.0088781190 0.0035658180 0 0
0.0107846990 0.0000663568 0 0
0.0114687220 -0.0032558350 0 0
0.0108048920 -0.0060598980 0 0
0.0088012300 -0.0080547690 0 0
0.0056010500 -0.0090282230 0 0
0.0014709910 -0.0088675400 0 0
-0.0032259740 -0.0075706580 0 0
-0.0080697240 -0.0052476600 0 0
-0.0126279730 -0.0021116280 0 0
-0.0164997530 0.0015421710 0 0
-0.0193519260 0.0053670650 0 0
-0.0209475120 0.0090008070 0 0
-0.0211669550 0.0121012090 0 0
-0.0200205010 0.0143778410 0 0
-0.0176472440 0.0156173550 0 0
-0.0142992640 0.0157014540 0 0
-0.0103146190 0.0146175030 0 0
-0.0060846510 0.0124611670 0 0
-0.0020186330 0.0094300850 0 0
0.0014938450 0.0058084150 0 0
0.0041214920 0.0019427530 0 0
0.0056259830 -0.0017897660 0 0
0.0058858380 -0.0050188440 0 0
0.0049056230 -0.0074194920 0 0
0.0028109730 -0.0087468090 0 0
-0.0001681320 -0.0088632180 0 0
-0.0037228960 -0.0077545840 0 0
-0.0074964560 -0.0055320960 0 0
-0.0111164830 -0.0024193560 0 0
-0.0142274630 0.0012730060 0 0
-0.0165213170 0.0051813210 0 0
-0.0177648460 0.0089269360 0 0
-0.0178219530 0.0121536770 0 0
-0.0166685330 0.0145610570 0 0
-0.0143982170 0.0159310500 0 0
-0.0112173310 0.0161475040 0 0
-0.0074277850 0.0152075890 0 0
-0.0033986160 0.0132232850 0 0
0.0004699590 0.0104102340 0 0
0.0037854970 0.0070641860 0 0
0.0062023590 0.0035294880 0 0
0.0074584670 0.0001646080 0 0
0.0074060310 -0.0026927620 0 0
0.0060310710 -0.0047593390 0 0
0.0034575050 -0.0058351040 0 0
-0.0000648969 -0.0058230600 0 0
-0.0041861850 -0.0047368280 0 0
-0.0084927920 -0.0026952550 0 0
-0.0125522320 0.0000937984 0 0
-0.0159603120 0.0033559450 0 0
-0.0183827550 0.0067754800 0 0
-0.0195856990 0.0100228030 0 0
-0.0194544440 0.0127842930 0 0
-0.0180017680 0.0147925060 0 0
-0.0153659700 0.0158525990 0 0
-0.0117978900 0.0158615250 0 0
-0.0076373060 0.0148181830 0 0
-0.0032810700 0.0128233960 0 0
0.0008537680 0.0100695940 0 0
0.0043691810 0.0068222630 0 0
0.0069251380 0.0033959970 0 0
0.0082742890 0.0001265350 0 0
0.0082872350 -0.0026605230 0 0
0.0069641250 -0.0046822240 0 0
0.0044314830 -0.0057283340 0 0
0.0009268600 -0.0056847720 0 0
-0.0032245030 -0.0045466710 0 0
-0.0076375350 -0.0024190620 0 0
-0.0118983410 0.0004945060 0 0
-0.0155991230 0.0039131790 0 0
-0.0183770820 0.0075068090 0 0
-0.0199537540 0.0109278760 0 0
-0.0201680980 0.0138447420 0 0
-0.0189964000 0.0159734310 0 0
-0.0165555570 0.0171050040 0 0
-0.0130906730 0.0171261970 0 0
-0.0089491140 0.0160315770 0 0
-0.0045434750 0.0139260060 0 0
-0.0003079500 0.0110162770 0 0
0.0033460820 0.0075915720 0 0
0.0060698240 0.0039945960 0 0
0.0076078820 0.0005873120 0 0
0.0078187950 -0.0022849840 0 0
0.0066865060 -0.0043285890 0 0
0.0043231560 -0.0053320240 0 0
0.0009613170 -0.0051880810 0 0
-0.0030662490 -0.0039042390 0 0
-0.0073586030 -0.0016009890 0 0
-0.0114872210 0.0015007910 0 0
-0.0150410490 0.0051017880 0 0
-0.0176707100 0.0088535570 0 0
-0.0191251250 0.0123922340 0 0
-0.0192749680 0.0153732570 0 0
-0.0181212560 0.0175041170 0 0
-0.0157909410 0.0185723880 0 0
-0.0125219630 0.0184661710 0 0
-0.0086392560 0.0171849450 0 0
-0.0045236010 0.0148402890 0 0
-0.0005763450 0.0116465990 0 0
0.0028171150 0.0079018840 0 0
0.0053226640 0.0039593100 0 0
0.0066892570 0.0001917490 0 0
0.0067740310 -0.0030459740 0 0
0.0055567220 -0.0054514440 0 0
0.0031412260 -0.0068018520 0 0
-0.0002538180 -0.0069728380 0 0
-0.0043122650 -0.0059487200 0 0
-0.0086453340 -0.0038240170 0 0
-0.0128259400 -0.0007964070 0 0
-0.0164314430 0.0028488790 0 0
-0.0190891520 0.0067631620 0 0
-0.0205172170 0.0105663540 0 0
-0.0205553480 0.0138846240 0 0
-0.0191823800 0.0163892590 0 0
-0.0165195510 0.0178315180 0 0
-0.0128193140 0.0180689420 0 0
-0.0084397510 0.0170799240 0 0
-0.0038061420 0.0149649440 0 0
0.0006347960 0.0119345430 0 0
0.0044603760 0.0082857990 0 0
0.0073115800 0.0043709410 0 0
0.0089246920 0.0005622310 0 0
0.0091546850 -0.0027841240 0 0
0.0079892120 -0.0053629120 0 0
0.0055503010 -0.0069502880 0 0
0.0020819570 -0.0074251330 0 0
-0.0020748630 -0.0067784580 0 0
-0.0065156420 -0.0051107800 0 0
-0.0108092200 -0.0026190020 0 0
-0.0145357490 0.0004253690 0 0
-0.0173257760 0.0037043680 0 0
-0.0188987060 0.0068848550 0 0
-0.0190943610 0.0096499060 0 0
-0.0178906950 0.0117282270 0 0
-0.0154052340 0.0129194300 0 0
-0.0118823740 0.0131124020 0 0
-0.0076692480 0.0122950370 0 0
-0.0031818030 0.0105555090 0 0
0.0011361000 0.0080754890 0 0
0.0048556440 0.0051143800 0 0
0.0076038570 0.0019842640 0 0
0.0091002110 -0.0009815980 0 0
0.0091862160 -0.0034619070 0 0
0.0078432160 -0.0051786000 0 0
0.0051948520 -0.0059245430 0 0
0.0014936940 -0.0055859090 0 0
-0.0029065660 -0.0041563900 0 0
-0.0075892460 -0.0017405500 0 0
-0.0121167940 0.0014544840 0 0
-0.0160721630 0.0051380610 0 0
-0.0190970910 0.0089641720 0 0
-0.0209247560 0.0125663930 0 0
-0.0214037740 0.0155957800 0 0
-0.0205116590 0.0177569650 0 0
-0.0183571200 0.0188384230 0 0
-0.0151707570 0.0187335780 0 0
-0.0112836770 0.0174503050 0 0
-0.0070948180 0.0151085190 0 0
-0.0030305130 0.0119271070 0 0
0.0004985310 0.0082018700 0 0
0.0031383660 0.0042768900 0 0
0.0046269820 0.0005121090 0 0
0.0048191340 -0.0027500560 0 0
0.0036978410 -0.0052157100 0 0
0.0013732630 -0.0066653310 0 0
-0.0019279590 -0.0069732070 0 0
-0.0058816930 -0.0061192940 0 0
-0.0100955270 -0.0041919730 0 0
-0.0141483590 -0.0013807500 0 0
-0.0176352060 0.0020414550 0 0
-0.0202096880 0.0057457750 0 0
-0.0216184180 0.0093814420 0 0
-0.0217241630 0.0126110580 0 0
-0.0205164800 0.0151421960 0 0
-0.0181105420 0.0167530890 0 0
-0.0147361100 0.0173123720 0 0
-0.0107173120 0.0167925500 0 0
-0.0064426350 0.0152750980 0 0
-0.0023263590 0.0129444890 0 0
0.0012344650 0.0100701650 0 0
0.0039024350 0.0069783220 0 0
0.0054362890 0.0040179060 0 0
0.0057154450 0.0015253700 0 0
0.0047481080 -0.0002087470 0 0
0.0026633900 -0.0009690150 0 0
-0.0003075840 -0.0006369440 0 0
-0.0038562130 0.0007973680 0 0
-0.0076234690 0.0032347080 0 0
-0.0112290690 0.0064760400 0 0
-0.0143043280 0.0102400250 0 0
-0.0165281490 0.0141885130 0 0
-0.0176609030 0.0179594310 0 0
-0.0175703430 0.0212037500 0 0
-0.0162473910 0.0236214750 0 0
-0.0138115040 0.0249920240 0 0
-0.0105035940 0.0251957110 0 0
-0.0066640560 0.0242247030 0 0
-0.0026970630 0.0221832240 0 0
0.0009730820 0.0192769230 0 0
0.0039466560 0.0157918030 0 0
0.0058896460 0.0120650500 0 0
0.0065679070 0.0084515760 0 0
0.0058705250 0.0052901640 0 0
0.0038199790 0.0028726340 0 0
0.0005695100 0.0014180510 0 0
-0.0036115050 0.0010528380 0 0
-0.0083640000 0.0017980920 0 0
-0.0132748840 0.0035664030 0 0
-0.0179162970 0.0061695990 0 0
-0.0218845360 0.0093365730 0 0
-0.0248378980 0.0127390450 0 0
-0.0265309810 0.0160234440 0 0
-0.0268398700 0.0188466050 0 0
-0.0257745630 0.0209110460 0 0
-0.0234782820 0.0219947770 0 0
-0.0202128700 0.0219726170 0 0
-0.0163299000 0.0208283220 0 0
-0.0122320190 0.0186568060 0 0
-0.0083325550 0.0156552490 0 0
-0.0050187090 0.0121035390 0 0
-0.0026186650 0.0083370280 0 0
-0.0013720580 0.0047149900 0 0
-0.0014059930 0.0015869720 0 0
-0.0027207530 -0.0007409960 0 0
-0.0051882730 -0.0020372790 0 0
-0.0085651190 -0.0021694420 0 0
-0.0125195660 -0.0011201500 0 0
-0.0166676910 0.0010086250 0 0
-0.0206107450 0.0040046100 0 0
-0.0239696080 0.0075664540 0 0
-0.0264166250 0.0113348210 0 0
-0.0277047770 0.0149301250 0 0
-0.0276918440 0.0179921090 0 0
-0.0263570490 0.0202156960 0 0
-0.0238077790 0.0213791620 0 0
-0.0202733470 0.0213638370 0 0
-0.0160845160 0.0201662140 0 0
-0.0116410540 0.0179016800 0 0
-0.0073711480 0.0147969920 0 0
-0.0036864470 0.0111695970 0 0
-0.0009376870 0.0073948570 0 0
0.0006225660 0.0038651110 0 0
0.0008646020 0.0009464190 0 0
-0.0002080590 -0.0010607490 0 0
-0.0024614770 -0.0019515750 0 0
-0.0056459260 -0.0016343530 0 0
-0.0094215360 -0.0001347310 0 0
-0.0133933170 0.0024108450 0 0
-0.0171521380 0.0057688630 0 0
-0.0203167180 0.0096279000 0 0
-0.0225717290 0.0136242210 0 0
-0.0236982480 0.0173749740 0 0
-0.0235934900 0.0205168990 0 0
-0.0222774220 0.0227450670 0 0
-0.0198864440 0.0238454400 0 0
-0.0166577560 0.0237166250 0 0
-0.0129079750 0.0223786910 0 0
-0.0090056770 0.0199694290 0 0
-0.0053362350 0.0167303030 0 0
-0.0022624750 0.0129841510 0 0
-0.0000889773 0.0091051800 0 0
0.0009655890 0.0054819480 0 0
0.0007884460 0.0024767350 0 0
-0.0006157130 0.0003869700 0 0
-0.0031239110 -0.0005853900 0 0
-0.0065053580 -0.0003522220 0 0
-0.0104419950 0.0010561070 0 0
-0.0145574620 0.0034983830 0 0
-0.0184521140 0.0067399450 0 0
-0.0217417170 0.0104772510 0 0
-0.0240970710 0.0143668690 0 0
-0.0252796800 0.0180562630 0 0
-0.0251672820 0.0212144950 0 0
-0.0237652230 0.0235613730 0 0
-0.0212038040 0.0248930150 0 0
-0.0177242380 0.0251010430 0 0
-0.0136554070 0.0241830600 0 0
-0.0093828670 0.0222436440 0 0
-0.0053124120 0.0194860560 0 0
-0.0018321150 0.0161944930 0 0
0.0007230730 0.0127069960 0 0
0.0021017730 0.0093816750 0 0
0.0021609090 0.0065613240 0 0
0.0008826800 0.0045410940 0 0
-0.0016199440 0.0035412970 0 0
-0.0051112600 0.0036861380 0 0
-0.0092535160 0.0049901400 0 0
-0.0136383390 0.0073545240 0 0
-0.0178258920 0.0105742780 0 0
-0.0213880300 0.0143552340 0 0
-0.0239525610 0.0183401660 0 0
-0.0252443930 0.0221425640 0 0
-0.0251162120 0.0253853190 0 0
-0.0235627340 0.0277395090 0 0
-0.0207185650 0.0289584210 0 0
-0.0168430160 0.0289038990 0 0
-0.0122944150 0.0275625990 0 0
-0.0074958780 0.0250489010 0 0
-0.0028951510 0.0215930380 0 0
0.0010790360 0.0175168770 0 0
0.0040610920 0.0132014580 0 0
0.0057872240 0.0090495610 0 0
0.0061219420 0.0054461490 0 0
0.0050699430 0.0027203960 0 0
0.0027742530 0.0011132190 0 0
-0.0004993350 0.0007534240 0 0
-0.0043911390 0.0016450120 0 0
-0.0084859190 0.0036676430 0 0
-0.0123555600 0.0065905960 0 0
-0.0156022640 0.0100983280 0 0
-0.0178981950 0.0138239510 0 0
-0.0190167190 0.0173860070 0 0
-0.0188517960 0.0204244040 0 0
-0.0174251840 0.0226328870 0 0
-0.0148830030 0.0237869230 0 0
-0.0114825340 0.0237656430 0 0
-0.0075688990 0.0225646230 0 0
-0.0035423980 0.0202959760 0 0
0.0001806470 0.0171754310 0 0
0.0032098730 0.0134995110 0 0
0.0052212480 0.0096167450 0 0
0.0059900280 0.0058956540 0 0
0.0054116890 0.0026912750 0 0
0.0035098020 0.0003121860 0 0
0.0004320360 -0.0010091790 0 0
-0.0035636410 -0.0011396480 0 0
-0.0081306220 -0.0000590132 0 0
-0.0128631390 0.0021373540 0 0
-0.0173335720 0.0052476410 0 0
-0.0211343850 0.0089840110 0 0
-0.0239190570 0.0130017880 0 0
-0.0254370380 0.0169334760 0 0
-0.0255594070 0.0204239390 0 0
-0.0242927580 0.0231636100 0 0
-0.0217796860 0.0249170590 0 0
-0.0182857370 0.0255447770 0 0
-0.0141737140 0.0250162160 0 0
-0.0098668610 0.0234122790 0 0
-0.0058046220 0.0209164910 0 0
-0.0023972970 0.0177958450 0 0
0.0000148013 0.0143736040 0 0
0.0011948180 0.0109975930 0 0
0.0010329560 0.0080078890 0 0
-0.0004428820 0.0057063250 0 0
-0.0030713850 0.0043286340 0 0
-0.0065768550 0.0040205230 0 0
-0.0106002560 0.0048204640 0 0
-0.0147374120 0.0066526330 0 0
-0.0185790040 0.0093323540 0 0
-0.0217483870 0.0125841210 0 0
-0.0239349330 0.0160702120 0 0
-0.0249215450 0.0194265730 0 0
-0.0246048770 0.0223019590 0 0
-0.0230067760 0.0243959570 0 0
-0.0202749270 0.0254907620 0 0
-0.0166699000 0.0254721640 0 0
-0.0125380460 0.0243381600 0 0
-0.0082750720 0.0221961630 0 0
-0.0042875110 0.0192506800 0 0
-0.0009559100 0.0157835640 0 0
0.0014000320 0.0121278860 0 0
0.0025524040 0.0086356630 0 0
0.0023875170 0.0056417890 0 0
0.0009172040 0.0034295910 0 0
-0.0017211190 0.0022034180 0 0
-0.0052763930 0.0020706390 0 0
-0.0094088910 0.0030327420 0 0
-0.0137255340 0.0049850580 0 0
-0.0178187410 0.0077260890 0 0
-0.0213036500 0.0109768220 0 0
-0.0238535580 0.0144083290 0 0
-0.0252329380 0.0176746840 0 0
-0.0253223120 0.0204474970 0 0
-0.0241296290 0.0224477850 0 0
-0.0217883210 0.0234720250 0 0
-0.0185437100 0.0234110470 0 0
-0.0147277040 0.0222604850 0 0
-0.0107242110 0.0201213680 0 0
-0.0069315270 0.0171907060 0 0
-0.0037261750 0.0137431530 0 0
-0.0014286120 0.0101048620 0 0
-0.0002715290 0.0066211000 0 0
-0.0003746000 0.0036212250 0 0
-0.0017303130 0.0013861740 0 0
-0.0042035530 0.0001221420 0 0
-0.0075455120 -0.0000580552 0 0
-0.0114212140 0.0008548890 0 0
-0.0154472730 0.0027660200 0 0
-0.0192329430 0.0054849950 0 0
-0.0224178080 0.0087438460 0 0
-0.0247035540 0.0122218050 0 0
-0.0258800310 0.0155750290 0 0
-0.0258451000 0.0184691700 0 0
-0.0246154180 0.0206124320 0 0
-0.0223246590 0.0217860510 0 0
-0.0192081930 0.0218684660 0 0
-0.0155765270 0.0208491470 0 0
-0.0117819190 0.0188297520 0 0
-0.0081837030 0.0160133650 0 0
-0.0051167650 0.0126841620 0 0
-0.0028641730 0.0091796770 0 0
-0.0016330440 0.0058575760 0 0
-0.0015342600 0.0030593500 0 0
-0.0025696950 0.0010749010 0 0
-0.0046305730 0.0001130050 0 0
-0.0075075030 0.0002817850 0 0
-0.0109110310 0.0015806250 0 0
-0.0145006170 0.0039028300 0 0
-0.0179174450 0.0070478180 0 0
-0.0208165480 0.0107410500 0 0
-0.0228978270 0.0146590470 0 0
-0.0239364890 0.0184573410 0 0
-0.0238083230 0.0218006020 0 0
-0.0225034620 0.0243944820 0 0
-0.0201277750 0.0260162590 0 0
-0.0168943490 0.0265386610 0 0
-0.0131049400 0.0259424600 0 0
-0.0091210660 0.0243175710 0 0
-0.0053286040 0.0218542220 0 0
-0.0021012500 0.0188249500 0 0
0.0002345120 0.0155579800 0 0
0.0014315960 0.0124038590 0 0
0.0013492840 0.0096990880 0 0
-0.0000280331 0.0077317410 0 0
-0.0025834690 0.0067136410 0 0
-0.0060750820 0.0067612680 0 0
-0.0101604160 0.0078851880 0 0
-0.0144355560 0.0099880020 0 0
-0.0184806330 0.0128722630 0 0
-0.0219034230 0.0162591960 0 0
-0.0243771340 0.0198165380 0 0
-0.0256709850 0.0231916420 0 0
-0.0256709060 0.0260458720 0 0
-0.0243875010 0.0280878740 0 0
-0.0219515840 0.0291035930 0 0
-0.0185994880 0.0289793450 0 0
-0.0146493000 0.0277143890 0 0
-0.0104698400 0.0254214430 0 0
-0.0064464600 0.0223153410 0 0
-0.0029471690 0.0186914740 0 0
-0.0002897170 0.0148967250 0 0
0.0012897000 0.0112958160 0 0
0.0016622090 0.0082365380 0 0
0.0008210570 0.0060175940 0 0
-0.0011183340 0.0048614280 0 0
-0.0039336840 0.0048929520 0 0
-0.0073223150 0.0061256270 0 0
-0.0109309880 0.0084573740 0 0
-0.0143851130 0.0116778400 0 0
-0.0173203090 0.0154868550 0 0
-0.0194185130 0.0195227890 0 0
-0.0204435230 0.0233982700 0 0
-0.0202679170 0.0267387300 0 0
-0.0188866830 0.0292186760 0 0
-0.0164173560 0.0305924140 0 1
-0.0130884190 0.0307181840 0 1
-0.0092172500 0.0295743860 0 0
-0.0051790280 0.0272647900 0 0
-0.0013702880 0.0240099900 0 0
0.0018291370 0.0201251300 0 0
0.0040940270 0.0159865930 0 0
0.0051881370 0.0119917540 0 0
0.0049889970 0.0085169690 0 0
0.0034992510 0.0058794300 0 0
0.0008442270 0.0043074280 0 0
-0.0027425850 0.0039213090 0 0
-0.0069435360 0.0047254060 0 0
-0.0113877010 0.0066103870 0 0
-0.0156857960 0.0093655850 0 0
-0.0194652470 0.0127004010 0 0
-0.0224020760 0.0162728710 0 0
-0.0242483210 0.0197230590 0 0
-0.0248541840 0.0227086000 0 0
-0.0241835250 0.0249386900 0 0
-0.0223217380 0.0262023770 0 0
-0.0194743470 0.0263880350 0 0
-0.0159527600 0.0254925370 0 0
-0.0121449390 0.0236197790 0 0
-0.0084742060 0.0209689860 0 0
-0.0053530240 0.0178143260 0 0
-0.0031377730 0.0144778210 0 0
-0.0020896480 0.0112978040 0 0
-0.0023472790 0.0085960200 0 0
-0.0039147410 0.0066468890 0 0
-0.0066641610 0.0056516110 0 0
-0.0103498970 0.0057190940 0 0
-0.0146325040 0.0068554900 0 0
-0.0191119050 0.0089637420 0 0
-0.0233675090 0.0118531440 0 0
-0.0270004860 0.0152573150 0 0
-0.0296733860 0.0188580940 0 0
-0.0311435790 0.0223133850 -1 0
-0.0312875400 0.0252881110 -1 0
-0.0301132580 0.0274875400 -1 0
-0.0277592770 0.0286897510 0 0
-0.0244807370 0.0287717120 0 0
-0.0206236580 0.0277241970 0 0
-0.0165896270 0.0256529880 0 0
-0.0127951680 0.0227662030 0 0
-0.0096312880 0.0193508230 0 0
-0.0074269200 0.0157432150 0 0
-0.0064179370 0.0122969350 0 0
-0.0067232400 0.0093497220 0 0
-0.0083312000 0.0071918940 0 0
-0.0111002240 0.0060385490 0 0
-0.0147742730 0.0060078110 0 0
-0.0190098640 0.0071076910 0 0
-0.0234092560 0.0092340760 0 0
-0.0275558200 0.0121805380 0 0
-0.0310503350 0.0156583480 -1 0
-0.0335483740 0.0193237160 -1 0
-0.0347965370 0.0228093960 -1 0
-0.0346616250 0.0257588450 -1 0
-0.0331468340 0.0278616900 -1 0
-0.0303921500 0.0288878090 -1 0
-0.0266589220 0.0287149790 0 0
-0.0223010400 0.0273445310 0 0
-0.0177272590 0.0249014920 0 0
-0.0133597120 0.0216193510 0 0
-0.0095928880 0.0178132250 0 0
-0.0067564640 0.0138464230 0 0
-0.0050844590 0.0100944360 0 0
-0.0046928590 0.0069093450 0 0
-0.0055684130 0.0045871450 0 0
-0.0075709550 0.0033403370 0 0
-0.0104493670 0.0032786690 0 0
-0.0138689760 0.0044003510 0 0
-0.0174463500 0.0065938860 0 0
-0.0207864970 0.0096489870 0 0
-0.0235186610 0.0132751690 0 0
-0.0253293480 0.0171275530 0 0
-0.0259918490 0.0208392560 0 0
-0.0253898640 0.0240576410 0 0
-0.0235309750 0.0264795530 0 0
-0.0205470750 0.0278808570 0 0
-0.0166823300 0.0281375290 0 0
-0.0122711390 0.0272368310 0 0
-0.0077081670 0.0252775430 0 0
-0.0034120700 0.0224593510 0 0
0.0002147810 0.0190630810 0 0
0.0028263250 0.0154241270 0 0
0.0041676260 0.0119008840 0 0
0.0041017450 0.0088402700 0 0
0.0026275670 0.0065434190 0 0
-0.0001146770 0.0052353940 0 0
-0.0038548450 0.0050425830 0 0
-0.0082215220 0.0059803960 0 0
-0.0127822620 0.0079522870 0 0
-0.0170891530 0.0107596060 0 0
-0.0207254880 0.0141208600 0 0
-0.0233488540 0.0176990370 0 0
-0.0247250650 0.0211351020 0 0
-0.0247490340 0.0240842490 0 0
-0.0234509020 0.0262509070 0 0
-0.0209877160 0.0274189580 0 0
-0.0176231330 0.0274740370 0 0
-0.0136995590 0.0264152210 0 0
-0.0096071480 0.0243546780 0 0
-0.0057517270 0.0215053140 0 0
-0.0025211530 0.0181575210 0 0
-0.0002497290 0.0146474640 0 0
0.0008160240 0.0113213800 0 0
0.0005443260 0.0085014600 0 0
-0.0010662000 0.0064571490 0 0
-0.0038832410 0.0053825870 0 0
-0.0076508090 0.0053798820 0 0
-0.0120138010 0.0064493350 0 0
-0.0165553190 0.0084889580 0 0
-0.0208408450 0.0113041010 0 0
-0.0244624480 0.0146256080 0 0
-0.0270787980 0.0181344420 0 0
-0.0284482890 0.0214913440 0 0
-0.0284514160 0.0243693500 0 0
-0.0270991890 0.0264856000 0 0
-0.0245283520 0.0276287140 0 0
-0.0209865020 0.0276794140 0 0
-0.0168090930 0.0266234280 0 0
-0.0123897650 0.0245555810 0 0
-0.0081464430 0.0216732040 0 0
-0.0044848770 0.0182578010 0 0
-0.0017598710 0.0146466840 0 0
-0.0002371390 0.0111983890 0 0
-0.0000629689 0.0082556580 0 0
-0.0012476400 0.0061097870 0 0
-0.0036637520 0.0049709690 0 0
-0.0070589460 0.0049484640 0 0
-0.0110823780 0.0060420580 0 0
-0.0153217220 0.0081445080 0 0
-0.0193453690 0.0110540020 0 0
-0.0227459420 0.0144950130 0 0
-0.0251822930 0.0181450300 0 0
-0.0264150920 0.0216645710 0 0
-0.0263304440 0.0247283950 0 0
-0.0249491440 0.0270556270 0 0
-0.0224223890 0.0284359290 0 0
-0.0190155630 0.0287489940 0 0
-0.0150814520 0.0279756710 0 0
-0.0110241820 0.0261998530 0 0
-0.0072571430 0.0236010130 0 0
-0.0041609480 0.0204378590 0 0
-0.0020469630 0.0170237940 0 0
-0.0011289680 0.0136956580 0 0
-0.0015039530 0.0107792100 0 0
-0.0031431520 0.0085565380 0 0
-0.0058943830 0.0072399650 0 0
-0.0094963210 0.0069541340 0 0
-0.0136047200 0.0077257960 0 0
-0.0178279700 0.0094811640 0 0
-0.0217660600 0.0120515600 0 0
-0.0250477570 0.0151876820 0 0
-0.0273646110 0.0185819370 0 0
-0.0285011820 0.0218970820 0 0
-0.0283579640 0.0247979690 0 0
-0.0269617480 0.0269833290 0 0
-0.0244605970 0.0282159200 0 0
-0.0211048310 0.0283492690 0 0
-0.0172181120 0.0273474210 0 0
-0.0131642030 0.0252930200 0 0
-0.0093151870 0.0223805390 0 0
-0.0060234270 0.0188954850 0 0
-0.0035949940 0.0151839300 0 0
-0.0022620350 0.0116166690 0 0
-0.0021558780 0.0085505700 0 0
-0.0032867200 0.0062901790 0 0
-0.0055361120 0.0050546950 0 0
-0.0086660530 0.0049551460 0 0
-0.0123448730 0.0059842940 0 0
-0.0161853580 0.0080196310 0 0
-0.0197871570 0.0108382080 0 0
-0.0227765340 0.0141408500 0 0
-0.0248410800 0.0175830840 0 0
-0.0257593350 0.0208097830 0 0
-0.0254234190 0.0234899980 0 0
-0.0238513670 0.0253486430 0 0
-0.0211869100 0.0261921360 0 0
-0.0176856110 0.0259257060 0 0
-0.0136883770 0.0245612300 0 0
-0.0095862530 0.0222156570 0 0
-0.0057811310 0.0191001860 0 0
-0.0026458200 0.0155004650 0 0
-0.0004870540 0.0117492790 0 0
0.0004840820 0.0081946410 0 0
0.0001711010 0.0051662270 0 0
-0.0014006030 0.0029429020 0 0
-0.0040883970 0.0017247890 0 0
-0.0076480080 0.0016139120 0 0
-0.0117570290 0.0026060730 0 0
-0.0160435450 0.0045939400 0 0
-0.0201181190 0.0073792760 0 0
-0.0236067950 0.0106919850 0 0
-0.0261831940 0.0142142120 0 0
-0.0275987090 0.0176082980 0 0
-0.0277091630 0.0205474190 0 0
-0.0264940930 0.0227467330 0 0
-0.0240637410 0.0239916700 0 0
-0.0206508950 0.0241598890 0 0
-0.0165885670 0.0232346140 0 0
-0.0122769080 0.0213083400 0 0
-0.0081433920 0.0185762510 0 0
-0.0046004790 0.0153187230 0 0
-0.0020043180 0.0118732970 0 0
-0.0006180570 0.0085985770 0 0
-0.0005838820 0.0058345420 0 0
-0.0019068120 0.0038649370 0 0
-0.0044521240 0.0028870280 0 0
-0.0079588250 0.0029924360 0 0
-0.0120696360 0.0041608170 0 0
-0.0163722700 0.0062662080 0 0
-0.0204431330 0.0090939930 0 0
-0.0238872060 0.0123646460 0 0
-0.0263723130 0.0157604090 0 0
-0.0276573030 0.0189532390 0 0
-0.0276132610 0.0216340260 0 0
-0.0262369670 0.0235422850 0 0
-0.0236544780 0.0244930350 0 0
-0.0201112260 0.0243961980 0 0
-0.0159479270 0.0232652830 0 0
-0.0115665430 0.0212147780 0 0
-0.0073905530 0.0184475620 0 0
-0.0038211470 0.0152347130 0 0
-0.0011939940 0.0118901550 0 0
0.0002540420 0.0087419940 0 0
0.0004030700 0.0061029510 0 0
-0.0007437010 0.0042430540 0 0
-0.0030623660 0.0033661010 0 0
-0.0063202050 0.0035894760 0 0
-0.0101980630 0.0049284030 0 0
-0.0143206620 0.0072886640 0 0
-0.0182909240 0.0104711440 0 0
-0.0217256910 0.0141884390 0 0
-0.0242909950 0.0180919040 0 0
-0.0257344850 0.0218069510 0 0
-0.0259115270 0.0249732000 0 0
-0.0248015200 0.0272841130 0 0
-0.0225122740 0.0285198750 0 0
-0.0192709260 0.0285691720 0 0
-0.0154007590 0.0274393030 0 0
-0.0112868570 0.0252556880 0 0
-0.0073372820 0.0222504280 0 0
-0.0039452590 0.0187390320 0 0
-0.0014532940 0.0150865200 0 0
-0.0001195180 0.0116672310 0 0
-0.0000901013 0.0088246780 0 0
-0.0013828460 0.0068372450 0 0
-0.0038845150 0.0058929960 0 0
-0.0073615290 0.0060749950 0 0
-0.0114823260 0.0073573890 0 0
-0.0158488890 0.0096113030 0 0
-0.0200343250 0.0126188550 0 0
-0.0236238290 0.0160936920 0 0
-0.0262565750 0.0197070530 0 0
-0.0276648170 0.0231180640 0 0
-0.0277051050 0.0260054940 0 0
-0.0263761740 0.0280976190 0 0
-0.0238191940 0.0291978400 0 0
-0.0202998930 0.0292040680 0 0
-0.0161769390 0.0281196390 0 0
-0.0118625910 0.0260536810 0 0
-0.0077800650 0.0232101850 0 0
-0.0043214570 0.0198672340 0 0
-0.0018105800 0.0163495840 0 0
-0.0004738700 0.0129981000 0 0
-0.0004208960 0.0101390090 0 0
-0.0016358110 0.0080552430 0 0
-0.0039812470 0.0069612640 0 0
-0.0072144570 0.0069823100 0 0
-0.0110125620 0.0081393420 0 0
-0.0150023490 0.0103418290 0 0
-0.0187916970 0.0133912050 0 0
-0.0220024180 0.0169972710 0 0
-0.0243049430 0.0208069570 0 0
-0.0254525200 0.0244413750 0 0
-0.0253096540 0.0275355730 0 0
-0.0238697550 0.0297762280 0 0
-0.0212596470 0.0309339570 0 1
-0.0177301780 0.0308872930 0 1
-0.0136324740 0.0296353630 0 0
-0.0093814530 0.0272974220 0 0
-0.0054113900 0.0240992830 0 0
-0.0021297270 0.0203485230 0 0
0.0001254240 0.0164019890 0 0
0.0011199810 0.0126300670 0 0
0.0007476470 0.0093815970 0 0
-0.0009597720 0.0069525410 0 0
-0.0038366970 0.0055608240 0 0
-0.0076026960 0.0053284250 0 0
-0.0118943340 0.0062707070 0 0
-0.0163053810 0.0082936450 0 0
-0.0204278410 0.0112005330 0 0
-0.0238881240 0.0147088330 0 0
-0.0263776140 0.0184759490 0 0
-0.0276783500 0.0221313280 0 0
-0.0276829400 0.0253116800 0 0
-0.0264069300 0.0276962600 0 0
-0.0239909390 0.0290397260 0 0
-0.0206891390 0.0291994130 0 0
-0.0168432080 0.0281524690 0 0
-0.0128454270 0.0259992030 0 0
-0.0090974930 0.0229525320 0 0
-0.0059710330 0.0193159750 0 0
-0.0037731090 0.0154525800 0 0
-0.0027180840 0.0117468480 0 0
-0.0029068150 0.0085635390 0 0
-0.0043151760 0.0062091460 0 0
-0.0067959080 0.0049009530 0 0
-0.0100964450 0.0047463670 0 0
-0.0138894520 0.0057337010 0 0
-0.0178088250 0.0077352050 0 0
-0.0214849220 0.0105222730 0 0
-0.0245758280 0.0137906690 0 0
-0.0267944170 0.0171922480 0 0
-0.0279322990 0.0203698050 0 0
-0.0278797730 0.0229916130 0 0
-0.0266386350 0.0247823010 0 0
-0.0243250800 0.0255481360 0 0
-0.0211613200 0.0251953150 0 0
-0.0174558510 0.0237391200 0 0
-0.0135744750 0.0213023720 0 0
-0.0099055590 0.0181036200 0 0
-0.0068223830 0.0144368800 0 0
-0.0046448870 0.0106449090 0 0
-0.0036048920 0.0070880550 0 0
-0.0038199770 0.0041110720 0 0
-0.0052791770 0.0020102570 0 0
-0.0078419260 0.0010029900 0 0
-0.0112519670 0.0012024580 0 0
-0.0151658500 0.0026020580 0 0
-0.0191907570 0.0050740400 0 0
-0.0229245130 0.0083837850 0 0
-0.0259933420 0.0122166410 0 0
-0.0280861860 0.0162119020 0 0
-0.0289845200 0.0199988110 0 0
-0.0285847510 0.0232306320 0 0
-0.0269097660 0.0256144770 0 0
-0.0241073770 0.0269364640 0 0
-0.0204354650 0.0270819310 0 0
-0.0162360740 0.0260485370 0 0
-0.0119015720 0.0239486130 0 0
-0.0078361090 0.0209985570 0 0
-0.0044169570 0.0174965120 0 0
-0.0019604920 0.0137921170 0 0
-0.0006948150 0.0102522620 0 0
-0.0007391140 0.0072257030 0 0
-0.0020902840 0.0050089080 0 0
-0.0046188200 0.0038160580 0 0
-0.0080775150 0.0037566740 0 0
-0.0121249000 0.0048239380 0 0
-0.0163601080 0.0068952920 0 0
-0.0203628160 0.0097452280 0 0
-0.0237337260 0.0130687390 0 0
-0.0261330500 0.0165127440 0 0
-0.0273138600 0.0197126000 0 0
-0.0271469490 0.0223304170 0 0
-0.0256355030 0.0240907790 0 0
-0.0229189080 0.0248090210 0 0
-0.0192638010 0.0244081220 0 0
-0.0150399910 0.0229223740 0 0
-0.0106814220 0.0204890970 0 0
-0.0066366080 0.0173320900 0 0
-0.0033168150 0.0137404390 0 0
-0.0010514490 0.0100446000 0 0
-0.0000574803 0.0065895370 0 0
-0.0004245400 0.0037041210 0 0
-0.0021129180 0.0016682710 0 0
-0.0049608720 0.0006824670 0 0
-0.0087001080 0.0008451490 0 0
-0.0129796930 0.0021418760 0 0
-0.0173969620 0.0044477350 0 0
-0.0215325050 0.0075416220 0 0
-0.0249874080 0.0111288850 0 0
-0.0274213020 0.0148690960 0 0
-0.0285871350 0.0184074540 0 0
-0.0283571700 0.0214083910 0 0
-0.0267369910 0.0235881990 0 0
-0.0238674400 0.0247429200 0 0
-0.0200147760 0.0247685680 0 0
-0.0155477350 0.0236717290 0 0
-0.0109015140 0.0215693510 0 0
-0.0065336360 0.0186775730 0 0
-0.0028788050 0.0152905800 0 0
-0.0003066610 0.0117517320 0 0
0.0009165640 0.0084199710 0 0
0.0006599960 0.0056346460 0 0
-0.0010526340 0.0036821010 0 0
-0.0040434430 0.0027670940 0 0
-0.0080023550 0.0029914510 0 0
-0.0125255090 0.0043425180 0 0
-0.0171620810 0.0066939550 0 0
-0.0214618430 0.0098193050 0 0
-0.0250181400 0.0134159880 0 0
-0.0275042390 0.0171365160 0 0
-0.0287019600 0.0206239180 0 0
-0.0285206730 0.0235478510 0 0
-0.0270048230 0.0256373480 0 0
-0.0243283830 0.0267065980 0 0
-0.0207753300 0.0266712950 0 0
-0.0167077830 0.0255546850 0 0
-0.0125270120 0.0234836350 0 0
-0.0086339320 0.0206753710 0 0
-0.0053940630 0.0174159320 0 0
-0.0031087860 0.0140324610 0 0
-0.0019920180 0.0108623700 0 0
-0.0021510980 0.0082226870 0 0
-0.0035739700 0.0063822990 0 0
-0.0061274040 0.0055381030 0 0
-0.0095685110 0.0057952770 0 0
-0.0135678770 0.0071532950 0 0
-0.0177417660 0.0095012250 0 0
-0.0216902760 0.0126253750 0 0
-0.0250363560 0.0162292620 0 0
-0.0274609960 0.0199628470 0 0
-0.0287324980 0.0234573120 0 0
-0.0287289330 0.0263624190 0 0
-0.0274525810 0.0283828900 0 0
-0.0250341190 0.0293090940 0 0
-0.0217235020 0.0290379110 0 0
-0.0178654930 0.0275818610 0 0
-0.0138615160 0.0250664330 0 0
-0.0101246640 0.0217167160 0 0
-0.0070362150 0.0178356890 0 0
-0.0049084530 0.0137770490 0 0
-0.0039561650 0.0099146370 0 0
-0.0042794960 0.0066095490 0 0
-0.0058589760 0.0041764090 0 0
-0.0085602700 0.0028514420 0 0
-0.0121462030 0.0027661560 0 0
-0.0162954770 0.0039311180 0 0
-0.0206280630 0.0062331650 0 0
-0.0247370970 0.0094466450 0 0
-0.0282268100 0.0132569120 0 0
-0.0307547580 0.0172930570 -1 0
-0.0320725640 0.0211659970 -1 0
-0.0320553330 0.0245075820 -1 0
-0.0307124850 0.0270065380 -1 0
-0.0281808830 0.0284374520 0 0
-0.0247067380 0.0286802410 0 0
-0.0206215490 0.0277292770 0 0
-0.0163128730 0.0256922980 0 0
-0.0121891700 0.0227793540 0 0
-0.0086405360 0.0192828250 0 0
-0.0059997940 0.0155501350 0 0
-0.0045091890 0.0119505440 0 0
-0.0042974450 0.0088382920 0 0
-0.0053692880 0.0065163810 0 0
-0.0076061650 0.0052055600 0 0
-0.0107764640 0.0050221020 0 0
-0.0145554730 0.0059670980 0 0
-0.0185555390 0.0079289160 0 0
-0.0223642390 0.0106981390 0 0
-0.0255862420 0.0139913440 0 0
-0.0278845130 0.0174792090 0 0
-0.0290165590 0.0208161140 0 0
-0.0288607470 0.0236701280 0 0
-0.0274288020 0.0257523510 0 0
-0.0248632460 0.0268441550 0 0
-0.0214204810 0.0268196660 0 0
-0.0174420750 0.0256600780 0 0
-0.0133190760 0.0234574630 0 0
-0.0094545220 0.0204074770 0 0
-0.0062279030 0.0167912610 0 0
-0.0039638450 0.0129482420 0 0
-0.0029054170 0.0092429410 0 0
-0.0031911890 0.0060291690 0 0
-0.0048370270 0.0036149710 0 0
-0.0077267030 0.0022319560 0 0
-0.0116164410 0.0020124540 0 0
-0.0161562230 0.0029764460 0 0
-0.0209255550 0.0050286230 0 0
-0.0254770600 0.0079659250 0 0
-0.0293813770 0.0114962130 0 0
-0.0322692630 0.0152668960 -1 0
-0.0338680580 0.0189000080 -1 0
-0.0340299400 0.0220295640 -1 0
-0.0327495490 0.0243376090 -1 0
-0.0301683340 0.0255860560 -1 0
-0.0265626850 0.0256413140 0 0
-0.0223150600 0.0244887530 0 0
-0.0178718780 0.0222350450 0 0
-0.0136952550 0.0190979650 0 0
-0.0102151070 0.0153842750 0 0
-0.0077860730 0.0114575350 0 0
-0.0066528450 0.0076996430 0 0
-0.0069271580 0.0044713780 0 0
-0.0085785080 0.0020771610 0 0
-0.0114392260 0.0007374600 0 0
-0.0152233520 0.0005697000 0 0
-0.0195572620 0.0015774470 0 0
-0.0240174710 0.0036486470 0 0
-0.0281702120 0.0065647370 0 0
-0.0316101150 0.0100217300 -1 0
-0.0339979410 0.0136618520 -1 0
-0.0350957170 0.0171115950 -1 0
-0.0347935820 0.0200207260 -1 0
-0.0331222910 0.0220971370 -1 0
-0.0302495410 0.0231340690 -1 0
-0.0264622430 0.0230281640 0 0
-0.0221375750 0.0217882560 0 0
-0.0177048180 0.0195351280 0 0
-0.0136002520 0.0164914860 0 0
-0.0102200020 0.0129614380 0 0
-0.0078783070 0.0093006800 0 0
-0.0067776560 0.0058805360 0 0
-0.0069939210 0.0030501860 0 0
-0.0084765440 0.0011020560 0 0
-0.0110605950 0.0002440890 0 0
-0.0144859240 0.0005804060 0 0
-0.0184211150 0.0021014400 0 0
-0.0224924900 0.0046845350 0 0
-0.0263167930 0.0081047100 0 0
-0.0295346100 0.0120548430 0 0
-0.0318434290 0.0161744730 -1 0
-0.0330292900 0.0200847540 -1 0
-0.0329919150 0.0234250270 -1 0
-0.0317564440 0.0258866410 -1 0
-0.0294685250 0.0272417020 0 0
-0.0263745530 0.0273655150 0 0
-0.0227925430 0.0262504880 0 0
-0.0190803710 0.0240086490 0 0
-0.0156048200 0.0208616180 0 0
-0.0127100680 0.0171188640 0 0
-0.0106845300 0.0131460740 0 0
-0.0097303720 0.0093270970 0 0
-0.0099428480 0.0060247840 0 0
-0.0113023370 0.0035456730 0 0
-0.0136769140 0.0021116200 0 0
-0.0168337120 0.0018404540 0 0
-0.0204592390 0.0027370000 0 0
-0.0241883180 0.0046943250 0 0
-0.0276395460 0.0075043190 0 0
-0.0304529710 0.0108772850 -1 0
-0.0323254870 0.0144702100 -1 0
-0.0330411470 0.0179216210 -1 0
-0.0324941290 0.0208889680 -1 0
-0.0307019100 0.0230837020 -1 0
-0.0278070240 0.0242999230 0 0
-0.0240670330 0.0244343330 0 0
-0.0198328370 0.0234959080 0 0
-0.0155156540 0.0216035590 0 0
-0.0115449370 0.0189718440 0 0
-0.0083223410 0.0158869280 0 0
-0.0061776210 0.0126761490 0 0
-0.0053316020 0.0096749050 0 0
-0.0058706400 0.0071938230 0 0
-0.0077361710 0.0054883250 0 0
-0.0107320140 0.0047337630 0 0
-0.0145500060 0.0050097000 0 0
-0.0188092690 0.0062945600 0 0
-0.0231003190 0.0084694090 0 0
-0.0270263310 0.0113292750 0 0
-0.0302374940 0.0146014860 -1 0
-0.0324573900 0.0179711310 -1 0
-0.0335025110 0.0211119500 -1 0
-0.0332962870 0.0237181770 -1 0
-0.0318766740 0.0255329280 -1 0
-0.0293942900 0.0263712470 0 0
-0.0260989480 0.0261375290 0 0
-0.0223154700 0.0248366080 0 0
-0.0184119130 0.0225763470 0 0
-0.0147643000 0.0195594250 0 0
-0.0117218590 0.0160639320 0 0
-0.0095756460 0.0124148580 0 0
-0.0085325170 0.0089503010 0 0
-0.0086964020 0.0059871520 0 0
-0.0100585510 0.0037904390 0 0
-0.0124979310 0.0025485600 0 0
-0.0157921660 0.0023553460 0 0
-0.0196376680 0.0032002720 0 0
-0.0236763760 0.0049685960 0 0
-0.0275268590 0.0074524570 0 0
-0.0308185030 0.0103722500 -1 0
-0.0332274030 0.0134054500 -1 0
-0.0345110790 0.0162187460 -1 0
-0.0345371760 0.0185004710 -1 0
-0.0333008380 0.0199914050 -1 0
-0.0309274540 0.0205109760 -1 0
-0.0276604600 0.0199752430 0 0
-0.0238358570 0.0184042900 0 0
-0.0198464670 0.0159185460 0 0
-0.0161005820 0.0127256900 0 0
-0.0129804590 0.0091013210 0 0
-0.0108046970 0.0053653590 0 0
-0.0097967430 0.0018539390 0 0
-0.0100618870 -0.0011127520 0 0
-0.0115762780 -0.0032627720 0 0
-0.0141906800 -0.0043992280 0 0
-0.0176486080 -0.0044178780 0 0
-0.0216153440 -0.0033150800 0 0
-0.0257130160 -0.0011874650 0 0
-0.0295573090 0.0017759850 0 0
-0.0327923100 0.0053098360 -1 0
-0.0351208760 0.0090957340 -1 0
-0.0363288270 0.0127918280 -1 0
-0.0363023860 0.0160653480 -1 0
-0.0350394430 0.0186246630 -1 0
-0.0326540070 0.0202472870 -1 0
-0.0293706520 0.0208011560 0 0
-0.0255065650 0.0202568020 0 0
-0.0214423680 0.0186891540 0 0
-0.0175847780 0.0162694730 0 0
-0.0143244310 0.0132485700 0 0
-0.0119928250 0.0099327300 0 0
-0.0108239110 0.0066546940 0 0
-0.0109272230 0.0037425610 0 0
-0.0122779310 0.0014888160 0 0
-0.0147237830 0.0001210830 0 0
-0.0180047230 -0.0002228780 0 0
-0.0217811130 0.0004881880 0 0
-0.0256678370 0.0021743690 0 0
-0.0292716490 0.0046527280 0 0
-0.0322291410 0.0076564010 -1 0
-0.0342429000 0.0108619230 -1 0
-0.0351131230 0.0139224570 -1 0
-0.0347607230 0.0165040870 -1 0
-0.0332366110 0.0183207620 -1 0
-0.0307136850 0.0191633010 -1 0
-0.0274628250 0.0189194320 0 0
-0.0238177820 0.0175836610 0 0
-0.0201358020 0.0152568320 0 0
-0.0167616300 0.0121356290 0 0
-0.0139992680 0.0084925440 0 0
-0.0120900150 0.0046481020 0 0
-0.0111939780 0.0009383540 0 0
-0.0113754500 -0.0023191910 0 0
-0.0125941900 -0.0048580980 0 0
-0.0147044110 -0.0064903780 0 0
-0.0174632190 -0.0071255790 0 0
-0.0205493660 -0.0067805930 0 0
-0.0235907180 -0.0055803140 0 0
-0.0261970930 -0.0037484880 0 0
-0.0279960630 -0.0015880890 0 0
-0.0286708430 0.0005475430 0 0
-0.0279974950 0.0022896150 0 0
-0.0258738620 0.0032905680 0 0
-0.0223317040 0.0032581750 0 0
-0.0175301190 0.0019842870 0 0
-0.0117367750 -0.0006336260 0 0
-0.0053041280 -0.0045810040 0 0
0.0013584610 -0.0097272390 0 0
0.0078195950 -0.0158383860 0 0
0.0136678520 -0.0225983690 0 0
0.0185567480 -0.0296365690 0 0
0.0222456460 -0.0365608910 0 -1
0.0246283430 -0.0429939610 0 -1
0.0257433870 -0.0486082520 0 -1
0.0257654040 -0.0531561080 0 -1
0.0249808090 -0.0564918580 0 -1
0.0237533030 -0.0585843540 0 -1
0.0224847430 -0.0595191310 0 -1
0.0215749630 -0.0594895010 0 -1
0.0213829800 -0.0587763570 0 -1
0.0221937660 -0.0577184110 0 -1
0.0241948660 -0.0566767280 0 -1
0.0274631390 -0.0559982530 0 -1
0.0319594550 -0.0559823430 1 -1
0.0375306070 -0.0568529450 1 -1
0.0439198110 -0.0587378440 1 -1
0.0507874740 -0.0616558440 1 -1
0.0577419180 -0.0655130810 1 -1
0.0643762290 -0.0701101270 1 -1
0.0703057400 -0.0751605260 1 -1
0.0752022940 -0.0803198060 1 -1
0.0788236310 -0.0852225930 1 -1
0.0810366650 -0.0895232850 1 -1
0.0818330070 -0.0929337750 1 -1
0.0813338780 -0.0952528130 1 -1
0.0797804280 -0.0963849890 1 -1
0.0775083610 -0.0963492120 1 -1
0.0749106590 -0.0952758870 1 -1
0.0723947630 -0.0933924340 1 -1
0.0703404520 -0.0909992610 1 -1
0.0690629150 -0.0884390890 1 -1
0.0687828000 -0.0860621490 1 -1
0.0696046580 -0.0841910570 1 -1
0.0715076920 -0.0830898730 1 -1
0.0743519270 -0.0829400230 1 -1
0.0778970680 -0.0838241950 1 -1
0.0818276440 -0.0857190170 1 -1
0.0857806290 -0.0884970910 1 -1
0.0893762410 -0.0919388270 1 -1
0.0922534190 -0.0957539940 1 -1
0.0941078670 -0.0996109750 1 -1
0.0947265470 -0.1031698920 1 -1
0.0940120850 -0.1061157640 1 -1
0.0919934630 -0.1081884140 1 -1
0.0888227660 -0.1092064830 1 -1
0.0847601990 -0.1090843920 1 -1
0.0801505050 -0.1078416300 1 -1
0.0753925790 -0.1056026270 1 -1
0.0709021280 -0.1025860040 1 -1
0.0670690250 -0.0990845630 1 -1
0.0642162030 -0.0954383110 1 -1
0.0625684810 -0.0920023640 1 -1
0.0622343020 -0.0891124560 1 -1
0.0631979170 -0.0870521540 1 -1
0.0653197870 -0.0860254500 1 -1
0.0683464890 -0.0861371310 1 -1
0.0719333050 -0.0873824700 1 -1
0.0756800480 -0.0896472060 1 -1
0.0791752000 -0.0927179700 1 -1
0.0820403400 -0.0963021010 1 -1
0.0839679480 -0.1000548240 1 -1
0.0847486820 -0.1036117250 1 -1
0.0842876920 -0.1066242450 1 -1
0.0826116450 -0.1087945970 1 -1
0.0798665280 -0.1099059380 1 -1
0.0763039570 -0.1098446200 1 -1
0.0722562920 -0.1086125040 1 -1
0.0681057350 -0.1063275380 1 -1
0.0642518020 -0.1032118310 1 -1
0.0610763330 -0.0995688560 1 -1
0.0589044980 -0.0957531050 1 -1
0.0579659590 -0.0921351640 1 -1
0.0583645940 -0.0890649500 1 -1
0.0600636040 -0.0868363430 1 -1
0.0628889300 -0.0856571910 1 -1
0.0665503660 -0.0856288390 1 -1
0.0706757620 -0.0867378920 1 -1
0.0748513690 -0.0888601480 1 -1
0.0786624290 -0.0917749670 1 -1
0.0817310760 -0.0951880320 1 -1
0.0837504100 -0.0987600320 1 -1
0.0845125240 -0.1021385730 1 -1
0.0839266980 -0.1049907890 1 -1
0.0820258230 -0.1070341050 1 -1
0.0789624430 -0.1080626450 1 -1
0.0749962560 -0.1079669970 1 -1
0.0704731650 -0.1067455800 1 -1
0.0657962850 -0.1045059650 1 -1
0.0613907580 -0.1014547020 1 -1
0.0576642120 -0.0978761930 1 -1
0.0549652120 -0.0941036740 1 -1
0.0535448750 -0.0904861480 1 -1
0.0535286770 -0.0873545370 1 -1
0.0549027720 -0.0849897730 1 -1
0.0575148510 -0.0835957000 1 -1
0.0610888840 -0.0832798900 1 -1
0.0652543710 -0.0840445380 1 -1
0.0695880310 -0.0857878710 1 -1
0.0736605680 -0.0883155810 1 -1
0.0770795270 -0.0913608620 1 -1
0.0795231370 -0.0946101420 1 -1
0.0807650350 -0.0977313680 1 -1
0.0806913760 -0.1004029920 1 -1
0.0793107220 -0.1023425380 1 -1
0.0767551750 -0.1033333240 1 -1
0.0732697040 -0.1032474310 1 -1
0.0691875710 -0.1020618950 1 -1
0.0648948150 -0.0998647840 1 -1
0.0607914290 -0.0968494110 1 -1
0.0572555350 -0.0932968530 1 -1
0.0546118760 -0.0895482570 1 -1
0.0531032460 -0.0859699570 1 -1
0.0528655730 -0.0829156180 1 -1
0.0539105770 -0.0806895940 1 -1
0.0561205710 -0.0795154640 1 -1
0.0592579490 -0.0795134030 1 -1
0.0629888250 -0.0806888380 1 -1
0.0669174630 -0.0829326930 1 -1
0.0706263190 -0.0860319720 1 -1
0.0737163950 -0.0896891100 1 -1
0.0758441730 -0.0935487520 1 -1
0.0767536430 -0.0972307250 1 -1
0.0763037740 -0.1003676050 1 -1
0.0744898250 -0.1026438210 1 -1
0.0714519930 -0.1038313070 1 -1
0.0674642250 -0.1038157200 1 -1
0.0629025800 -0.1026083030 1 -1
0.0582003840 -0.1003417470 1 -1
0.0538003260 -0.0972522510 1 -1
0.0501109400 -0.0936524300 1 -1
0.0474704720 -0.0898993420 1 -1
0.0461183270 -0.0863602000 1 -1
0.0461742540 -0.0833775560 1 -1
0.0476267380 -0.0812366100 1 -1
0.0503328340 -0.0801380850 1 -1
0.0540308550 -0.0801793920 1 -1
0.0583645740 -0.0813457760 1 -1
0.0629153100 -0.0835125700 1 -1
0.0672391490 -0.0864585520 1 -1
0.0709082990 -0.0898885500 1 -1
0.0735547180 -0.0934621160 1 -1
0.0749111960 -0.0968252730 1 -1
0.0748422470 -0.0996430560 1 -1
0.0733580690 -0.1016302470 1 -1
0.0706105480 -0.1025774500 1 -1
0.0668755370 -0.1023708820 1 -1
0.0625249380 -0.1010051240 1 -1
0.0579899330 -0.0985870820 1 -1
0.0537184800 -0.0953285160 1 -1
0.0501323450 -0.0915258950 1 -1
0.0475870220 -0.0875298170 1 -1
0.0463362850 -0.0837085920 1 -1
0.0465049810 -0.0804104530 1 -1
0.0480749480 -0.0779280550 1 -1
0.0508871060 -0.0764689790 1 -1
0.0546591600 -0.0761357630 1 -1
0.0590151010 -0.0769177700 1 -1
0.0635219210 -0.0786952850 1 -1
0.0677308000 -0.0812539050 1 -1
0.0712211320 -0.0843060380 1 -1
0.0736444620 -0.0875173050 1 -1
0.0747627470 -0.0905375130 1 -1
0.0744732830 -0.0930354440 1 -1
0.0728153440 -0.0947339930 1 -1
0.0699605750 -0.0954399710 1 -1
0.0661921060 -0.0950635220 1 -1
0.0618750680 -0.0936253120 1 -1
0.0574202670 -0.0912527690 1 -1
0.0532451070 -0.0881671630 1 -1
0.0497365540 -0.0846621010 1 -1
0.0472180290 -0.0810743320 1 -1
0.0459195920 -0.0777497930 1 -1
0.0459529030 -0.0750093140 1 -1
0.0472962800 -0.0731180830 1 -1
0.0497950230 -0.0722617460 1 -1
0.0531779270 -0.0725302800 1 -1
0.0570871150 -0.0739094590 1 -1
0.0611163390 -0.0762802750 1 -1
0.0648518590 -0.0794279020 1 -1
0.0679111450 -0.0830609630 1 -1
0.0699779540 -0.0868392080 1 -1
0.0708333440 -0.0904059540 1 -1
0.0703796510 -0.0934218880 1 -1
0.0686527440 -0.0955976160 1 -1
0.0658192270 -0.0967224120 1 -1
0.0621581820 -0.0966860950 1 -1
0.0580297490 -0.0954908660 1 -1
0.0538357010 -0.0932512390 1 -1
0.0499795220 -0.0901822360 1 -1
0.0468311360 -0.0865776750 1 -1
0.0446955060 -0.0827814150 1 -1
0.0437833670 -0.0791546780 1 -1
0.0441875070 -0.0760421380 1 -1
0.0458715410 -0.0737395030 1 -1
0.0486751250 -0.0724652090 1 -1
0.0523334890 -0.0723383520 1 -1
0.0565061640 -0.0733649490 1 -1
0.0608103560 -0.0754352050 1 -1
0.0648553670 -0.0783332690 1 -1
0.0682757190 -0.0817585550 1 -1
0.0707624890 -0.0853561890 1 -1
0.0720919450 -0.0887532370 1 -1
0.0721477730 -0.0915964600 1 -1
0.0709333440 -0.0935874950 1 -1
0.0685737610 -0.0945126800 1 -1
0.0653078120 -0.0942653040 1 -1
0.0614677460 -0.0928577670 1 -1
0.0574460110 -0.0904212800 1 -1
0.0536530380 -0.0871924930 1 -1
0.0504728590 -0.0834887620 1 -1
0.0482220640 -0.0796750980 1 -1
0.0471167290 -0.0761264340 1 -1
0.0472518590 -0.0731895400 1 -1
0.0485947650 -0.0711493090 1 -1
0.0509904790 -0.0702029690 1 -1
0.0541781890 -0.0704432760 1 -1
0.0578185750 -0.0718503300 1 -1
0.0615292210 -0.0742925640 1 -1
0.0649232910 -0.0775385450 1 -1
0.0676474080 -0.0812794690 1 -1
0.0694156150 -0.0851593960 1 -1
0.0700366410 -0.0888092730 1 -1
0.0694322560 -0.0918814380 1 -1
0.0676448640 -0.0940821150 1 -1
0.0648329720 -0.0951996870 1 -1
0.0612550480 -0.0951260550 1 -1
0.0572443160 -0.0938684730 1 -1
0.0531775680 -0.0915506900 1 -1
0.0494411590 -0.0884030400 1 -1
0.0463968890 -0.0847406300 1 -1
0.0443486440 -0.0809301880 1 -1
0.0435099180 -0.0773502170 1 -1
0.0439753710 -0.0743511950 1 -1
0.0457044570 -0.0722207350 1 -1
0.0485247400 -0.0711563660 1 -1
0.0521537690 -0.0712477470 1 -1
0.0562304830 -0.0724696260 1 -1
0.0603492560 -0.0746857640 1 -1
0.0640958670 -0.0776631570 1 -1
0.0670856490 -0.0810956550 1 -1
0.0690013450 -0.0846350370 1 -1
0.0696265120 -0.0879255920 1 -1
0.0688699500 -0.0906378840 1 -1
0.0667773130 -0.0924986780 1 -1
0.0635279400 -0.0933151360 1 -1
0.0594169570 -0.0929922830 1 -1
0.0548242310 -0.0915427360 1 -1
0.0501736030 -0.0890866800 1 -1
0.0458880870 -0.0858409480 1 -1
0.0423477740 -0.0820986040 1 -1
0.0398557280 -0.0782016690 1 -1
0.0386137560 -0.0745095410 1 -1
0.0387077110 -0.0713653170 1 -1
0.0401020300 -0.0690624220 1 -1
0.0426434250 -0.0678149060 1 -1
0.0460737230 -0.0677347860 1 -1
0.0500527810 -0.0688188350 1 -1
0.0541914850 -0.0709470460 1 -1
0.0580910940 -0.0738940410 1 -1
0.0613826040 -0.0773520080 1 -1
0.0637617800 -0.0809618080 1 -1
0.0650177900 -0.0843488720 1 -1
0.0650519410 -0.0871606720 1 -1
0.0638827580 -0.0891022910 1 -1
0.0616389370 -0.0899667350 1 -1
0.0585454320 -0.0896568620 1 -1
0.0549048210 -0.0881956920 1 -1
0.0510721640 -0.0857228010 1 -1
0.0474228370 -0.0824772720 1 -1
0.0443158010 -0.0787705870 1 -1
0.0420562200 -0.0749543630 1 -1
0.0408624210 -0.0713869950 1 -1
0.0408426240 -0.0684012860 1 -1
0.0419845970 -0.0662746840 1 -1
0.0441577500 -0.0652042860 1 -1
0.0471258320 -0.0652882470 1 -1
0.0505698280 -0.0665148510 1 -1
0.0541210920 -0.0687614650 1 -1
0.0574014200 -0.0718051290 1 -1
0.0600630440 -0.0753435470 1 -1
0.0618219700 -0.0790235880 1 -1
0.0624825680 -0.0824754500 1 -1
0.0619546010 -0.0853507080 1 -1
0.0602622210 -0.0873593030 1 -1
0.0575421150 -0.0882988560 1 -1
0.0540297420 -0.0880730620 1 -1
0.0500359720 -0.0866998160 1 -1
0.0459174230 -0.0843100600 1 -1
0.0420435740 -0.0811366420 1 -1
0.0387638510 -0.0774920790 1 -1
0.0363776990 -0.0737363130 1 -1
0.0351095430 -0.0702387430 1 -1
0.0350887000 -0.0673400200 1 -1
0.0363336030 -0.0653178500 1 -1
0.0387424850 -0.0643602070 1 -1
0.0420954570 -0.0645487950 1 -1
0.0460717490 -0.0658539840 1 -1
0.0502818090 -0.0681402820 1 -1
0.0543097170 -0.0711805250 1 -1
0.0577589340 -0.0746773480 1 -1
0.0602950390 -0.0782910220 1 -1
0.0616807400 -0.0816721890 1 -1
0.0617989440 -0.0844960570 1 -1
0.0606611900 -0.0864929860 1 -1
0.0584020860 -0.0874716270 1 -1
0.0552623400 -0.0873338900 1 -1
0.0515626030 -0.0860825490 1 -1
0.0476704600 -0.0838214660 1 -1
0.0439637010 -0.0807478730 1 -1
0.0407934730 -0.0771367570 1 -1
0.0384514150 -0.0733180010 1 -1
0.0371444600 -0.0696474110 1 -1
0.0369782940 -0.0664732860 1 -1
0.0379485180 -0.0641010660 1 -1
0.0399404250 -0.0627600350 1 -1
0.0427400610 -0.0625772890 1 -1
0.0460567160 -0.0635635410 1 -1
0.0495525960 -0.0656126650 1 -1
0.0528737420 -0.0685136930 1 -1
0.0556796960 -0.0719723700 1 -1
0.0576741190 -0.0756399350 1 -1
0.0586376100 -0.0791478090 1 -1
0.0584577850 -0.0821456630 1 -1
0.0571481020 -0.0843375160 1 -1
0.0548492720 -0.0855098860 1 -1
0.0518121370 -0.0855489890 1 -1
0.0483658910 -0.0844477620 1 -1
0.0448787340 -0.0823049490 1 -1
0.0417185050 -0.0793175020 1 -1
0.0392186960 -0.0757657550 1 -1
0.0376512840 -0.0719899620 1 -1
0.0372044770 -0.0683584310 1 -1
0.0379640540 -0.0652308470 1 -1
0.0399008720 -0.0629219070 1 -1
0.0428689830 -0.0616694290 1 -1
0.0466168900 -0.0616103760 1 -1
0.0508109510 -0.0627676540 1 -1
0.0550671670 -0.0650489310 1 -1
0.0589868640 -0.0682566230 1 -1
0.0621928180 -0.0721069740 1 -1
0.0643639610 -0.0762560410 1 -1
0.0652675960 -0.0803308210 1 -1
0.0647867310 -0.0839637050 1 -1
0.0629378130 -0.0868278910 1 -1
0.0598744820 -0.0886705610 1 -1
0.0558757800 -0.0893400480 1 -1
0.0513195010 -0.0888030530 1 -1
0.0466429060 -0.0871490820 1 -1
0.0422954120 -0.0845814390 1 -1
0.0386904370 -0.0813958300 1 -1
0.0361635860 -0.0779485280 1 -1
0.0349414310 -0.0746174200 1 -1
0.0351226120 -0.0717610440 1 -1
0.0366718850 -0.0696813520 1 -1
0.0394264410 -0.0685946390 1 -1
0.0431126090 -0.0686123620 1 -1
0.0473712890 -0.0697318940 1 -1
0.0517909170 -0.0718378080 1 -1
0.0559463450 -0.0747143020 1 -1
0.0594402750 -0.0780675800 1 -1
0.0619422520 -0.0815555980 1 -1
0.0632204650 -0.0848227840 1 -1
0.0631633390 -0.0875368250 1 -1
0.0617895000 -0.0894230820 1 -1
0.0592453150 -0.0902918660 1 -1
0.0557899040 -0.0900551410 1 -1
0.0517692980 -0.0887319610 1 -1
0.0475833070 -0.0864446030 1 -1
0.0436490520 -0.0834077980 1 -1
0.0403630860 -0.0799115260 1 -1
0.0380620030 -0.0762961520 1 -1
0.0369842370 -0.0729196870 1 -1
0.0372410330 -0.0701202840 1 -1
0.0388038240 -0.0681800120 1 -1
0.0415093810 -0.0672957220 1 -1
0.0450801070 -0.0675600920 1 -1
0.0491553340 -0.0689533340 1 -1
0.0533290120 -0.0713452900 1 -1
0.0571901110 -0.0745075050 1 -1
0.0603625170 -0.0781343610 1 -1
0.0625406580 -0.0818716850 1 -1
0.0635175520 -0.0853505360 1 -1
0.0632033900 -0.0882233660 1 -1
0.0616336190 -0.0901998170 1 -1
0.0589655510 -0.0910786330 1 -1
0.0554623360 -0.0907704800 1 -1
0.0514641880 -0.0893068280 1 -1
0.0473503410 -0.0868336650 1 -1
0.0434992870 -0.0835928360 1 -1
0.0402542680 -0.0798955260 1 -1
0.0378962940 -0.0760918490 1 -1
0.0366238110 -0.0725389640 1 -1
0.0365385440 -0.0695691920 1 -1
0.0376371160 -0.0674595240 1 -1
0.0398077920 -0.0664045590 1 -1
0.0428343130 -0.0664963390 1 -1
0.0464118880 -0.0677147870 1 -1
0.0501774460 -0.0699303940 1 -1
0.0537487890 -0.0729179300 1 -1
0.0567636580 -0.0763785450 1 -1
0.0589129740 -0.0799680260 1 -1
0.0599680220 -0.0833296590 1 -1
0.0598033820 -0.0861290270 1 -1
0.0584145270 -0.0880864900 1 -1
0.0559251010 -0.0890036170 1 -1
0.0525783460 -0.0887813910 1 -1
0.0487113060 -0.0874288610 1 -1
0.0447165590 -0.0850617700 1 -1
0.0409983610 -0.0818918110 1 -1
0.0379286300 -0.0782077010 1 -1
0.0358081900 -0.0743495430 1 -1
0.0348385310 -0.0706782760 1 -1
0.0351056340 -0.0675420310 1 -1
0.0365749780 -0.0652412580 1 -1
0.0390977250 -0.0639955440 1 -1
0.0424280930 -0.0639171400 1 -1
0.0462497430 -0.0649973160 1 -1
0.0502066400 -0.0671090210 1 -1
0.0539330920 -0.0700238930 1 -1
0.0570808970 -0.0734383400 1 -1
0.0593463480 -0.0770045560 1 -1
0.0604990770 -0.0803646990 1 -1
0.0604094500 -0.0831862400 1 -1
0.0590683730 -0.0851946220 1 -1
0.0565943850 -0.0861992450 1 -1
0.0532250730 -0.0861105350 1 -1
0.0492920170 -0.0849469980 1 -1
0.0451824660 -0.0828317440 1 -1
0.0412957060 -0.0799792410 1 -1
0.0380023580 -0.0766741790 1 -1
0.0356096790 -0.0732443630 1 -1
0.0343327530 -0.0700293870 1 -1
0.0342733310 -0.0673474000 1 -1
0.0354102020 -0.0654632000 1 -1
0.0376034450 -0.0645609940 1 -1
0.0406114810 -0.0647246670 1 -1
0.0441177580 -0.0659285120 1 -1
0.0477635900 -0.0680410650 1 -1
0.0511828870 -0.0708416060 1 -1
0.0540339450 -0.0740450280 1 -1
0.0560259080 -0.0773304910 1 -1
0.0569415130 -0.0803714530 1 -1
0.0566579340 -0.0828655200 1 -1
0.0551636530 -0.0845616690 1 -1
0.0525667910 -0.0852825650 1 -1
0.0490914910 -0.0849409450 1 -1
0.0450608450 -0.0835492970 1 -1
0.0408661440 -0.0812211840 1 -1
0.0369247920 -0.0781628430 1 -1
0.0336330440 -0.0746551710 1 -1
0.0313217670 -0.0710275930 1 -1
0.0302210120 -0.0676265540 1 -1
0.0304356230 -0.0647822500 1 -1
0.0319340810 -0.0627769930 1 -1
0.0345534830 -0.0618176140 1 -1
0.0380200480 -0.0620136520 1 -1
0.0419799120 -0.0633633990 1 -1
0.0460352130 -0.0657507090 1 -1
0.0497828910 -0.0689546760 1 -1
0.0528532230 -0.0726715420 1 -1
0.0549441010 -0.0765455620 1 -1
0.0558486060 -0.0802046890 1 -1
0.0554745640 -0.0832977910 1 -1
0.0538538680 -0.0855307190 1 -1
0.0511393160 -0.0866974750 1 -1
0.0475886800 -0.0867013440 1 -1
0.0435375950 -0.0855621540 1 -1
0.0393644620 -0.0834100960 1 -1
0.0354520880 -0.0804698000 1 -1
0.0321510680 -0.0770379140 1 -1
0.0297483160 -0.0734553220 0 -1
0.0284422010 -0.0700750040 0 -1
0.0283250100 -0.0672281870 0 -1
0.0293745630 -0.0651924790 0 -1
0.0314572170 -0.0641653290 1 -1
0.0343417140 -0.0642454050 1 -1
0.0377207980 -0.0654235570 1 -1
0.0412382540 -0.0675840530 1 -1
0.0445208030 -0.0705156650 1 -1
0.0472147800 -0.0739310020 1 -1
0.0490254700 -0.0774924720 1 -1
0.0497522100 -0.0808439520 1 -1
0.0493101870 -0.0836462270 1 -1
0.0477356560 -0.0856122840 1 -1
0.0451785210 -0.0865377650 1 -1
0.0418863700 -0.0863220990 1 -1
0.0381802340 -0.0849775290 1 -1
0.0344225170 -0.0826267950 1 -1
0.0309808080 -0.0794916580 1 -1
0.0281922110 -0.0758724150 0 -1
0.0263317550 -0.0721177450 0 -1
0.0255877470 -0.0685877320 0 -1
0.0260456900 -0.0656164400 0 -1
0.0276805090 -0.0634797890 0 -1
0.0303566420 -0.0623715080 1 -1
0.0338370890 -0.0623876540 1 -1
0.0378025110 -0.0635191760 1 -1
0.0418791960 -0.0656523510 1 -1
0.0456730410 -0.0685781470 1 -1
0.0488067940 -0.0720112510 1 -1
0.0509581890 -0.0756172400 1 -1
0.0518953990 -0.0790446600 1 -1
0.0515045350 -0.0819587200 1 -1
0.0498046570 -0.0840735070 1 -1
0.0469487570 -0.0851793970 1 -1
0.0432105660 -0.0851629400 1 -1
0.0389568370 -0.0840177420 1 -1
0.0346072150 -0.0818456760 1 -1
0.0305884120 -0.0788479550 1 -1
0.0272905740 -0.0753063410 0 -1
0.0250301790 -0.0715565010 0 -1
0.0240212630 -0.0679562790 0 -1
0.0243574090 -0.0648510670 0 -1
0.0260056130 -0.0625388060 0 -1
0.0288099260 -0.0612388380 0 -1
0.0325032360 -0.0610691710 1 -1
0.0367290370 -0.0620350350 1 -1
0.0410753360 -0.0640291230 1 -1
0.0451178050 -0.0668422640 1 -1
0.0484642470 -0.0701830510 1 -1
0.0507934840 -0.0737052900 1 -1
0.0518862900 -0.0770418520 1 -1
0.0516476700 -0.0798418910 1 -1
0.0501185570 -0.0818067020 1 -1
0.0474733970 -0.0827195040 1 -1
0.0440005260 -0.0824661920 1 -1
0.0400670100 -0.0810459540 1 -1
0.0360752540 -0.0785720010 1 -1
0.0324201840 -0.0752629040 1 -1
0.0294526560 -0.0714240260 0 -1
0.0274504930 -0.0674187150 0 -1
0.0265964510 -0.0636316020 0 -1
0.0269629040 -0.0604289470 0 -1
0.0285047270 -0.0581213320 0 -1
0.0310621760 -0.0569326290 1 -1
0.0343746240 -0.0569780410 1 -1
0.0381055390 -0.0582531520 1 -1
0.0418768400 -0.0606349450 1 -1
0.0453070460 -0.0638944170 1 -1
0.0480478700 -0.0677193400 1 -1
0.0498175600 -0.0717449760 1 -1
0.0504297320 -0.0755901400 1 -1
0.0498140430 -0.0788952730 1 -1
0.0480242900 -0.0813581210 1 -1
0.0452321040 -0.0827626130 1 -1
0.0417082150 -0.0829981180 1 -1
0.0377948720 -0.0820682860 1 -1
0.0338724240 -0.0800898010 1 -1
0.0303231820 -0.0772816590 1 -1
0.0274956910 -0.0739451320 0 -1
0.0256717640 -0.0704345070 0 -1
0.0250390100 -0.0671204750 0 -1
0.0256724600 -0.0643508360 0 -1
0.0275276200 -0.0624141100 0 -1
0.0304444550 -0.0615108880 1 -1
0.0341600280 -0.0617359550 1 -1
0.0383288040 -0.0630713270 1 -1
0.0425522390 -0.0653888610 1 -1
0.0464177840 -0.0684621640 1 -1
0.0495423440 -0.0719880150 1 -1
0.0516134790 -0.0756162540 1 -1
0.0524240990 -0.0789855560 1 -1
0.0518967820 -0.0817605980 1 -1
0.0500921230 -0.0836648890 1 -1
0.0471977820 -0.0845055530 1 -1
0.0435016300 -0.0841894750 1 -1
0.0393568990 -0.0827311090 1 -1
0.0351467800 -0.0802516990 1 -1
0.0312526480 -0.0769696940 1 -1
0.0280261620 -0.0731824800 0 -1
0.0257630910 -0.0692398240 0 -1
0.0246780350 -0.0655099600 0 -1
0.0248814990 -0.0623406550 0 -1
0.0263618530 -0.0600198690 0 -1
0.0289765510 -0.0587424910 0 -1
0.0324589050 -0.0585894250 1 -1
0.0364441390 -0.0595226900 1 -1
0.0405108010 -0.0613957480 1 -1
0.0442276510 -0.0639745240 1 -1
0.0471981000 -0.0669640070 1 -1
0.0490995330 -0.0700374020 1 -1
0.0497162770 -0.0728660560 1 -1
0.0489631220 -0.0751482610 1 -1
0.0468954190 -0.0766353090 1 -1
0.0437032210 -0.0771540830 1 -1
0.0396897700 -0.0766251310 1 -1
0.0352368450 -0.0750738980 1 -1
0.0307621080 -0.0726323730 1 -1
0.0266762950 -0.0695287860 0 -1
0.0233466700 -0.0660647280 0 -1
0.0210677190 -0.0625823880 0 -1
0.0200371710 -0.0594276320 0 -1
0.0203378050 -0.0569152170 0 -1
0.0219280880 -0.0552999430 0 -1
0.0246442680 -0.0547544330 0 -1
0.0282146510 -0.0553540180 0 -1
0.0322845680 -0.0570706200 1 -1
0.0364492080 -0.0597765500 1 -1
0.0402916940 -0.0632562300 1 -1
0.0434242360 -0.0672234190 1 -1
0.0455286140 -0.0713436030 1 -1
0.0463898740 -0.0752616280 1 -1
0.0459177130 -0.0786330600 1 -1
0.0441542480 -0.0811567860 1 -1
0.0412693280 -0.0826055600 1 -1
0.0375432480 -0.0828502350 1 -1
0.0333367390 -0.0818739140 1 -1
0.0290523270 -0.0797744800 0 -1
0.0250940120 -0.0767559740 0 -1
0.0218297130 -0.0731100120 0 -1
0.0195579470 -0.0691883690 0 -1
0.0184804730 -0.0653682860 0 -1
0.0186836310 -0.0620133580 0 -1
0.0201306270 -0.0594344970 0 -1
0.0226649370 -0.0578568050 0 -1
0.0260240650 -0.0573974720 0 -1
0.0298642160 -0.0580572320 0 -1
0.0337960380 -0.0597250900 1 -1
0.0374269930 -0.0621936300 1 -1
0.0404020310 -0.0651811670 1 -1
0.0424358070 -0.0683585370 1 -1
0.0433347160 -0.0713798940 1 -1
0.0430112360 -0.0739162300 1 -1
0.0414931290 -0.0756885070 1 -1
0.0389258490 -0.0764962700 1 -1
0.0355626350 -0.0762376780 1 -1
0.0317391630 -0.0749184220 1 -1
0.0278369760 -0.0726492100 0 -1
0.0242439360 -0.0696330940 0 -1
0.0213173270 -0.0661444590 0 -1
0.0193513360 -0.0625017790 0 -1
0.0185500440 -0.0590370380 0 -1
0.0190079550 -0.0560649560 0 -1
0.0206994270 -0.0538545320 0 -1
0.0234775950 -0.0526047980 0 -1
0.0270847580 -0.0524263260 0 -1
0.0311766580 -0.0533299050 1 -1
0.0353588100 -0.0552238430 1 -1
0.0392277150 -0.0579208320 1 -1
0.0424097590 -0.0611538890 1 -1
0.0445951750 -0.0645997080 1 -1
0.0455670580 -0.0679078210 1 -1
0.0452240160 -0.0707342100 1 -1
0.0435935800 -0.0727770260 1 -1
0.0408332470 -0.0738102070 1 -1
0.0372168250 -0.0737099800 1 -1
0.0331064770 -0.0724703090 1 -1
0.0289141100 -0.0702051880 0 -1
0.0250571180 -0.0671370320 0 -1
0.0219140200 -0.0635722390 0 -1
0.0197853360 -0.0598675960 0 -1
0.0188639250 -0.0563927610 0 -1
0.0192180840 -0.0534933620 0 -1
0.0207897010 -0.0514579950 0 -1
0.0234066930 -0.0504913560 0 -1
0.0268052770 -0.0506946330 0 -1
0.0306565090 -0.0520540720 1 -1
0.0345937880 -0.0544399490 1 -1
0.0382416550 -0.0576180610 1 -1
0.0412477160 -0.0612735420 1 -1
0.0433161970 -0.0650444380 1 -1
0.0442377650 -0.0685606960 1 -1
0.0439113590 -0.0714829390 1 -1
0.0423568090 -0.0735355500 1 -1
0.0397169110 -0.0745306850 1 -1
0.0362468840 -0.0743825400 1 -1
0.0322908720 -0.0731124450 1 -1
0.0282473720 -0.0708453920 0 -1
0.0245273910 -0.0677981290 0 -1
0.0215105340 -0.0642587550 0 -1
0.0195042320 -0.0605591400 0 -1
0.0187109470 -0.0570436040 0 -1
0.0192078290 -0.0540373290 0 -1
0.0209410230 -0.0518161880 0 -1
0.0237335020 -0.0505792490 0 -1
0.0273039600 -0.0504271280 0 -1
0.0312950470 -0.0513506700 1 -1
0.0353088430 -0.0532330140 1 -1
0.0389451880 -0.0558644030 1 -1
0.0418379100 -0.0589651690 1 -1
0.0436867960 -0.0622117280 1 -1
0.0442854470 -0.0652638660 1 -1
0.0435439950 -0.0677942230 1 -1
0.0415029420 -0.0695197730 1 -1
0.0383331940 -0.0702324120 1 -1
0.0343196880 -0.0698241660 1 -1
0.0298312190 -0.0683024580 0 -1
0.0252826230 -0.0657921280 0 -1
0.0210941040 -0.0625235110 0 -1
0.0176498740 -0.0588088180 0 -1
0.0152587480 -0.0550104840 0 -1
0.0141218340 -0.0515051630 0 -1
0.0143129150 -0.0486462740 0 -1
0.0157741520 -0.0467274700 0 -1
0.0183255720 -0.0459504400 0 -1
0.0216848710 -0.0464018410 0 -1
0.0254953540 -0.0480436020 0 -1
0.0293605570 -0.0507181690 0 -1
0.0328819790 -0.0541669450 1 -1
0.0356953060 -0.0580582970 1 -1
0.0375026480 -0.0620218010 1 -1
0.0381002410 -0.0656860640 1 -1
0.0373999830 -0.0687161610 1 -1
0.0354413940 -0.0708453650 1 -1
0.0323901130 -0.0718976040 1 -1
0.0285206320 -0.0718004100 0 -1
0.0241851480 -0.0705889460 0 -1
0.0197751990 -0.0684009000 0 -1
0.0156834580 -0.0654626650 0 -1
0.0122698360 -0.0620685860 0 -1
0.0098328550 -0.0585549850 0 -1
0.0085858880 -0.0552700820 0 -1
0.0086382130 -0.0525411790 0 -1
0.0099819040 -0.0506416170 0 -1
0.0124867460 -0.0497614820 0 -1
0.0159068640 -0.0499869500 0 -1
0.0199019280 -0.0512919050 0 -1
0.0240713390 -0.0535423280 0 -1
0.0279956640 -0.0565113620 0 -1
0.0312797870 -0.0599023290 1 -1
0.0335941710 -0.0633776070 1 -1
0.0347106310 -0.0665916680 1 -1
0.0345277680 -0.0692255890 1 -1
0.0330819080 -0.0710186330 1 -1
0.0305421780 -0.0717926540 1 -1
0.0271907690 -0.0714675290 0 -1
0.0233908270 -0.0700679260 0 -1
0.0195460540 -0.0677219930 0 -1
0.0160576170 -0.0646517290 0 -1
0.0132836150 -0.0611537490 0 -1
0.0115043750 -0.0575700750 0 -1
0.0108965810 -0.0542520250 0 -1
0.0115197840 -0.0515233470 0 -1
0.0133159530 -0.0496485530 0 -1
0.0161188770 -0.0488092030 0 -1
0.0196703280 -0.0490878920 0 -1
0.0236423440 -0.0504597360 0 -1
0.0276653860 -0.0527931540 0 -1
0.0313610250 -0.0558617080 1 -1
0.0343775570 -0.0593660640 1 -1
0.0364257850 -0.0629632770 1 -1
0.0373093530 -0.0663004820 1 -1
0.0369439490 -0.0690497010 1 -1
0.0353633520 -0.0709396180 1 -1
0.0327140780 -0.0717806680 1 -1
0.0292414400 -0.0714815550 0 -1
0.0252685610 -0.0700568940 0 -1
0.0211688580 -0.0676260850 0 -1
0.0173332360 -0.0644036300 0 -1
0.0141336670 -0.0606811800 0 -1
0.0118858950 -0.0568014410 0 -1
0.0108163910 -0.0531248280 0 -1
0.0110381790 -0.0499922640 0 -1
0.0125370700 -0.0476897220 0 -1
0.0151695370 -0.0464194570 0 -1
0.0186751990 -0.0462803440 0 -1
0.0227050290 -0.0472583490 0 -1
0.0268606180 -0.0492282460 0 -1
0.0307363000 -0.0519671150 1 -1
0.0339577370 -0.0551784480 1 -1
0.0362150830 -0.0585239210 1 -1
0.0372910480 -0.0616586180 1 -1
0.0370828020 -0.0642652830 1 -1
0.0356148300 -0.0660845360 1 -1
0.0330397040 -0.0669392240 1 -1
0.0296247460 -0.0667508840 0 -1
0.0257248060 -0.0655463380 0 -1
0.0217438490 -0.0634534030 0 -1
0.0180907280 -0.0606858790 0 -1
0.0151366620 -0.0575197890 0 -1
0.0131802260 -0.0542649550 0 -1
0.0124205610 -0.0512361860 0 -1
0.0129379320 -0.0487260040 0 -1
0.0146841320 -0.0469789970 0 -1
0.0174866890 -0.0461685900 0 -1
0.0210677480 -0.0463788610 0 -1
0.0250744700 -0.0475953630 0 -1
0.0291157010 -0.0497074950 0 -1
0.0327997930 -0.0525208330 1 -1
0.0357700320 -0.0557751430 1 -1
0.0377359410 -0.0591655220 1 -1
0.0384995470 -0.0623667760 1 -1
0.0379745250 -0.0650612520 1 -1
0.0361952130 -0.0669687960 1 -1
0.0333146800 -0.0678759520 1 -1
0.0295926700 -0.0676605450 0 -1
0.0253729700 -0.0663080080 0 -1
0.0210502560 -0.0639171150 0 -1
0.0170304710 -0.0606938390 0 -1
0.0136905200 -0.0569327500 0 -1
0.0113411280 -0.0529870980 0 -1
