0.0056733770 -0.0417974890 0 -1
0.0076260710 -0.0449369520 0 -1
0.0091350090 -0.0481100170 0 -1
0.0100416820 -0.0510352470 0 -1
0.0102459880 -0.0534479080 0 -1
0.0097162150 -0.0551257980 0 -1
0.0084929780 -0.0559124580 0 -1
0.0066866910 -0.0557336860 0 -1
0.0044683960 -0.0546050810 0 -1
0.0020543770 -0.0526304920 0 -1
-0.0003150930 -0.0499927500 0 -1
-0.0024017660 -0.0469382690 0 -1
-0.0039965810 -0.0437563320 0 -1
-0.0049433850 -0.0407533090 0 -1
-0.0051556410 -0.0382229610 0 -1
-0.0046239160 -0.0364156080 0 -1
-0.0034137560 -0.0355104640 0 -1
-0.0016553460 -0.0355955860 0 -1
0.0004728460 -0.0366585940 0 -1
0.0027632590 -0.0385892900 0 -1
0.0049977230 -0.0411934490 0 -1
0.0069644990 -0.0442153270 0 -1
0.0084760820 -0.0473651240 0 -1
0.0093882410 -0.0503474000 0 -1
0.0096163770 -0.0528876330 0 -1
0.0091446950 -0.0547558700 0 -1
0.0080270140 -0.0557873450 0 -1
0.0063802600 -0.0558990820 0 -1
0.0043716920 -0.0550998300 0 -1
0.0022017010 -0.0534906260 0 -1
0.0000850984 -0.0512550490 0 -1
-0.0017669460 -0.0486401770 0 -1
-0.0031643450 -0.0459302160 0 -1
-0.0039557830 -0.0434157130 0 -1
-0.0040456590 -0.0413626020 0 -1
-0.0034065220 -0.0399855340 0 -1
-0.0020830740 -0.0394283720 0 -1
-0.0001870120 -0.0397528220 0 -1
0.0021145840 -0.0409350250 0 -1
0.0046146530 -0.0428695800 0 -1
0.0070847560 -0.0453800330 0 -1
0.0092965340 -0.0482345730 0 -1
0.0110443520 -0.0511658730 0 -1
0.0121666980 -0.0538947640 0 -1
0.0125638750 -0.0561569310 0 -1
0.0122098100 -0.0577300090 0 -1
0.0111557760 -0.0584575370 0 -1
0.0095242180 -0.0582669010 0 -1
0.0074933590 -0.0571793230 0 -1
0.0052764610 -0.0553103600 0 -1
0.0031001700 -0.0528598160 0 -1
0.0011849120 -0.0500913580 0 -1
-0.0002714990 -0.0473044730 0 -1
-0.0011077810 -0.0448031320 0 -1
-0.0012127050 -0.0428650450 0 -1
-0.0005387800 -0.0417142430 0 -1
0.0008870810 -0.0414993900 0 -1
0.0029612180 -0.0422799100 0 -1
0.0055120650 -0.0440207580 0 -1
0.0083183700 -0.0465956290 0 -1
0.0111318650 -0.0497984820 0 -1
0.0136998990 -0.0533631060 0 -1
0.0157866540 -0.0569888960 0 -1
0.0171938840 -0.0603693550 0 -1
0.0177810950 -0.0632205690 0 -1
0.0174826320 -0.0653085780 0 -1
0.0163176450 -0.0664736740 0 -1
0.0143892250 -0.0666474850 0 -1
0.0118722400 -0.0658592220 0 -1
0.0089939830 -0.0642308620 0 -1
0.0060129830 -0.0619636770 0 -1
0.0031975300 -0.0593186790 0 -1
0.0008022360 -0.0565926130 0 -1
-0.0009569600 -0.0540904870 0 -1
-0.0019259120 -0.0520962220 0 -1
-0.0020300940 -0.0508443970 0 -1
-0.0012843710 -0.0504967220 0 -1
0.0002077790 -0.0511263190 0 -1
0.0022665410 -0.0527115820 0 -1
0.0046576880 -0.0551397520 0 -1
0.0071195160 -0.0582191340 0 -1
0.0093900240 -0.0616983650 0 -1
0.0112320270 -0.0652907690 0 -1
0.0124552180 -0.0687017460 0 -1
0.0129335850 -0.0716566870 0 -1
0.0126166140 -0.0739264330 0 -1
0.0115334050 -0.0753479870 0 -1
0.0097891880 -0.0758389820 0 -1
0.0075541830 -0.0754043100 0 -1
0.0050461960 -0.0741344040 0 -1
0.0025092820 -0.0721965650 0 -1
0.0001902640 -0.0698206680 0 -1
-0.0016851670 -0.0672793040 0 -1
-0.0029342710 -0.0648626240 0 -1
-0.0034350660 -0.0628494160 0 -1
-0.0031392150 -0.0614775240 0 -1
-0.0020783320 -0.0609179320 0 -1
-0.0003612800 -0.0612563070 0 -1
0.0018384530 -0.0624838050 0 -1
0.0043030870 -0.0644978250 0 -1
0.0067939240 -0.0671128770 0 -1
0.0090737420 -0.0700802990 0 -1
0.0109273530 -0.0731141180 0 -1
0.0121809150 -0.0759200600 0 -1
0.0127188820 -0.0782248280 0 -1
0.0124957000 -0.0798031250 0 -1
0.0115403370 -0.0805002550 0 -1
0.0099536460 -0.0802478290 0 -1
0.0078993280 -0.0790702830 0 -1
0.0055887820 -0.0770813250 0 -1
0.0032601430 -0.0744711550 0 -1
0.0011534870 -0.0714864560 0 -1
-0.0005143420 -0.0684059840 0 -1
-0.0015722880 -0.0655145140 0 -1
-0.0019126260 -0.0630770730 0 -1
-0.0015011590 -0.0613151380 0 -1
-0.0003788840 -0.0603863230 0 -1
0.0013438140 -0.0603684650 0 -1
0.0034975840 -0.0612496310 0 -1
0.0058672740 -0.0629269130 0 -1
0.0082092560 -0.0652163620 0 -1
0.0102752800 -0.0678732970 0 -1
0.0118418020 -0.0706194100 0 -1
0.0127387590 -0.0731727990 0 -1
0.0128697470 -0.0752773640 0 -1
0.0122194550 -0.0767274850 0 -1
0.0108507590 -0.0773851260 0 -1
0.0088957260 -0.0771894380 0 -1
0.0065417360 -0.0761601060 0 -1
0.0040125080 -0.0743949570 0 -1
0.0015460700 -0.0720617540 0 -1
-0.0006271770 -0.0693842750 0 -1
-0.0023045990 -0.0666234330 0 -1
-0.0033293350 -0.0640547100 0 -1
-0.0036054770 -0.0619430380 0 -1
-0.0031091390 -0.0605162530 0 -1
-0.0018932170 -0.0599396460 0 -1
-0.0000829471 -0.0602958010 0 -1
0.0021384650 -0.0615736520 0 -1
0.0045502820 -0.0636682570 0 -1
0.0069152500 -0.0663904400 0 -1
0.0089989910 -0.0694847420 0 -1
0.0105892960 -0.0726540710 0 -1
0.0115160550 -0.0755890280 0 -1
0.0116689080 -0.0779992140 0 -1
0.0110092050 -0.0796433220 0 -1
0.0095752020 -0.0803543960 0 -1
0.0074802340 -0.0800572520 0 -1
0.0049031110 -0.0787766490 0 -1
0.0020712340 -0.0766356970 0 -1
-0.0007612010 -0.0738440800 0 -1
-0.0033376630 -0.0706767050 0 -1
-0.0054246660 -0.0674450110 0 -1
-0.0068355210 -0.0644640970 0 -1
-0.0074494320 -0.0620193030 0 -1
-0.0072235190 -0.0603362980 0 -1
-0.0061961950 -0.0595587990 0 -1
-0.0044816780 -0.0597370390 0 -1
-0.0022574470 -0.0608276500 0 -1
0.0002529100 -0.0627029830 0 -1
0.0027998000 -0.0651673190 0 -1
0.0051298850 -0.0679780780 0 -1
0.0070100610 -0.0708695180 0 -1
0.0082514310 -0.0735757890 0 -1
0.0087298010 -0.0758516780 0 -1
0.0083994500 -0.0774910940 0 -1
0.0072983010 -0.0783438140 0 -1
0.0055435720 -0.0783307100 0 -1
0.0033183590 -0.0774560150 0 -1
0.0008514740 -0.0758126550 0 -1
-0.0016063830 -0.0735768330 0 -1
-0.0038080020 -0.0709914260 0 -1
-0.0055353240 -0.0683405400 0 -1
-0.0066232890 -0.0659186510 0 -1
-0.0069781530 -0.0639983790 0 -1
-0.0065864680 -0.0628012670 0 -1
-0.0055128740 -0.0624746870 0 -1
-0.0038881900 -0.0630765900 0 -1
-0.0018921240 -0.0645693700 0 -1
0.0002651410 -0.0668238010 0 -1
0.0023610580 -0.0696326120 0 -1
0.0041796370 -0.0727319160 0 -1
0.0055317490 -0.0758282090 0 -1
0.0062747800 -0.0786279260 0 -1
0.0063282210 -0.0808658720 0 -1
0.0056823050 -0.0823299310 0 -1
0.0043986610 -0.0828807470 0 -1
0.0026037900 -0.0824649590 0 -1
0.0004761880 -0.0811206470 0 -1
-0.0017722070 -0.0789747500 0 -1
-0.0039178470 -0.0762327920 0 -1
-0.0057477310 -0.0731611550 0 -1
-0.0070795880 -0.0700627200 0 -1
-0.0077780170 -0.0672476820 0 -1
-0.0077655720 -0.0650023530 0 -1
-0.0070290630 -0.0635594520 0 -1
-0.0056211820 -0.0630732430 0 -1
-0.0036572680 -0.0636026300 0 -1
-0.0013073270 -0.0651051630 0 -1
0.0012166580 -0.0674429770 0 -1
0.0036782560 -0.0703985970 0 -1
0.0058390280 -0.0736976240 0 -1
0.0074847350 -0.0770360250 0 -1
0.0084510970 -0.0801093300 0 -1
0.0086431340 -0.0826408250 0 -1
0.0080449100 -0.0844069360 0 -1
0.0067203350 -0.0852586040 0 -1
0.0048059830 -0.0851366910 0 -1
0.0024959530 -0.0840785760 0 -1
0.0000205385 -0.0822137800 0 -1
-0.0023774470 -0.0797492450 0 -1
-0.0044653210 -0.0769471330 0 -1
-0.0060405410 -0.0740978020 0 -1
-0.0069479590 -0.0714903680 0 -1
-0.0070939360 -0.0693843780 0 -1
-0.0064554890 -0.0679863030 0 -1
-0.0050825770 -0.0674326500 0 -1
-0.0030931880 -0.0677792800 0 -1
-0.0006618570 -0.0689962840 0 -1
0.0019975340 -0.0709695080 0 -1
0.0046523590 -0.0735102540 0 -1
0.0070715860 -0.0763731110 0 -1
0.0090444690 -0.0792804150 0 -1
0.0103987650 -0.0819506890 0 -1
0.0110175070 -0.0841274870 0 -1
0.0108510310 -0.0856050950 0 -1
0.0099221310 -0.0862482080 0 -1
0.0083244340 -0.0860034260 0 -1
0.0062148170 -0.0849019050 0 -1
0.0038003130 -0.0830546350 0 -1
0.0013198660 -0.0806424940 0 -1
-0.0009783590 -0.0779016830 0 -1
-0.0028625100 -0.0751036680 0 -1
-0.0041418970 -0.0725293560 0 -1
-0.0046871560 -0.0704392770 0 -1
-0.0044436030 -0.0690439940 0 -1
-0.0034365740 -0.0684803700 0 -1
-0.0017676490 -0.0687979020 0 -1
0.0003978220 -0.0699561350 0 -1
0.0028494340 -0.0718318540 0 -1
0.0053534750 -0.0742336850 0 -1
0.0076755850 -0.0769212350 0 -1
0.0096032220 -0.0796266790 0 -1
0.0109654960 -0.0820781260 0 -1
0.0116469620 -0.0840241060 0 -1
0.0115948460 -0.0852572450 0 -1
0.0108219490 -0.0856345650 0 -1
0.0094062600 -0.0850920020 0 -1
0.0074857270 -0.0836511900 0 -1
0.0052461610 -0.0814179780 0 -1
0.0029028890 -0.0785738290 0 -1
0.0006799590 -0.0753613560 0 -1
-0.0012098680 -0.0720642750 0 -1
-0.0025841180 -0.0689822350 0 -1
-0.0033085630 -0.0664022660 0 -1
-0.0033122220 -0.0645695840 0 -1
-0.0025968300 -0.0636609740 0 -1
-0.0012387830 -0.0637643270 0 -1
0.0006173880 -0.0648675790 0 -1
0.0027735280 -0.0668587470 0 -1
0.0049981860 -0.0695368830 0 -1
0.0070503250 -0.0726323010 0 -1
0.0087049080 -0.0758337540 0 -1
0.0097785140 -0.0788200490 0 -1
0.0101517080 -0.0812928730 0 -1
0.0097842510 -0.0830067790 0 -1
0.0087200550 -0.0837928630 0 -1
0.0070812030 -0.0835744190 0 -1
0.0050529050 -0.0823743590 0 -1
0.0028617470 -0.0803140180 0 -1
0.0007497270 -0.0776022670 0 -1
-0.0010522390 -0.0745148500 0 -1
-0.0023474310 -0.0713660540 0 -1
-0.0029905970 -0.0684763240 0 -1
-0.0028989910 -0.0661399580 0 -1
-0.0020582170 -0.0645961860 0 -1
-0.0005235530 -0.0640055480 0 -1
0.0015838510 -0.0644334820 0 -1
0.0040866470 -0.0658437060 0 -1
0.0067668410 -0.0681029190 0 -1
0.0093863480 -0.0709959220 0 -1
0.0117104110 -0.0742485870 0 -1
0.0135309630 -0.0775553980 0 -1
0.0146872990 -0.0806085550 0 -1
0.0150820900 -0.0831263140 0 -1
0.0146911250 -0.0848784870 0 -1
0.0135658790 -0.0857070170 0 -1
0.0118288960 -0.0855398730 0 -1
0.0096615520 -0.0843969110 0 -1
0.0072842480 -0.0823873900 0 -1
0.0049323240 -0.0796996190 0 -1
0.0028328350 -0.0765831630 0 -1
0.0011848190 -0.0733246210 0 -1
0.0001424270 -0.0702194910 0 -1
-0.0001995310 -0.0675434040 0 -1
0.0001836900 -0.0655254650 0 -1
0.0012416510 -0.0643263500 0 -1
0.0028516180 -0.0640239900 0 -1
0.0048319650 -0.0646088970 0 -1
0.0069656320 -0.0659887680 0 -1
0.0090285530 -0.0679997460 0 -1
0.0108155000 -0.0704217540 0 -1
0.0121574580 -0.0729969440 0 -1
0.0129300200 -0.0754512430 0 -1
0.0130572270 -0.0775186660 0 -1
0.0125154810 -0.0789671590 0 -1
0.0113384110 -0.0796235150 0 -1
0.0096194330 -0.0793938840 0 -1
0.0075075570 -0.0782760100 0 -1
0.0051948790 -0.0763605980 0 -1
0.0028977690 -0.0738219830 0 -1
0.0008352100 -0.0709001800 0 -1
-0.0007922630 -0.0678764850 0 -1
-0.0018209120 -0.0650445540 0 -1
-0.0021396250 -0.0626798920 0 -1
-0.0017038760 -0.0610119620 0 -1
-0.0005459560 -0.0602026580 0 -1
0.0012233160 -0.0603327570 0 -1
0.0034255560 -0.0613961500 0 -1
0.0058371960 -0.0633009110 0 -1
0.0082165310 -0.0658762850 0 -1
0.0103293350 -0.0688858700 0 -1
0.0119717780 -0.0720479650 0 -1
0.0129907050 -0.0750627680 0 -1
0.0132983830 -0.0776434060 0 -1
0.0128784280 -0.0795462290 0 -1
0.0117839460 -0.0805960190 0 -1
0.0101313070 -0.0807031610 0 -1
0.0080905130 -0.0798714040 0 -1
0.0058708510 -0.0781965400 0 -1
0.0037017070 -0.0758569930 0 -1
0.0018108330 -0.0730967390 0 -1
0.0004029060 -0.0702013520 0 -1
-0.0003600960 -0.0674698570 0 -1
-0.0003764060 -0.0651859290 0 -1
0.0003810950 -0.0635908850 0 -1
0.0018571700 -0.0628597860 0 -1
0.0039181500 -0.0630822360 0 -1
0.0063679680 -0.0642506670 0 -1
0.0089702860 -0.0662592180 0 -1
0.0114706960 -0.0689143660 0 -1
0.0136184190 -0.0719559230 0 -1
0.0151890140 -0.0750856510 0 -1
0.0160073510 -0.0779998130 0 -1
0.0159682430 -0.0804210260 0 -1
0.0150513540 -0.0821252020 0 -1
0.0133268320 -0.0829613420 0 -1
0.0109492660 -0.0828637520 0 -1
0.0081399630 -0.0818568790 0 -1
0.0051605410 -0.0800527400 0 -1
0.0022830550 -0.0776410340 0 -1
-0.0002378370 -0.0748723990 0 -1
-0.0021873240 -0.0720351720 0 -1
-0.0034069400 -0.0694266930 0 -1
-0.0038058630 -0.0673224370 0 -1
-0.0033677360 -0.0659473580 0 -1
-0.0021529960 -0.0654523760 0 -1
-0.0002951780 -0.0658979570 0 -1
0.0020108040 -0.0672472660 0 -1
0.0045281770 -0.0693707230 0 -1
0.0070023660 -0.0720611140 0 -1
0.0091852560 -0.0750560690 0 -1
0.0108574900 -0.0780639800 0 -1
0.0118487740 -0.0807904590 0 -1
0.0120549230 -0.0829643040 0 -1
0.0114485680 -0.0843628910 0 -1
0.0100816080 -0.0848356330 0 -1
0.0080791040 -0.0843217030 0 -1
0.0056252820 -0.0828579960 0 -1
0.0029441230 -0.0805760330 0 -1
0.0002779240 -0.0776892120 0 -1
-0.0021342010 -0.0744719190 0 -1
-0.0040775960 -0.0712315240 0 -1
-0.0053825410 -0.0682756850 0 -1
-0.0059418600 -0.0658799880 0 -1
-0.0057225240 -0.0642612430 0 -1
-0.0047686770 -0.0635592540 0 -1
-0.0031955500 -0.0638268250 0 -1
-0.0011753240 -0.0650267180 0 -1
0.0010830640 -0.0670354450 0 -1
0.0033568160 -0.0696549870 0 -1
0.0054304240 -0.0726324520 0 -1
0.0071130700 -0.0756849210 0 -1
0.0082542280 -0.0785252860 0 -1
0.0087585300 -0.0808861300 0 -1
0.0085967140 -0.0825411320 0 -1
0.0078088610 -0.0833248860 0 -1
0.0064990150 -0.0831508580 0 -1
0.0048232160 -0.0820247030 0 -1
0.0029740750 -0.0800484830 0 -1
0.0011636310 -0.0774121250 0 -1
-0.0003951920 -0.0743719740 0 -1
-0.0015079710 -0.0712205970 0 -1
-0.0020182300 -0.0682543310 0 -1
-0.0018255530 -0.0657438320 0 -1
-0.0008995640 -0.0639100290 0 -1
0.0007134940 -0.0629058760 0 -1
0.0028936150 -0.0628040820 0 -1
0.0054594080 -0.0635911630 0 -1
0.0081878930 -0.0651682290 0 -1
0.0108375100 -0.0673590080 0 -1
0.0131702730 -0.0699255170 0 -1
0.0149722360 -0.0725906630 0 -1
0.0160737950 -0.0750651600 0 -1
0.0163686360 -0.0770758600 0 -1
0.0158259950 -0.0783933730 0 -1
0.0144923420 -0.0788566020 0 -1
0.0124850560 -0.0783911030 0 -1
0.0099830080 -0.0770179820 0 -1
0.0072140500 -0.0748514480 0 -1
0.0044359080 -0.0720858840 0 -1
0.0019102730 -0.0689754010 0 -1
-0.0001256280 -0.0658087880 0 -1
-0.0014847240 -0.0628819360 0 -1
-0.0020489930 -0.0604695920 0 -1
-0.0017796900 -0.0587987250 0 -1
-0.0007193520 -0.0580264110 0 -1
0.0010131990 -0.0582248630 0 -1
0.0032346410 -0.0593747650 0 -1
0.0057160740 -0.0613669410 0 -1
0.0082074130 -0.0640123140 0 -1
0.0104630680 -0.0670600710 0 -1
0.0122650930 -0.0702230070 0 -1
0.0134426220 -0.0732069250 0 -1
0.0138878710 -0.0757396810 0 -1
0.0135679000 -0.0775968300 0 -1
0.0125288650 -0.0786223920 0 -1
0.0108896300 -0.0787431020 0 -1
0.0088257140 -0.0779745890 0 -1
0.0065485720 -0.0764191860 0 -1
0.0042847750 -0.0742557650 0 -1
0.0022561900 -0.0717224620 0 -1
0.0006602290 -0.0690938050 0 -1
-0.0003493530 -0.0666540690 0 -1
-0.0006783810 -0.0646690110 0 -1
-0.0003022560 -0.0633585080 0 -1
0.0007310870 -0.0628724660 0 -1
0.0023058740 -0.0632731080 0 -1
0.0042513170 -0.0645272580 0 -1
0.0063610810 -0.0665103960 0 -1
0.0084153160 -0.0690213850 0 -1
0.0102017320 -0.0718052640 0 -1
0.0115358620 -0.0745806370 0 -1
0.0122812840 -0.0770678910 0 -1
0.0123667000 -0.0790157830 0 -1
0.0117947060 -0.0802252510 0 -1
0.0106394020 -0.0805691990 0 -1
0.0090341700 -0.0800061000 0 -1
0.0071541380 -0.0785849790 0 -1
0.0051978620 -0.0764405020 0 -1
0.0033701130 -0.0737795180 0 -1
0.0018650060 -0.0708617140 0 -1
0.0008483690 -0.0679761490 0 -1
0.0004408780 -0.0654143950 0 -1
0.0007055530 -0.0634414390 0 -1
0.0016414650 -0.0622670160 0 -1
0.0031827830 -0.0620215250 0 -1
0.0052030110 -0.0627411380 0 -1
0.0075260650 -0.0643650390 0 -1
0.0099442160 -0.0667443580 0 -1
0.0122389900 -0.0696593680 0 -1
0.0141999470 -0.0728405690 0 -1
0.0156396970 -0.0759910880 0 -1
0.0164082340 -0.0788110780 0 -1
0.0164091960 -0.0810251860 0 -1
0.0156151200 -0.0824108600 0 -1
0.0140755180 -0.0828223470 0 -1
0.0119143280 -0.0822059820 0 -1
0.0093180990 -0.0806049250 0 -1
0.0065178630 -0.0781538130 0 -1
0.0037664840 -0.0750652890 0 -1
0.0013128310 -0.0716103840 0 -1
-0.0006241810 -0.0680940940 0 -1
-0.0018773410 -0.0648277190 0 -1
-0.0023456900 -0.0621001940 0 -1
-0.0020019960 -0.0601508110 0 -1
-0.0008941140 -0.0591457500 0 -1
0.0008602420 -0.0591611950 0 -1
0.0030856600 -0.0601760400 0 -1
0.0055665710 -0.0620758410 0 -1
0.0080674050 -0.0646666440 0 -1
0.0103531760 -0.0676949900 0 -1
0.0122100400 -0.0708711110 0 -1
0.0134657700 -0.0738947560 0 -1
0.0140081160 -0.0764831330 0 -1
0.0137977350 -0.0783981070 0 -1
0.0128734240 -0.0794685440 0 -1
0.0113487550 -0.0796045840 0 -1
0.0094000490 -0.0788028340 0 -1
0.0072468590 -0.0771439410 0 -1
0.0051280290 -0.0747846190 0 -1
0.0032770710 -0.0719446600 0 -1
0.0018993950 -0.0688885700 0 -1
0.0011528130 -0.0659018480 0 -1
0.0011328930 -0.0632627540 0 -1
0.0018644960 -0.0612125860 0 -1
0.0032998510 -0.0599296050 0 -1
0.0053223030 -0.0595108510 0 -1
0.0077550670 -0.0599633740 0 -1
0.0103761330 -0.0612048770 0 -1
0.0129401840 -0.0630735350 0 -1
0.0152048140 -0.0653460500 0 -1
0.0169561570 -0.0677614160 0 -1
0.0180304800 -0.0700472390 0 -1
0.0183302240 -0.0719462070 0 -1
0.0178334480 -0.0732408020 0 -1
0.0165955460 -0.0737745550 0 -1
0.0147422760 -0.0734682240 0 -1
0.0124546850 -0.0723289420 0 -1
0.0099491980 -0.0704505570 0 -1
0.0074575030 -0.0680048760 0 -1
0.0052084480 -0.0652253890 0 -1
0.0034102520 -0.0623854940 0 -1
0.0022308830 -0.0597724030 0 -1
0.0017786210 -0.0576578610 0 -1
0.0020882850 -0.0562682630 0 -1
0.0031172770 -0.0557581890 0 -1
0.0047517670 -0.0561917230 0 -1
0.0068207820 -0.0575347190 0 -1
0.0091149480 -0.0596588880 0 -1
0.0114065860 -0.0623564480 0 -1
0.0134694330 -0.0653626720 0 -1
0.0150984870 -0.0683829360 0 -1
0.0161301570 -0.0711213340 0 -1
0.0164606800 -0.0733089850 0 -1
0.0160591270 -0.0747301660 0 -1
0.0149719730 -0.0752434770 0 -1
0.0133188880 -0.0747950250 0 -1
0.0112810540 -0.0734220330 0 -1
0.0090820300 -0.0712476530 0 -1
0.0069615500 -0.0684691400 0 -1
0.0051475430 -0.0653410160 0 -1
0.0038336250 -0.0621537310 0 -1
0.0031640160 -0.0592083410 0 -1
0.0032229140 -0.0567886160 0 -1
0.0040262170 -0.0551328170 0 -1
0.0055167840 -0.0544083160 0 -1
0.0075663380 -0.0546927550 0 -1
0.0099864870 -0.0559645410 0 -1
0.0125479870 -0.0581036450 0 -1
0.0150040770 -0.0609025620 0 -1
0.0171135420 -0.0640867910 0 -1
0.0186619240 -0.0673429170 0 -1
0.0194814060 -0.0703506620 0 -1
0.0194689160 -0.0728148820 0 -1
0.0185994230 -0.0744940100 0 -1
0.0169307760 -0.0752225050 0 -1
0.0145980900 -0.0749259620 0 -1
0.0117986370 -0.0736278450 0 -1
0.0087712550 -0.0714469260 0 -1
0.0057745820 -0.0685850770 0 -1
0.0030648130 -0.0653063720 0 -1
0.0008716920 -0.0619101360 0 -1
-0.0006256990 -0.0587018590 0 -1
-0.0013186210 -0.0559655230 0 -1
-0.0011798310 -0.0539391200 0 -1
-0.0002647880 -0.0527939180 0 -1
0.0012969650 -0.0526186420 0 -1
0.0033184070 -0.0534104080 0 -1
0.0055760820 -0.0550741340 0 -1
0.0078318580 -0.0574313060 0 -1
0.0098533490 -0.0602374950 0 -1
0.0114328500 -0.0632064190 0 -1
0.0124051560 -0.0660380190 0 -1
0.0126628840 -0.0684485740 0 -1
0.0121668870 -0.0702001490 0 -1
0.0109505460 -0.0711253680 0 -1
0.0091175180 -0.0711436600 0 -1
0.0068324050 -0.0702671160 0 -1
0.0043053400 -0.0685961630 0 -1
0.0017727060 -0.0663068150 0 -1
-0.0005248250 -0.0636318160 0 -1
-0.0023655870 -0.0608380630 0 -1
-0.0035686410 -0.0582024320 0 -1
-0.0040117520 -0.0559875350 0 -1
-0.0036448600 -0.0544181090 0 -1
-0.0024969260 -0.0536588140 0 -1
-0.0006739410 -0.0537958030 0 -1
0.0016516570 -0.0548254360 0 -1
0.0042584590 -0.0566526850 0 -1
0.0068979910 -0.0590997280 0 -1
0.0093179360 -0.0619236690 0 -1
0.0112848500 -0.0648413450 0 -1
0.0126062770 -0.0675588120 0 -1
0.0131518060 -0.0698024930 0 -1
0.0128711620 -0.0713479830 0 -1
0.0118051520 -0.0720426480 0 -1
0.0100840280 -0.0718201900 0 -1
0.0079112790 -0.0707070080 0 -1
0.0055370430 -0.0688200730 0 -1
0.0032280410 -0.0663555340 0 -1
0.0012392700 -0.0635682900 0 -1
-0.0002103210 -0.0607449870 0 -1
-0.0009576650 -0.0581743310 0 -1
-0.0009103440 -0.0561182440 0 -1
-0.0000547652 -0.0547864880 0 -1
0.0015433870 -0.0543169040 0 -1
0.0037462570 -0.0547626300 0 -1
0.0063576870 -0.0560870830 0 -1
0.0091424350 -0.0581673800 0 -1
0.0118484860 -0.0608062190 0 -1
0.0142300270 -0.0637511560 0 -1
0.0160690900 -0.0667194830 0 -1
0.0171941460 -0.0694263170 0 -1
0.0174947790 -0.0716124390 0 -1
0.0169322830 -0.0730680370 0 -1
0.0155455120 -0.0736501030 0 -1
0.0134500090 -0.0732937760 0 -1
0.0108278220 -0.0720186720 0 -1
0.0079078270 -0.0699299900 0 -1
0.0049410810 -0.0672128230 0 -1
0.0021771050 -0.0641175740 0 -1
-0.0001558670 -0.0609359840 0 -1
-0.0018668530 -0.0579708430 0 -1
-0.0028164240 -0.0555048330 0 -1
-0.0029304640 -0.0537728340 0 -1
-0.0022107620 -0.0529391830 0 -1
-0.0007382190 -0.0530806540 0 -1
0.0013328950 -0.0541773720 0 -1
0.0037888430 -0.0561137030 0 -1
0.0063776130 -0.0586891860 0 -1
0.0088361810 -0.0616386720 0 -1
0.0109203400 -0.0646604020 0 -1
0.0124315850 -0.0674486390 0 -1
0.0132360820 -0.0697257340 0 -1
0.0132740850 -0.0712695140 0 -1
0.0125615370 -0.0719338620 0 -1
0.0111858270 -0.0716610150 0 -1
0.0092959190 -0.0704847380 0 -1
0.0070871170 -0.0685256460 0 -1
0.0047823590 -0.0659808540 0 -1
0.0026124840 -0.0631083540 0 -1
0.0007966650 -0.0602045170 0 -1
-0.0004774580 -0.0575742890 0 -1
-0.0010742390 -0.0554976920 0 -1
-0.0009283750 -0.0541988220 0 -1
-0.0000557816 -0.0538215570 0 -1
0.0014466390 -0.0544135640 0 -1
0.0034120620 -0.0559203180 0 -1
0.0056231860 -0.0581913830 0 -1
0.0078364910 -0.0609986460 0 -1
0.0098072980 -0.0640627160 0 -1
0.0113133840 -0.0670827780 0 -1
0.0121764230 -0.0697664440 0 -1
0.0122800850 -0.0718570180 0 -1
0.0115835670 -0.0731556960 0 -1
0.0101292250 -0.0735373820 0 -1
0.0080417680 -0.0729602390 0 -1
0.0055166890 -0.0714689930 0 -1
0.0027988210 -0.0691911610 0 -1
0.0001547210 -0.0663259610 0 -1
-0.0021570820 -0.0631267500 0 -1
-0.0039144150 -0.0598784970 0 -1
-0.0049547850 -0.0568721870 0 -1
-0.0051907490 -0.0543782330 0 -1
-0.0046159900 -0.0526207030 0 -1
-0.0033020700 -0.0517546800 0 -1
-0.0013868990 -0.0518500270 0 -1
0.0009423280 -0.0528840910 0 -1
0.0034684570 -0.0547435910 0 -1
0.0059638920 -0.0572348530 0 -1
0.0082089830 -0.0601018030 0 -1
0.0100088330 -0.0630508490 0 -1
0.0112095260 -0.0657806720 0 -1
0.0117142890 -0.0680139820 0 -1
0.0114966600 -0.0695273580 0 -1
0.0106056240 -0.0701747260 0 -1
0.0091604600 -0.0699011010 0 -1
0.0073369050 -0.0687453970 0 -1
0.0053465010 -0.0668332250 0 -1
0.0034117880 -0.0643619270 0 -1
0.0017423710 -0.0615806030 0 -1
0.0005158360 -0.0587671950 0 -1
-0.0001356990 -0.0562034860 0 -1
-0.0001346090 -0.0541485370 0 -1
0.0005359420 -0.0528123680 0 -1
0.0018286500 -0.0523334580 0 -1
0.0036344750 -0.0527636420 0 -1
0.0057927320 -0.0540626670 0 -1
0.0081077760 -0.0561032570 0 -1
0.0103688410 -0.0586855170 0 -1
0.0123694220 -0.0615578890 0 -1
0.0139248010 -0.0644418910 0 -1
0.0148876720 -0.0670584060 0 -1
0.0151617730 -0.0691533140 0 -1
0.0147139450 -0.0705203250 0 -1
0.0135832310 -0.0710195370 0 -1
0.0118819480 -0.0705911730 0 -1
0.0097848190 -0.0692639240 0 -1
0.0075080900 -0.0671562200 0 -1
0.0052843080 -0.0644679870 0 -1
0.0033378240 -0.0614615920 0 -1
0.0018630880 -0.0584336220 0 -1
0.0010057130 -0.0556820160 0 -1
0.0008467340 -0.0534740510 0 -1
0.0013922350 -0.0520196250 0 -1
0.0025715120 -0.0514518250 0 -1
0.0042460000 -0.0518154430 0 -1
0.0062281710 -0.0530645560 0 -1
0.0083059530 -0.0550696420 0 -1
0.0102668350 -0.0576322050 0 -1
0.0119175980 -0.0605037060 0 -1
0.0130989410 -0.0634071510 0 -1
0.0136966120 -0.0660613510 0 -1
0.0136501330 -0.0682073530 0 -1
0.0129583040 -0.0696346530 0 -1
0.0116803730 -0.0702031550 0 -1
0.0099320950 -0.0698573860 0 -1
0.0078758200 -0.0686317330 0 -1
0.0057050540 -0.0666468550 0 -1
0.0036257120 -0.0640975840 0 -1
0.0018365490 -0.0612334230 0 -1
0.0005112350 -0.0583339650 0 -1
-0.0002158590 -0.0556818150 0 -1
-0.0002606790 -0.0535356600 0 -1
0.0004005340 -0.0521060870 0 -1
0.0017236200 -0.0515360610 0 -1
0.0035962510 -0.0518873910 0 -1
0.0058477050 -0.0531346240 0 -1
0.0082668670 -0.0551673520 0 -1
0.0106257760 -0.0578004810 0 -1
0.0127053810 -0.0607908850 0 -1
0.0143176290 -0.0638587810 0 -1
0.0153196330 -0.0667126340 0 -1
0.0156219300 -0.0690766440 0 -1
0.0151956100 -0.0707188160 0 -1
0.0140790050 -0.0714760670 0 -1
0.0123799390 -0.0712725120 0 -1
0.0102688830 -0.0701281900 0 -1
0.0079613180 -0.0681572840 0 -1
0.0056928600 -0.0655565160 0 -1
0.0036939630 -0.0625855740 0 -1
0.0021678960 -0.0595416960 0 -1
0.0012713480 -0.0567304350 0 -1
0.0010976410 -0.0544350240 0 -1
0.0016661940 -0.0528869140 0 -1
0.0029223230 -0.0522403430 0 -1
0.0047469810 -0.0525545250 0 -1
0.0069720740 -0.0537870470 0 -1
0.0093974160 -0.0557997080 0 -1
0.0118074370 -0.0583747590 0 -1
0.0139870610 -0.0612382430 0 -1
0.0157374150 -0.0640878440 0 -1
0.0168923990 -0.0666228450 0 -1
0.0173356780 -0.0685731750 0 -1
0.0170156710 -0.0697248140 0 -1
0.0159548270 -0.0699401230 0 -1
0.0142498000 -0.0691722110 0 -1
0.0120624380 -0.0674717420 0 -1
0.0096045540 -0.0649840590 0 -1
0.0071187690 -0.0619355610 0 -1
0.0048555210 -0.0586108990 0 -1
0.0030467910 -0.0553245440 0 -1
0.0018797150 -0.0523903420 0 -1
0.0014749940 -0.0500913510 0 -1
0.0018741410 -0.0486515870 0 -1
0.0030373700 -0.0482121850 0 -1
0.0048511150 -0.0488158270 0 -1
0.0071417230 -0.0504028220 0 -1
0.0096918660 -0.0528192380 0 -1
0.0122584130 -0.0558344560 0 -1
0.0145923450 -0.0591647340 0 -1
0.0164616010 -0.0625001450 0 -1
0.0176755090 -0.0655330620 0 -1
0.0181064410 -0.0679862870 0 -1
0.0177041550 -0.0696386470 0 -1
0.0165010460 -0.0703455470 0 -1
0.0146084680 -0.0700522990 0 -1
0.0122048910 -0.0687994010 0 -1
0.0095174990 -0.0667195530 0 -1
0.0067994540 -0.0640257290 0 -1
0.0043047240 -0.0609904080 0 -1
0.0022621950 -0.0579184830 0 -1
0.0008521800 -0.0551175210 0 -1
0.0001891110 -0.0528681920 0 -1
0.0003120940 -0.0513966060 0 -1
0.0011828460 -0.0508507860 0 -1
0.0026909920 -0.0512848000 0 -1
0.0046667370 -0.0526535800 0 -1
0.0068993450 -0.0548188200 0 -1
0.0091588710 -0.0575641220 0 -1
0.0112189170 -0.0606172260 0 -1
0.0128781210 -0.0636772650 0 -1
0.0139783690 -0.0664442360 0 -1
0.0144183950 -0.0686476910 0 -1
0.0141618020 -0.0700724740 0 -1
0.0132389290 -0.0705798500 0 -1
0.0117431120 -0.0701214100 0 -1
0.0098223620 -0.0687429730 0 -1
0.0076665600 -0.0665779130 0 -1
0.0054894280 -0.0638321890 0 -1
0.0035060860 -0.0607637550 0 -1
0.0019097950 -0.0576578820 0 -1
0.0008521780 -0.0548004370 0 -1
0.0004293780 -0.0524518750 0 -1
0.0006746160 -0.0508237190 0 -1
0.0015567950 -0.0500586580 0 -1
0.0029843880 -0.0502162720 0 -1
0.0048134710 -0.0512664390 0 -1
0.0068593520 -0.0530913490 0 -1
0.0089122440 -0.0554964700 0 -1
0.0107566770 -0.0582300250 0 -1
0.0121924050 -0.0610084150 0 -1
0.0130542230 -0.0635438900 0 -1
0.0132295730 -0.0655719470 0 -1
0.0126735280 -0.0668771330 0 -1
0.0114188750 -0.0673148620 0 -1
0.0095776600 -0.0668257270 0 -1
0.0073318200 -0.0654401810 0 -1
0.0049130110 -0.0632739230 0 -1
0.0025748180 -0.0605154600 0 -1
0.0005635050 -0.0574075770 0 -1
-0.0009070490 -0.0542249060 0 -1
-0.0016747380 -0.0512495500 0 -1
-0.0016441260 -0.0487460740 0 -1
-0.0007969070 -0.0469371220 0 -1
0.0008041510 -0.0459816950 0 -1
0.0030202800 -0.0459589440 0 -1
0.0056513230 -0.0468601230 0 -1
0.0084572820 -0.0485896540 0 -1
0.0111829950 -0.0509743520 0 -1
0.0135828310 -0.0537792110 0 -1
0.0154427740 -0.0567287580 0 -1
0.0165978770 -0.0595330840 0 -1
0.0169450360 -0.0619163720 0 -1
0.0164521930 -0.0636448600 0 -1
0.0151635790 -0.0645514700 0 -1
0.0131992970 -0.0645539420 0 -1
0.0107475200 -0.0636630280 0 -1
0.0080484540 -0.0619792700 0 -1
0.0053714390 -0.0596801710 0 -1
0.0029880070 -0.0570010780 0 -1
0.0011432480 -0.0542121410 0 -1
0.0000285985 -0.0515927070 0 -1
-0.0002387940 -0.0494045010 0 -1
0.0003736240 -0.0478650060 0 -1
0.0018128000 -0.0471228730 0 -1
0.0039451840 -0.0472392200 0 -1
0.0065671650 -0.0481800160 0 -1
0.0094227120 -0.0498220060 0 -1
0.0122293470 -0.0519700850 0 -1
0.0147100680 -0.0543821210 0 -1
0.0166258990 -0.0567971710 0 -1
0.0178034220 -0.0589627880 0 -1
0.0181528410 -0.0606580030 0 -1
0.0176737430 -0.0617110700 0 -1
0.0164482520 -0.0620124920 0 -1
0.0146247630 -0.0615233650 0 -1
0.0123975820 -0.0602787730 0 -1
0.0099871640 -0.0583860290 0 -1
0.0076219850 -0.0560170360 0 -1
0.0055202560 -0.0533943100 0 -1
0.0038710900 -0.0507714900 0 -1
0.0028172860 -0.0484096820 0 -1
0.0024422160 -0.0465511990 0 -1
0.0027624100 -0.0453935490 0 -1
0.0037262240 -0.0450671950 0 -1
0.0052180540 -0.0456196770 0 -1
0.0070677370 -0.0470081730 0 -1
0.0090653260 -0.0491024450 0 -1
0.0109815070 -0.0516984380 0 -1
0.0125924850 -0.0545401330 0 -1
0.0137051510 -0.0573459200 0 -1
0.0141771500 -0.0598364860 0 -1
0.0139297850 -0.0617623050 0 -1
0.0129556280 -0.0629284220 0 -1
0.0113217710 -0.0632139870 0 -1
0.0091661700 -0.0625846090 0 -1
0.0066843070 -0.0610961700 0 -1
0.0041072250 -0.0588893160 0 -1
0.0016756400 -0.0561754590 0 -1
-0.0003848730 -0.0532163760 0 -1
-0.0018844090 -0.0502994830 0 -1
-0.0026838220 -0.0477105710 0 -1
-0.0027053480 -0.0457062180 0 -1
-0.0019399090 -0.0444885550 0 -1
-0.0004499670 -0.0441849430 0 -1
0.0016340560 -0.0448347770 0 -1
0.0041242640 -0.0463852910 0 -1
0.0067919070 -0.0486972930 0 -1
0.0093885890 -0.0515601690 0 -1
0.0116699450 -0.0547134380 0 -1
0.0134197230 -0.0578710820 0 -1
0.0144718330 -0.0607461280 0 -1
0.0147274620 -0.0630746320 0 -1
0.0141655530 -0.0646382870 0 -1
0.0128456470 -0.0652844750 0 -1
0.0109016020 -0.0649421970 0 -1
0.0085266010 -0.0636314080 0 -1
0.0059527060 -0.0614635820 0 -1
0.0034277580 -0.0586331830 0 -1
0.0011908900 -0.0554008730 0 -1
-0.0005513390 -0.0520694960 0 -1
-0.0016453670 -0.0489544860 0 -1
-0.0020053210 -0.0463516310 0 -1
-0.0016202160 -0.0445062170 0 -1
-0.0005526180 -0.0435878160 0 -1
0.0010704470 -0.0436737960 0 -1
0.0030725300 -0.0447429380 0 -1
0.0052469470 -0.0466792370 0 -1
0.0073778260 -0.0492852380 0 -1
0.0092605590 -0.0523032700 0 -1
0.0107201680 -0.0554417380 0 -1
0.0116261610 -0.0584033340 0 -1
0.0119019650 -0.0609125890 0 -1
0.0115283420 -0.0627407370 0 -1
0.0105423910 -0.0637262610 0 -1
0.0090346930 -0.0637898000 0 -1
0.0071457810 -0.0629419240 0 -1
0.0050600270 -0.0612820200 0 -1
0.0029932820 -0.0589879640 0 -1
0.0011726240 -0.0562984410 0 -1
-0.0001892820 -0.0534901560 0 -1
-0.0009203070 -0.0508515850 0 -1
-0.0009111220 -0.0486550470 0 -1
-0.0001306490 -0.0471293970 0 -1
0.0013676020 -0.0464361170 0 -1
0.0034497550 -0.0466516080 0 -1
0.0059160740 -0.0477579330 0 -1
0.0085235590 -0.0496435280 0 -1
0.0110130050 -0.0521144050 0 -1
0.0131360580 -0.0549149870 0 -1
0.0146791050 -0.0577560380 0 -1
0.0154830070 -0.0603454600 0 -1
0.0154584500 -0.0624174850 0 -1
0.0145961930 -0.0637574240 0 -1
0.0129705280 -0.0642206690 0 -1
0.0107336820 -0.0637451120 0 -1
0.0081000070 -0.0623569530 0 -1
0.0053222880 -0.0601703710 0 -1
0.0026653720 -0.0573798930 0 -1
0.0003809760 -0.0542429030 0 -1
-0.0013155300 -0.0510525360 0 -1
-0.0022650630 -0.0481055490 0 -1
-0.0023786680 -0.0456711160 0 -1
-0.0016446010 -0.0439645230 0 -1
-0.0001303360 -0.0431276560 0 -1
0.0020208630 -0.0432176330 0 -1
0.0046018040 -0.0442043730 0 -1
0.0073627580 -0.0459762130 0 -1
0.0100388300 -0.0483519430 0 -1
0.0123775780 -0.0510980780 0 -1
0.0141628460 -0.0539498840 0 -1
0.0152331020 -0.0566342770 0 -1
0.0154936190 -0.0588935600 0 -1
0.0149226320 -0.0605093700 0 -1
0.0135720140 -0.0613249730 0 -1
0.0115623890 -0.0612626220 0 -1
0.0090724150 -0.0603325520 0 -1
0.0063228210 -0.0586316170 0 -1
0.0035564550 -0.0563320820 0 -1
0.0010162870 -0.0536635160 0 -1
-0.0010763870 -0.0508906790 0 -1
-0.0025423040 -0.0482885930 0 -1
-0.0032616780 -0.0461156900 0 -1
-0.0031853050 -0.0445877380 0 -1
-0.0023370670 -0.0438562750 0 -1
-0.0008091300 -0.0439940320 0 -1
0.0012477230 -0.0449880590 0 -1
0.0036376620 -0.0467404880 0 -1
0.0061374840 -0.0490768170 0 -1
0.0085175110 -0.0517613250 0 -1
0.0105622090 -0.0545189220 0 -1
0.0120875050 -0.0570619910 0 -1
0.0129559850 -0.0591195660 0 -1
0.0130923100 -0.0604656210 0 -1
0.0124963890 -0.0609437640 0 -1
0.0112481800 -0.0604858050 0 -1
0.0095002450 -0.0591211560 0 -1
0.0074592240 -0.0569744370 0 -1
0.0053607270 -0.0542509860 0 -1
0.0034424840 -0.0512131200 0 -1
0.0019194520 -0.0481517380 0 -1
0.0009632490 -0.0453573120 0 -1
0.0006871410 -0.0430924110 0 -1
0.0011365620 -0.0415670210 0 -1
0.0022848350 -0.0409187210 0 -1
0.0040350520 -0.0412004240 0 -1
0.0062288060 -0.0423770640 0 -1
0.0086603590 -0.0443306220 0 -1
0.0110951760 -0.0468718080 0 -1
0.0132936230 -0.0497569300 0 -1
0.0150382710 -0.0527087970 0 -1
0.0161583400 -0.0554407670 0 -1
0.0165454720 -0.0576831170 0 -1
0.0161611590 -0.0592100460 0 -1
0.0150389840 -0.0598641250 0 -1
0.0132822300 -0.0595743870 0 -1
0.0110546720 -0.0583649930 0 -1
0.0085632960 -0.0563530510 0 -1
0.0060359400 -0.0537358500 0 -1
0.0036986720 -0.0507691070 0 -1
0.0017555550 -0.0477392800 0 -1
0.0003719640 -0.0449342090 0 -1
-0.0003382570 -0.0426155570 0 -1
-0.0003234370 -0.0409947920 0 -1
0.0003968870 -0.0402142030 0 -1
0.0017283780 -0.0403346260 0 -1
0.0035086520 -0.0413307850 0 -1
0.0055247670 -0.0430944240 0 -1
0.0075378230 -0.0454453310 0 -1
0.0093109550 -0.0481496440 0 -1
0.0106369160 -0.0509431060 0 -1
0.0113600330 -0.0535557410 0 -1
0.0113890270 -0.0557353540 0 -1
0.0107015560 -0.0572693640 0 -1
0.0093436420 -0.0580048600 0 -1
0.0074250640 -0.0578651050 0 -1
0.0051095090 -0.0568595300 0 -1
0.0026001150 -0.0550851790 0 -1
0.0001231070 -0.0527188880 0 -1
-0.0020895100 -0.0500002290 0 -1
-0.0038197990 -0.0472064260 0 -1
-0.0048870720 -0.0446222140 0 -1
-0.0051706730 -0.0425091120 0 -1
-0.0046259460 -0.0410786100 0 -1
-0.0032898780 -0.0404724150 0 -1
-0.0012771450 -0.0407508770 0 -1
0.0012317350 -0.0418894960 0 -1
0.0040089860 -0.0437826110 0 -1
0.0068025060 -0.0462530570 0 -1
0.0093590430 -0.0490673930 0 -1
0.0114455430 -0.0519566560 0 -1
0.0128700250 -0.0546414990 0 -1
0.0135020500 -0.0568597770 0 -1
0.0132892250 -0.0583941040 0 -1
0.0122656220 -0.0590955200 0 -1
0.0105494060 -0.0588996050 0 -1
0.0083292260 -0.0578331460 0 -1
0.0058423640 -0.0560108560 0 -1
0.0033485740 -0.0536231490 0 -1
0.0011016840 -0.0509171600 0 -1
-0.0006785230 -0.0481729500 0 -1
-0.0018291730 -0.0456764170 0 -1
-0.0022573010 -0.0436907700 0 -1
-0.0019423650 -0.0424291590 0 -1
-0.0009320170 -0.0420321860 0 -1
0.0006647390 -0.0425538670 0 -1
0.0026868980 -0.0439573520 0 -1
0.0049352690 -0.0461194930 0 -1
0.0071900470 -0.0488430390 0 -1
0.0092297390 -0.0518756530 0 -1
0.0108508980 -0.0549341410 0 -1
0.0118885530 -0.0577310390 0 -1
0.0122348620 -0.0600006160 0 -1
0.0118518520 -0.0615226300 0 -1
0.0107751300 -0.0621426380 0 -1
0.0091077400 -0.0617872500 0 -1
0.0070063920 -0.0604729660 0 -1
0.0046648850 -0.0583073600 0 -1
0.0022985580 -0.0554811990 0 -1
0.0001294220 -0.0522511630 0 -1
-0.0016308940 -0.0489152670 0 -1
-0.0028020770 -0.0457846160 0 -1
-0.0032581730 -0.0431540770 0 -1
-0.0029469070 -0.0412730510 0 -1
-0.0018987240 -0.0403182400 0 -1
-0.0002232060 -0.0403726340 0 -1
0.0019045310 -0.0414154370 0 -1
0.0042636390 -0.0433254380 0 -1
0.0066106750 -0.0458964840 0 -1
0.0087037080 -0.0488608950 0 -1
0.0103253340 -0.0519166960 0 -1
0.0113029420 -0.0547564480 0 -1
0.0115242190 -0.0570966840 0 -1
0.0109463530 -0.0587059220 0 -1
0.0095991520 -0.0594274140 0 -1
0.0075831490 -0.0591932120 0 -1
0.0050627200 -0.0580286210 0 -1
0.0022527060 -0.0560478450 0 -1
-0.0006020950 -0.0534419970 0 -1
-0.0032512790 -0.0504607990 0 -1
-0.0054621170 -0.0473889690 0 -1
-0.0070398420 -0.0445182160 0 -1
-0.0078447400 -0.0421170600 0 -1
-0.0078050140 -0.0404021320 0 -1
-0.0069250780 -0.0395151300 0 -1
-0.0052896300 -0.0395090140 0 -1
-0.0030608070 -0.0403450020 0 -1
-0.0004633510 -0.0418992180 0 -1
0.0022425170 -0.0439772650 0 -1
0.0047927450 -0.0463358330 0 -1
0.0069468410 -0.0487092660 0 -1
0.0085087340 -0.0508367040 0 -1
0.0093428480 -0.0524857420 0 -1
0.0093860130 -0.0534714490 0 -1
0.0086546300 -0.0536715860 0 -1
0.0072456340 -0.0530378350 0 -1
0.0053284540 -0.0516015110 0 -1
0.0031263540 -0.0494728020 0 -1
0.0008899080 -0.0468332830 0 -1
-0.0011311540 -0.0439213620 0 -1
-0.0027126220 -0.0410111490 0 -1
-0.0036764240 -0.0383865490 0 -1
-0.0039086840 -0.0363130780 0 -1
-0.0033738150 -0.0350102180 0 -1
-0.0021203720 -0.0346272300 0 -1
-0.0002759470 -0.0352251060 0 -1
0.0019677300 -0.0367673520 0 -1
0.0043760250 -0.0391217940 0 -1
0.0066950490 -0.0420736920 0 -1
0.0086758660 -0.0453481260 0 -1
0.0100998040 -0.0486384300 0 -1
0.0108035180 -0.0516373400 0 -1
0.0106990010 -0.0540675990 0 -1
0.0097843330 -0.0557087950 0 -1
0.0081429390 -0.0564176120 0 -1
0.0059309140 -0.0561394950 0 -1
0.0033555940 -0.0549112530 0 -1
0.0006513310 -0.0528556980 0 -1
-0.0019430930 -0.0501701080 0 -1
-0.0042039590 -0.0471095460 0 -1
-0.0059392660 -0.0439650660 0 -1
-0.0070034820 -0.0410372550 0 -1
-0.0073101230 -0.0386072450 0 -1
-0.0068396220 -0.0369084180 0 -1
-0.0056406360 -0.0361021380 0 -1
-0.0038255560 -0.0362607500 0 -1
-0.0015612740 -0.0373602010 0 -1
0.0009447780 -0.0392828560 0 -1
0.0034624880 -0.0418298990 0 -1
0.0057593490 -0.0447423860 0 -1
0.0076223580 -0.0477288860 0 -1
0.0088794320 -0.0504958070 0 -1
0.0094165760 -0.0527761800 0 -1
0.0091887800 -0.0543540660 0 -1
0.0082254020 -0.0550831830 0 -1
0.0066302360 -0.0548988680 0 -1
0.0045736600 -0.0538229550 0 -1
0.0022743720 -0.0519618240 0 -1
-0.0000270746 -0.0494977450 0 -1
-0.0020963700 -0.0466733860 0 -1
-0.0037295990 -0.0437699680 0 -1
-0.0047718930 -0.0410807360 0 -1
-0.0051301910 -0.0388819940 0 -1
-0.0047784800 -0.0374044820 0 -1
-0.0037556240 -0.0368086400 0 -1
-0.0021595360 -0.0371671230 0 -1
-0.0001409450 -0.0384568820 0 -1
0.0021046250 -0.0405618040 0 -1
0.0043506810 -0.0432850950 0 -1
0.0063609500 -0.0463690780 0 -1
0.0079149570 -0.0495200380 0 -1
0.0088330710 -0.0524365560 0 -1
0.0089970620 -0.0548395390 0 -1
0.0083636320 -0.0565009670 0 -1
0.0069692420 -0.0572672320 0 -1
0.0049257950 -0.0570737920 0 -1
0.0024083980 -0.0559504370 0 -1
-0.0003624450 -0.0540178000 0 -1
-0.0031419690 -0.0514753960 0 -1
-0.0056841550 -0.0485815740 0 -1
-0.0077648270 -0.0456268730 0 -1
-0.0092023680 -0.0429038040 0 -1
-0.0098745830 -0.0406775440 0 -1
-0.0097311600 -0.0391613300 0 -1
-0.0087998410 -0.0384978640 0 -1
-0.0071839000 -0.0387468870 0 -1
-0.0050508510 -0.0398798250 0 -1
-0.0026147650 -0.0417821230 0 -1
-0.0001155790 -0.0442630160 0 -1
0.0022021330 -0.0470723820 0 -1
0.0041106630 -0.0499239400 0 -1
0.0054209810 -0.0525229400 0 -1
0.0060024520 -0.0545957130 0 -1
0.0057968650 -0.0559179180 0 -1
0.0048245400 -0.0563379560 0 -1
0.0031827810 -0.0557926130 0 -1
0.0010380460 -0.0543134290 0 -1
-0.0013884380 -0.0520235430 0 -1
-0.0038426810 -0.0491253340 0 -1
-0.0060656230 -0.0458802720 0 -1
-0.0078211250 -0.0425838310 0 -1
-0.0089193270 -0.0395381110 0 -1
-0.0092344080 -0.0370236990 0 -1
-0.0087174770 -0.0352726290 0 -1
-0.0074027790 -0.0344452930 0 -1
-0.0054039240 -0.0346138380 0 -1
-0.0029002810 -0.0357535060 0 -1
-0.0001174170 -0.0377431850 0 -1
0.0026949060 -0.0403763500 0 -1
0.0052858260 -0.0433817870 0 -1
0.0074269830 -0.0464511230 0 -1
0.0089356600 -0.0492694520 0 -1
0.0096953980 -0.0515461940 0 -1
0.0096700780 -0.0530440970 0 -1
0.0089064550 -0.0536036510 0 -1
0.0075238170 -0.0531591430 0 -1
0.0056957720 -0.0517438410 0 -1
0.0036307110 -0.0494847930 0 -1
0.0015537650 -0.0465892100 0 -1
-0.0003103700 -0.0433244640 0 -1
-0.0017555950 -0.0399931500 0 -1
-0.0026143830 -0.0369040480 0 -1
-0.0027769150 -0.0343408050 0 -1
-0.0022048360 -0.0325326530 0 -1
-0.0009367610 -0.0316317740 0 -1
0.0009154390 -0.0316997240 0 -1
0.0031790990 -0.0327036490 0 -1
0.0056392740 -0.0345222710 0 -1
0.0080595360 -0.0369601810 0 -1
0.0102028530 -0.0397679450 0 -1
0.0118525270 -0.0426660560 0 -1
0.0128332210 -0.0453713590 0 -1
0.0130302680 -0.0476239290 0 -1
0.0124040970 -0.0492116730 0 -1
0.0109964640 -0.0499897870 0 -1
0.0089262880 -0.0498931200 0 -1
0.0063758100 -0.0489411230 0 -1
0.0035708740 -0.0472355760 0 -1
0.0007588770 -0.0449504880 0 -1
-0.0018141230 -0.0423143360 0 -1
-0.0039251580 -0.0395869890 0 -1
-0.0053919380 -0.0370345670 0 -1
-0.0060859180 -0.0349047870 0 -1
-0.0059437070 -0.0334041950 0 -1
-0.0049776690 -0.0326781980 0 -1
-0.0032811800 -0.0327952660 0 -1
-0.0010227420 -0.0337374500 0 -1
0.0015720250 -0.0353993330 0 -1
0.0042459070 -0.0375965270 0 -1
0.0067371470 -0.0400837040 0 -1
0.0088046800 -0.0425810240 0 -1
0.0102508300 -0.0448060470 0 -1
0.0109400780 -0.0465057670 0 -1
0.0108111080 -0.0474831580 0 -1
0.0098808610 -0.0476158910 0 -1
0.0082418240 -0.0468674810 0 -1
0.0060536360 -0.0452904870 0 -1
0.0035291550 -0.0430207900 0 -1
0.0009153850 -0.0402633820 0 -1
-0.0015300740 -0.0372716350 0 -1
-0.0035655900 -0.0343221370 0 -1
-0.0049909830 -0.0316871130 0 -1
-0.0056671500 -0.0296073000 0 0
-0.0055287300 -0.0282688080 0 0
-0.0045909180 -0.0277865730 0 0
-0.0029503420 -0.0281951050 0 0
-0.0007787060 -0.0294460340 0 0
0.0016918690 -0.0314122350 0 -1
0.0041919600 -0.0338986660 0 -1
0.0064450160 -0.0366600900 0 -1
0.0082006740 -0.0394246400 0 -1
0.0092650950 -0.0419199730 0 -1
0.0095227130 -0.0438981410 0 -1
0.0089463740 -0.0451572460 0 -1
0.0075956890 -0.0455596340 0 -1
0.0056058430 -0.0450459550 0 -1
0.0031706920 -0.0436431340 0 -1
0.0005235910 -0.0414640880 0 -1
-0.0020826800 -0.0386983820 0 -1
-0.0043982340 -0.0355949530 0 -1
-0.0062015880 -0.0324392850 0 -1
-0.0073244560 -0.0295273710 0 0
-0.0076694840 -0.0271383450 0 0
-0.0072180790 -0.0255074520 0 0
-0.0060286310 -0.0248011260 0 0
-0.0042261810 -0.0250968120 0 0
-0.0019863110 -0.0263713980 0 0
0.0004821240 -0.0285012830 0 0
0.0029526160 -0.0312739040 0 -1
0.0051970250 -0.0344085830 0 -1
0.0070059270 -0.0375850290 0 -1
0.0082116940 -0.0404774680 0 -1
0.0087069530 -0.0427903900 0 -1
0.0084541860 -0.0442905950 0 -1
0.0074880860 -0.0448310630 0 -1
0.0059123590 -0.0443642030 0 -1
0.0038904840 -0.0429436580 0 -1
0.0016301490 -0.0407152610 0 -1
-0.0006378690 -0.0378999750 0 -1
-0.0026839930 -0.0347727640 0 -1
-0.0043031280 -0.0316394330 0 -1
-0.0053334820 -0.0288106800 0 0
-0.0056697910 -0.0265726560 0 0
-0.0052711740 -0.0251566100 0 0
-0.0041645210 -0.0247132130 0 0
-0.0024444820 -0.0252961420 0 0
-0.0002698820 -0.0268564980 0 0
0.0021459580 -0.0292482840 0 0
0.0045546350 -0.0322448680 0 -1
0.0067017010 -0.0355646850 0 -1
0.0083581200 -0.0389016820 0 -1
0.0093452640 -0.0419554290 0 -1
0.0095501080 -0.0444581920 0 -1
0.0089326060 -0.0461981480 0 -1
0.0075280620 -0.0470373460 0 -1
0.0054459150 -0.0469224520 0 -1
0.0028642960 -0.0458874840 0 -1
0.0000176664 -0.0440492020 0 -1
-0.0028249520 -0.0415964070 0 -1
-0.0053896730 -0.0387741700 0 -1
-0.0074291410 -0.0358630760 0 -1
-0.0087492450 -0.0331536090 0 -1
-0.0092285310 -0.0309179480 0 -1
-0.0088300470 -0.0293827990 0 0
-0.0076049710 -0.0287060130 0 0
-0.0056864510 -0.0289590030 0 0
-0.0032729220 -0.0301173680 0 -1
-0.0006033350 -0.0320616960 0 -1
0.0020701840 -0.0345888000 0 -1
0.0045071790 -0.0374322610 0 -1
0.0064985520 -0.0402904100 0 -1
0.0078802760 -0.0428586290 0 -1
0.0085421130 -0.0448620160 0 -1
0.0084338600 -0.0460845260 0 -1
0.0075710760 -0.0463911360 0 -1
0.0060389550 -0.0457401680 0 -1
0.0039902660 -0.0441841150 0 -1
0.0016344740 -0.0418597110 0 -1
-0.0007818800 -0.0389704890 0 -1
-0.0030016260 -0.0357657100 0 -1
-0.0047862200 -0.0325182360 0 -1
-0.0059429420 -0.0295026910 0 0
-0.0063473020 -0.0269747780 0 0
-0.0059587030 -0.0251520410 0 0
-0.0048260780 -0.0241956630 0 0
-0.0030812440 -0.0241937520 0 0
-0.0009210640 -0.0251480750 0 0
0.0014170930 -0.0269671350 0 0
0.0036811190 -0.0294691130 0 0
0.0056283280 -0.0323973710 0 -1
0.0070484360 -0.0354479350 0 -1
0.0077855320 -0.0383041380 0 -1
0.0077558300 -0.0406716650 0 -1
0.0069561870 -0.0423086860 0 -1
0.0054614180 -0.0430487150 0 -1
0.0034136360 -0.0428157760 0 -1
0.0010080710 -0.0416313400 0 -1
-0.0015238310 -0.0396116650 0 -1
-0.0039358130 -0.0369551320 0 -1
-0.0059918740 -0.0339215380 0 -1
-0.0074906710 -0.0308063350 0 -1
-0.0082853650 -0.0279122340 0 0
-0.0082965250 -0.0255201180 0 0
-0.0075160140 -0.0238616540 0 0
-0.0060029120 -0.0230965090 0 0
-0.0038763130 -0.0232967660 0 0
-0.0013075370 -0.0244403760 0 0
0.0014907220 -0.0264144090 0 0
0.0042806890 -0.0290271310 0 0
0.0068204510 -0.0320266480 0 -1
0.0088874440 -0.0351240580 0 -1
0.0103014780 -0.0380201430 0 -1
0.0109437450 -0.0404345760 0 -1
0.0107693670 -0.0421346170 0 -1
0.0098122630 -0.0429591060 0 -1
0.0081812690 -0.0428347980 0 -1
0.0060474200 -0.0417837820 0 -1
0.0036248310 -0.0399210060 0 -1
0.0011490400 -0.0374415770 0 -1
-0.0011445540 -0.0345995860 0 -1
-0.0030411760 -0.0316816040 0 -1
-0.0043652680 -0.0289778050 0 0
-0.0049961270 -0.0267534390 0 0
-0.0048800790 -0.0252234230 0 0
-0.0040388580 -0.0245318460 0 0
-0.0025718960 -0.0247372780 0 0
-0.0006486040 -0.0258058370 0 0
0.0015107570 -0.0276149990 0 0
0.0036617360 -0.0299687100 0 0
0.0055632850 -0.0326199430 0 -1
0.0070016670 -0.0352959430 0 -1
0.0078095610 -0.0377238990 0 -1
0.0078817580 -0.0396562610 0 -1
0.0071884970 -0.0408942470 0 -1
0.0057836760 -0.0413072540 0 -1
0.0038028270 -0.0408459630 0 -1
0.0014488230 -0.0395476290 0 -1
-0.0010316030 -0.0375325510 0 -1
-0.0033749620 -0.0349917680 0 -1
-0.0053275080 -0.0321679720 0 -1
-0.0066700280 -0.0293328210 0 0
-0.0072406290 -0.0267627600 0 0
-0.0069528780 -0.0247140400 0 0
-0.0058059040 -0.0233981240 0 0
-0.0038846920 -0.0229599300 0 0
-0.0013498930 -0.0234615120 0 0
0.0015817010 -0.0248732660 0 0
0.0046616610 -0.0270744700 0 0
0.0076342780 -0.0298641460 0 0
0.0102581350 -0.0329813520 0 -1
0.0123245420 -0.0361319730 0 -1
0.0136737150 -0.0390179720 0 -1
0.0142092120 -0.0413659970 0 -1
0.0139083840 -0.0429539990 0 -1
0.0128247780 -0.0436343860 0 -1
0.0110805680 -0.0433503050 0 -1
0.0088513200 -0.0421410060 0 -1
0.0063481620 -0.0401350180 0 -1
0.0038010350 -0.0375339080 0 -1
0.0014425570 -0.0345911930 0 -1
-0.0005095700 -0.0315894930 0 -1
-0.0018716100 -0.0288167110 0 0
-0.0025126920 -0.0265413610 0 0
-0.0023709270 -0.0249880630 0 0
-0.0014631160 -0.0243146260 0 0
0.0001142350 -0.0245926680 0 0
0.0021923100 -0.0257955900 0 0
0.0045455720 -0.0277987730 0 0
0.0069155770 -0.0303939440 0 -1
0.0090404550 -0.0333149640 0 -1
0.0106849560 -0.0362692980 0 -1
0.0116655720 -0.0389690160 0 -1
0.0118668360 -0.0411573300 0 -1
0.0112484670 -0.0426300180 0 -1
0.0098459730 -0.0432526010 0 -1
0.0077666650 -0.0429728150 0 -1
0.0051811470 -0.0418265300 0 -1
0.0023095310 -0.0399355930 0 -1
-0.0005979950 -0.0374970340 0 -1
-0.0032854930 -0.0347637960 0 -1
-0.0055177460 -0.0320184990 0 -1
-0.0071051690 -0.0295437960 0 0
-0.0079242580 -0.0275936040 0 0
-0.0079305770 -0.0263682550 0 0
-0.0071617230 -0.0259952540 0 0
-0.0057310220 -0.0265171520 0 0
-0.0038143060 -0.0278876620 0 0
-0.0016303610 -0.0299762590 0 0
0.0005830790 -0.0325808570 0 -1
0.0025928740 -0.0354478040 0 -1
0.0041906100 -0.0382973970 0 -1
0.0052102760 -0.0408516670 0 -1
0.0055440750 -0.0428609730 0 -1
0.0051544740 -0.0441271430 0 -1
0.0040798590 -0.0445222500 0 -1
0.0024317140 -0.0440020270 0 -1
0.0003828470 -0.0426118810 0 -1
-0.0018514200 -0.0404835140 0 -1
-0.0040358210 -0.0378221720 0 -1
-0.0059383690 -0.0348866250 0 -1
-0.0073516770 -0.0319644190 0 -1
-0.0081110500 -0.0293442940 0 0
-0.0081099400 -0.0272873300 0 0
-0.0073135330 -0.0259994830 0 0
-0.0057680730 -0.0256097020 0 0
-0.0036005060 -0.0261572870 0 0
-0.0010058640 -0.0275896730 0 0
0.0017744540 -0.0297696480 0 0
0.0044785410 -0.0324901920 0 -1
0.0068504380 -0.0354948340 0 -1
0.0086643490 -0.0385016680 0 -1
0.0097449050 -0.0412294850 0 -1
0.0099836460 -0.0434238210 0 -1
0.0093513440 -0.0448803360 0 -1
0.0079031610 -0.0454639450 0 -1
0.0057738250 -0.0451223140 0 -1
0.0031634980 -0.0438912540 0 -1
0.0003174530 -0.0418907030 0 -1
-0.0024976800 -0.0393128520 0 -1
-0.0050186540 -0.0364046250 0 -1
-0.0070092130 -0.0334453060 0 -1
-0.0082815010 -0.0307199740 0 -1
-0.0087138620 -0.0284910020 0 0
-0.0082626690 -0.0269714140 0 0
-0.0069666920 -0.0263037080 0 0
-0.0049443120 -0.0265458310 0 0
-0.0023843380 -0.0276649470 0 0
0.0004693740 -0.0295404590 0 0
0.0033394970 -0.0319770530 0 -1
0.0059424340 -0.0347255410 0 -1
0.0080194740 -0.0375079810 0 -1
0.0093680900 -0.0400441790 0 -1
0.0098670860 -0.0420769920 0 -1
0.0094891500 -0.0433946010 0 -1
0.0082980280 -0.0438494760 0 -1
0.0064334270 -0.0433738160 0 -1
0.0040902960 -0.0419893690 0 -1
0.0014984510 -0.0398085090 0 -1
-0.0010954550 -0.0370253530 0 -1
-0.0034463270 -0.0338979810 0 -1
-0.0053325060 -0.0307231340 0 -1
-0.0065794080 -0.0278052470 0 0
-0.0070790810 -0.0254236950 0 0
-0.0068005950 -0.0238029800 0 0
-0.0057903730 -0.0230893150 0 0
-0.0041645990 -0.0233357210 0 0
-0.0020960500 -0.0244970170 0 0
0.0002025540 -0.0264350170 0 0
0.0024973020 -0.0289332530 0 0
0.0045539870 -0.0317197610 0 -1
0.0061604420 -0.0344953780 0 -1
0.0071475830 -0.0369634670 0 -1
0.0074062310 -0.0388571930 0 -1
0.0068975220 -0.0399631190 0 -1
0.0056560840 -0.0401418930 0 -1
0.0037872330 -0.0393451010 0 -1
0.0014595340 -0.0376245070 0 -1
-0.0011082440 -0.0351299710 0 -1
-0.0036675270 -0.0320950320 0 -1
-0.0059668460 -0.0288121360 0 0
-0.0077809010 -0.0256014790 0 0
-0.0089356810 -0.0227777430 0 0
-0.0093247930 -0.0206180700 0 0
-0.0089163080 -0.0193337340 0 0
-0.0077528710 -0.0190479350 0 0
-0.0059470340 -0.0197827610 0 0
-0.0036716450 -0.0214580930 0 0
-0.0011450720 -0.0239026530 0 0
0.0013889010 -0.0268740130 0 0
0.0036864360 -0.0300830540 0 -1
0.0055310060 -0.0332200270 0 -1
0.0067565230 -0.0359818700 0 -1
0.0072619480 -0.0381006610 0 -1
0.0070172880 -0.0393712750 0 -1
0.0060632980 -0.0396742720 0 -1
0.0045071720 -0.0389892440 0 -1
0.0025144090 -0.0373953130 0 -1
0.0002946980 -0.0350593270 0 -1
-0.0019193430 -0.0322152910 0 -1
-0.0038969910 -0.0291386490 0 0
-0.0054321250 -0.0261182260 0 0
-0.0063620370 -0.0234289090 0 0
-0.0065833480 -0.0213087500 0 0
-0.0060630360 -0.0199426860 0 0
-0.0048416170 -0.0194516000 0 0
-0.0030290170 -0.0198836630 0 0
-0.0007950590 -0.0212075400 0 0
0.0016443840 -0.0233102330 0 0
0.0040444240 -0.0260025440 0 0
0.0061515960 -0.0290335810 0 0
0.0077291690 -0.0321142970 0 -1
0.0085859810 -0.0349478660 0 -1
0.0086034650 -0.0372619860 0 -1
0.0077541470 -0.0388375440 0 -1
0.0061066900 -0.0395296800 0 -1
0.0038171560 -0.0392796880 0 -1
0.0011100820 -0.0381185440 0 -1
-0.0017472540 -0.0361637240 0 -1
-0.0044751000 -0.0336093890 0 -1
-0.0068115930 -0.0307087880 0 -1
-0.0085372980 -0.0277492610 0 0
-0.0094919590 -0.0250224890 0 0
-0.0095861030 -0.0227938610 0 0
-0.0088088640 -0.0212750140 0 0
-0.0072301360 -0.0206032490 0 0
-0.0049952440 -0.0208301660 0 0
-0.0023118140 -0.0219199900 0 0
0.0005700270 -0.0237561090 0 0
0.0033817600 -0.0261533340 0 0
0.0058633640 -0.0288744080 0 0
0.0077917000 -0.0316511010 0 -1
0.0090059280 -0.0342100840 0 -1
0.0094236910 -0.0363011810 0 -1
0.0090452130 -0.0377235910 0 -1
0.0079470950 -0.0383461200 0 -1
0.0062688860 -0.0381198410 0 -1
0.0041950560 -0.0370830300 0 -1
0.0019350930 -0.0353578580 0 -1
-0.0002963280 -0.0331380360 0 -1
-0.0022984460 -0.0306683860 0 -1
-0.0039009690 -0.0282194300 0 0
-0.0049750050 -0.0260603690 0 0
-0.0054381350 -0.0244329910 0 0
-0.0052573490 -0.0235285870 0 0
-0.0044525960 -0.0234694150 0 0
-0.0030990280 -0.0242955330 0 0
-0.0013241520 -0.0259584540 0 0
0.0007012720 -0.0283237790 0 0
0.0027772850 -0.0311833360 0 -1
0.0046928370 -0.0342748820 0 -1
0.0062477290 -0.0373068490 0 -1
0.0072759660 -0.0399863590 0 -1
0.0076655870 -0.0420485880 0 -1
0.0073708490 -0.0432844220 0 -1
0.0064156970 -0.0435623450 0 -1
0.0048895720 -0.0428413630 0 -1
0.0029366580 -0.0411740750 0 -1
0.0007404260 -0.0387004720 0 -1
-0.0014929420 -0.0356334760 0 -1
-0.0035499990 -0.0322381810 0 -1
-0.0052257820 -0.0288076920 0 0
-0.0063418850 -0.0256376160 0 0
-0.0067664840 -0.0229996910 0 0
-0.0064333090 -0.0211160120 0 0
-0.0053546300 -0.0201376820 0 0
-0.0036240970 -0.0201313020 0 0
-0.0014089060 -0.0210739030 0 0
0.0010666100 -0.0228554740 0 0
0.0035440800 -0.0252887980 0 0
0.0057595340 -0.0281268890 0 0
0.0074739490 -0.0310873500 0 -1
0.0085002100 -0.0338810860 0 -1
0.0087225650 -0.0362417090 0 -1
0.0081088890 -0.0379516570 0 -1
0.0067161670 -0.0388614690 0 -1
0.0046864510 -0.0389005480 0 -1
0.0022305460 -0.0380802070 0 -1
-0.0003987950 -0.0364909400 0 -1
-0.0029386000 -0.0342950150 0 -1
-0.0051466170 -0.0317136450 0 -1
-0.0068285240 -0.0290077420 0 0
-0.0078592750 -0.0264531020 0 0
-0.0081934280 -0.0243127260 0 0
-0.0078593740 -0.0228088950 0 0
-0.0069400440 -0.0220973940 0 0
-0.0055505620 -0.0222478250 0 0
-0.0038225510 -0.0232351020 0 0
-0.0018972870 -0.0249445980 0 0
0.0000768056 -0.0271885110 0 0
0.0019477140 -0.0297285110 0 0
0.0035667650 -0.0323007080 0 -1
0.0047992210 -0.0346406470 0 -1
0.0055373720 -0.0365065040 0 -1
0.0057125350 -0.0376991320 0 -1
0.0053027130 -0.0380787720 0 -1
0.0043364930 -0.0375784340 0 -1
0.0028955230 -0.0362131400 0 -1
0.0011151350 -0.0340831330 0 -1
-0.0008209700 -0.0313682720 0 -1
-0.0026968530 -0.0283117930 0 0
-0.0042922100 -0.0251950650 0 0
-0.0054156930 -0.0223081000 0 0
-0.0059335850 -0.0199206910 0 0
-0.0057871160 -0.0182566960 0 0
-0.0049977500 -0.0174721030 0 0
-0.0036625910 -0.0176380140 0 0
-0.0019414790 -0.0187312580 0 0
-0.0000377510 -0.0206353700 0 0
0.0018239710 -0.0231531180 0 0
0.0034209040 -0.0260290990 0 0
0.0045555430 -0.0289778220 0 0
0.0050774120 -0.0317119640 0 -1
0.0049002660 -0.0339679440 0 -1
0.0040129440 -0.0355284200 0 -1
0.0024829920 -0.0362415880 0 -1
0.0004523140 -0.0360362390 0 -1
-0.0018759550 -0.0349309750 0 -1
-0.0042594310 -0.0330355540 0 -1
-0.0064439930 -0.0305424920 0 -1
-0.0081910010 -0.0277085750 0 0
-0.0093011060 -0.0248281490 0 0
-0.0096350670 -0.0222019620 0 0
-0.0091304370 -0.0201059590 0 0
-0.0078106730 -0.0187635650 0 0
-0.0057840290 -0.0183237130 0 0
-0.0032311760 -0.0188460520 0 0
-0.0003826250 -0.0202941100 0 0
0.0025098100 -0.0225370030 0 0
0.0052010650 -0.0253606120 0 0
0.0074747950 -0.0284886670 0 0
0.0091571370 -0.0316119220 0 -1
0.0101241190 -0.0344208020 0 -1
0.0103065540 -0.0366359410 0 -1
0.0096946960 -0.0380328170 0 -1
0.0083413640 -0.0384599480 0 -1
0.0063610840 -0.0378525820 0 -1
0.0039244550 -0.0362429730 0 -1
0.0012481510 -0.0337641720 0 -1
-0.0014202240 -0.0306417440 0 -1
-0.0038243480 -0.0271711750 0 0
-0.0057277100 -0.0236848950 0 0
-0.0069428160 -0.0205157790 0 0
-0.0073544770 -0.0179626150 0 0
-0.0069330960 -0.0162609140 0 0
-0.0057353680 -0.0155618280 0 0
-0.0038915030 -0.0159213170 0 0
-0.0015834260 -0.0172995400 0 0
0.0009767910 -0.0195679400 0 0
0.0035624810 -0.0225210370 0 0
0.0059455330 -0.0258921530 0 0
0.0079140790 -0.0293748320 0 0
0.0092947650 -0.0326507800 0 -1
0.0099724490 -0.0354213980 0 -1
0.0099017560 -0.0374377930 0 -1
0.0091107950 -0.0385251730 0 -1
0.0076983630 -0.0385991730 0 -1
0.0058241360 -0.0376721660 0 -1
0.0036923510 -0.0358492890 0 -1
0.0015309470 -0.0333165100 0 -1
-0.0004320030 -0.0303236110 0 -1
-0.0019918430 -0.0271630510 0 0
-0.0029866710 -0.0241445970 0 0
-0.0033097550 -0.0215667090 0 0
-0.0029172420 -0.0196871070 0 0
-0.0018346900 -0.0186954180 0 0
-0.0001605530 -0.0186913290 0 0
0.0019387480 -0.0196720090 0 0
0.0042442920 -0.0215312020 0 0
0.0065086440 -0.0240702810 0 0
0.0084850670 -0.0270199690 0 0
0.0099575810 -0.0300701810 0 -1
0.0107661030 -0.0329043940 0 -1
0.0108220770 -0.0352344570 0 -1
0.0101138480 -0.0368316680 0 -1
0.0087036720 -0.0375502000 0 -1
0.0067176260 -0.0373397330 0 -1
0.0043291810 -0.0362458240 0 -1
0.0017394100 -0.0343992720 0 -1
-0.0008411720 -0.0319982450 0 -1
-0.0032068670 -0.0292868360 0 0
-0.0051700680 -0.0265314990 0 0
-0.0065764690 -0.0239959070 0 0
-0.0073201130 -0.0219163390 0 0
-0.0073536910 -0.0204810820 0 0
-0.0066924920 -0.0198159630 0 0
-0.0054133720 -0.0199755760 0 0
-0.0036492700 -0.0209387360 0 0
-0.0015786810 -0.0226081980 0 0
0.0005894040 -0.0248168510 0 0
0.0026342010 -0.0273422360 0 0
0.0043452930 -0.0299280850 0 0
0.0055459260 -0.0323096480 0 -1
0.0061125420 -0.0342402070 0 -1
0.0059875660 -0.0355164470 0 -1
0.0051851660 -0.0359993780 0 -1
0.0037899740 -0.0356278790 0 -1
0.0019491500 -0.0344239450 0 -1
-0.0001414550 -0.0324901350 0 -1
-0.0022567090 -0.0299999730 0 0
-0.0041661240 -0.0271818870 0 0
-0.0056594380 -0.0242975870 0 0
-0.0065700390 -0.0216168480 0 0
-0.0067923760 -0.0193917480 0 0
-0.0062916580 -0.0178335090 0 0
-0.0051075740 -0.0170935810 0 0
-0.0033531810 -0.0172491300 0 0
-0.0012056370 -0.0182934380 0 0
0.0011141390 -0.0201329880 0 0
0.0033683190 -0.0225937530 0 0
0.0053270330 -0.0254379940 0 0
0.0067881480 -0.0283895070 0 0
0.0075944590 -0.0311627170 0 -1
0.0076493210 -0.0334912710 0 -1
0.0069278180 -0.0351530990 0 -1
0.0054809220 -0.0359902200 0 -1
0.0034323870 -0.0359230610 0 -1
0.0009676330 -0.0349588360 0 -1
-0.0016857240 -0.0331921870 0 -1
-0.0042827510 -0.0307969150 0 -1
-0.0065870820 -0.0280090080 0 0
-0.0083944750 -0.0251015510 0 0
-0.0095507980 -0.0223537060 0 0
-0.0099618040 -0.0200194030 0 0
-0.0095958040 -0.0183023980 0 0
-0.0084837800 -0.0173406670 0 0
-0.0067200940 -0.0171984810 0 0
-0.0044612330 -0.0178633080 0 0
-0.0019163800 -0.0192468930 0 0
0.0006732300 -0.0211919410 0 0
0.0030625570 -0.0234855550 0 0
0.0050313350 -0.0258788900 0 0
0.0064069060 -0.0281109830 0 0
0.0070779790 -0.0299343910 0 0
0.0069985920 -0.0311407380 0 -1
0.0061854330 -0.0315841310 0 -1
0.0047147950 -0.0311991720 0 -1
0.0027224410 -0.0300099160 0 -1
0.0004021370 -0.0281277800 0 0
-0.0020049220 -0.0257393470 0 0
-0.0042335980 -0.0230870090 0 0
-0.0060274820 -0.0204447100 0 0
-0.0071727340 -0.0180899980 0 0
-0.0075260370 -0.0162746640 0 0
-0.0070328030 -0.0151976490 0 0
-0.0057336330 -0.0149837360 0 0
-0.0037576340 -0.0156706470 0 0
-0.0013035300 -0.0172059740 0 0
0.0013867340 -0.0194538560 0 0
0.0040551710 -0.0222100360 0 0
0.0064507940 -0.0252230570 0 0
0.0083487500 -0.0282191020 0 0
0.0095682090 -0.0309282730 0 -1
0.0099888290 -0.0331098900 0 -1
0.0095636680 -0.0345739350 0 -1
0.0083272150 -0.0351968920 0 -1
0.0063963280 -0.0349318000 0 -1
0.0039607520 -0.0338124720 0 -1
0.0012626030 -0.0319514360 0 -1
-0.0014300240 -0.0295313290 0 0
-0.0038486470 -0.0267892430 0 0
-0.0057475550 -0.0239937870 0 0
-0.0069266640 -0.0214174720 0 0
-0.0072538680 -0.0193097680 0 0
-0.0066830060 -0.0178749500 0 0
-0.0052620460 -0.0172550850 0 0
-0.0031272930 -0.0175168770 0 0
-0.0004843200 -0.0186425510 0 0
0.0024186270 -0.0205272910 0 0
0.0053189480 -0.0229863370 0 0
0.0079664620 -0.0257730300 0 0
0.0101457770 -0.0286053840 0 0
0.0116920660 -0.0311960800 0 -1
0.0125009420 -0.0332813370 0 -1
0.0125343110 -0.0346467210 0 -1
0.0118231760 -0.0351490530 0 -1
0.0104669130 -0.0347329190 0 -1
0.0086264680 -0.0334393840 0 -1
0.0065088720 -0.0314041710 0 -1
0.0043445320 -0.0288436850 0 0
0.0023618390 -0.0260304860 0 0
0.0007627840 -0.0232625890 0 0
-0.0002983770 -0.0208311900 0 0
-0.0007310850 -0.0189907050 0 0
-0.0005164190 -0.0179348000 0 0
0.0002936130 -0.0177805230 0 0
0.0015830610 -0.0185596010 0 0
0.0031829820 -0.0202156190 0 0
0.0048864580 -0.0226082290 0 0
0.0064684590 -0.0255254770 0 0
0.0077100580 -0.0287029150 0 0
0.0084250610 -0.0318468070 0 -1
0.0084852780 -0.0346591830 0 -1
0.0078382440 -0.0368636660 0 -1
0.0065113990 -0.0382316300 0 -1
0.0046024120 -0.0386069440 0 -1
0.0022621370 -0.0379260180 0 -1
-0.0003221880 -0.0362298040 0 -1
-0.0029410300 -0.0336646400 0 -1
-0.0053774330 -0.0304695540 0 -1
-0.0074266580 -0.0269505320 0 0
-0.0089182320 -0.0234461410 0 0
-0.0097328500 -0.0202906560 0 0
-0.0098100230 -0.0177798040 0 0
-0.0091490780 -0.0161421880 0 0
-0.0078072410 -0.0155182380 0 0
-0.0058959160 -0.0159483740 0 0
-0.0035744910 -0.0173715840 0 0
-0.0010400210 -0.0196342110 0 0
0.0014882310 -0.0225073140 0 0
0.0037877100 -0.0257105160 0 0
0.0056520030 -0.0289397190 0 0
0.0069094720 -0.0318958420 0 -1
0.0074409340 -0.0343121340 0 -1
0.0071950500 -0.0359779530 0 -1
0.0061984170 -0.0367568470 0 -1
0.0045570770 -0.0365971740 0 -1
0.0024473030 -0.0355342380 0 -1
0.0000962908 -0.0336840980 0 -1
-0.0022433460 -0.0312312220 0 -1
-0.0043202890 -0.0284131280 0 0
-0.0059094480 -0.0255030440 0 0
-0.0068344250 -0.0227886890 0 0
-0.0069862240 -0.0205457490 0 0
-0.0063355600 -0.0190081780 0 0
-0.0049374390 -0.0183410370 0 0
-0.0029276940 -0.0186219050 0 0
-0.0005103370 -0.0198334730 0 0
0.0020639010 -0.0218661970 0 0
0.0045244030 -0.0245290340 0 0
0.0066096240 -0.0275671740 0 0
0.0080957860 -0.0306862620 0 -1
0.0088215670 -0.0335818090 0 -1
0.0087048030 -0.0359707240 0 -1
0.0077490310 -0.0376203510 0 -1
0.0060398970 -0.0383703470 0 -1
0.0037336250 -0.0381449980 0 -1
0.0010405230 -0.0369569730 0 -1
-0.0017944940 -0.0349049270 0 -1
-0.0045134930 -0.0321656790 0 -1
-0.0068686240 -0.0289800720 0 0
-0.0086455140 -0.0256324220 0 0
-0.0096842120 -0.0224251880 0 0
-0.0098941220 -0.0196508820 0 0
-0.0092610790 -0.0175631140 0 0
-0.0078472280 -0.0163498720 0 0
-0.0057850620 -0.0161130970 0 0
-0.0032658330 -0.0168573540 0 0
-0.0005219060 -0.0184885210 0 0
0.0021951370 -0.0208229540 0 0
0.0046362600 -0.0236071700 0 0
0.0065741500 -0.0265459160 0 0
0.0078212260 -0.0293340470 0 0
0.0082482610 -0.0316875190 0 -1
0.0078026750 -0.0333712130 0 -1
0.0065216810 -0.0342225390 0 -1
0.0045333710 -0.0341685570 0 -1
0.0020427740 -0.0332334240 0 -1
-0.0006927910 -0.0315347290 0 -1
-0.0033923570 -0.0292702980 0 0
-0.0057802650 -0.0266979360 0 0
-0.0076139820 -0.0241097160 0 0
-0.0087085810 -0.0218025960 0 0
-0.0089550760 -0.0200481990 0 0
-0.0083314050 -0.0190646550 0 0
-0.0069063700 -0.0189931790 0 0
-0.0048345520 -0.0198820620 0 0
-0.0023380710 -0.0216801640 0 0
0.0003233600 -0.0242411690 0 0
0.0028850460 -0.0273385750 0 0
0.0051053220 -0.0306899730 0 -1
0.0067878400 -0.0339875970 0 -1
0.0077976710 -0.0369306310 0 -1
0.0080696660 -0.0392542710 0 -1
0.0076098630 -0.0407521510 0 -1
0.0064925640 -0.0412914220 0 -1
0.0048532370 -0.0408215290 0 -1
0.0028751720 -0.0393773660 0 -1
0.0007699270 -0.0370764790 0 -1
-0.0012448410 -0.0341099300 0 -1
-0.0029664020 -0.0307267100 0 -1
-0.0042255030 -0.0272124930 0 0
-0.0049019170 -0.0238645600 0 0
-0.0049349590 -0.0209652050 0 0
-0.0043269350 -0.0187560270 0 0
-0.0031399560 -0.0174152070 0 0
-0.0014890230 -0.0170396260 0 0
0.0004658810 -0.0176342730 0 0
0.0025293310 -0.0191115140 0 0
0.0044844710 -0.0213005160 0 0
0.0061121930 -0.0239644490 0 0
0.0072140630 -0.0268225850 0 0
0.0076376190 -0.0295761640 0 0
0.0073008130 -0.0319376700 0 -1
0.0062087250 -0.0336613090 0 -1
0.0044552410 -0.0345697840 0 -1
0.0022077030 -0.0345722810 0 -1
-0.0003191840 -0.0336714420 0 -1
-0.0028898320 -0.0319603930 0 -1
-0.0052687240 -0.0296120320 0 0
-0.0072376650 -0.0268618710 0 0
-0.0086127190 -0.0239851690 0 0
-0.0092594100 -0.0212701060 0 0
-0.0091029860 -0.0189896450 0 0
-0.0081346860 -0.0173745880 0 0
-0.0064168270 -0.0165900450 0 0
-0.0040845220 -0.0167171870 0 0
-0.0013374380 -0.0177420530 0 0
0.0015812240 -0.0195538740 0 0
0.0044135140 -0.0219552090 0 0
0.0069151630 -0.0246836400 0 0
0.0088789990 -0.0274414240 0 0
0.0101526020 -0.0299282710 0 0
0.0106500810 -0.0318727410 0 -1
0.0103578560 -0.0330589090 0 -1
0.0093350780 -0.0333463760 0 -1
0.0077086110 -0.0326826260 0 -1
0.0056610730 -0.0311071200 0 -1
0.0034121350 -0.0287469610 0 0
0.0011961470 -0.0258049730 0 0
-0.0007615750 -0.0225421480 0 0
-0.0022686970 -0.0192557750 0 0
-0.0031867970 -0.0162530430 0 0
-0.0034447300 -0.0138208000 0 0
-0.0030423700 -0.0121948110 0 0
-0.0020457520 -0.0115330920 0 0
-0.0005761230 -0.0118975770 0 0
0.0012044820 -0.0132474950 0 0
0.0031084810 -0.0154454540 0 0
0.0049364980 -0.0182736310 0 0
0.0064902340 -0.0214562310 0 0
0.0075877680 -0.0246865160 0 0
0.0080829280 -0.0276576960 0 0
0.0078855480 -0.0300945630 0 -1
0.0069764180 -0.0317810920 0 -1
0.0054122190 -0.0325805320 0 -1
0.0033200020 -0.0324464020 0 -1
0.0008838680 -0.0314239050 0 -1
-0.0016732660 -0.0296426560 0 0
-0.0041117930 -0.0273026960 0 0
-0.0062021200 -0.0246551690 0 0
-0.0077544540 -0.0219784440 0 0
-0.0086444270 -0.0195513460 0 0
-0.0088251170 -0.0176259430 0 0
-0.0083225890 -0.0164020970 0 0
-0.0072214190 -0.0160064800 0 0
-0.0056496710 -0.0164794810 0 0
-0.0037677680 -0.0177724290 0 0
-0.0017587580 -0.0197551100 0 0
0.0001842350 -0.0222310700 0 0
0.0018735340 -0.0249573410 0 0
0.0031426880 -0.0276668180 0 0
0.0038607460 -0.0300929820 0 -1
0.0039445950 -0.0319956410 0 -1
0.0033684490 -0.0331843130 0 -1
0.0021686380 -0.0335357250 0 -1
0.0004420860 -0.0330041550 0 -1
-0.0016616180 -0.0316251410 0 -1
-0.0039522420 -0.0295131280 0 0
-0.0062129890 -0.0268530210 0 0
-0.0082180430 -0.0238851400 0 0
-0.0097552920 -0.0208832760 0 0
-0.0106512170 -0.0181273420 0 0
-0.0107926220 -0.0158742760 0 0
-0.0101418280 -0.0143317570 0 0
-0.0087431780 -0.0136384490 0 0
-0.0067190430 -0.0138525000 0 0
-0.0042552470 -0.0149476550 0 0
-0.0015792820 -0.0168154460 0 0
0.0010628870 -0.0192726870 0 0
0.0034285940 -0.0220751460 0 0
0.0053003420 -0.0249391390 0 0
0.0065074550 -0.0275707250 0 0
0.0069429380 -0.0296984980 0 0
0.0065722120 -0.0311043190 0 -1
0.0054344550 -0.0316476010 0 -1
0.0036385320 -0.0312800950 0 -1
0.0013538760 -0.0300492900 0 -1
-0.0012039900 -0.0280908320 0 0
-0.0037928680 -0.0256120870 0 0
-0.0061669660 -0.0228690720 0 0
-0.0081008890 -0.0201391270 0 0
-0.0094111670 -0.0176922230 0 0
-0.0099737240 -0.0157637840 0 0
-0.0097372820 -0.0145322430 0 0
-0.0087310570 -0.0141045730 0 0
-0.0070630770 -0.0145107450 0 0
-0.0049076400 -0.0157051210 0 0
-0.0024851670 -0.0175718550 0 0
-0.0000388089 -0.0199332990 0 0
0.0021898780 -0.0225631530 0 0
0.0039842850 -0.0252062630 0 0
0.0051726540 -0.0276043720 0 0
0.0056427990 -0.0295240940 0 0
0.0053513400 -0.0307816850 0 -1
0.0043283050 -0.0312606240 0 -1
0.0026774430 -0.0309210870 0 -1
0.0005705660 -0.0298022480 0 0
-0.0017666440 -0.0280183530 0 0
-0.0040780220 -0.0257485170 0 0
-0.0061072190 -0.0232198980 0 0
-0.0076294570 -0.0206858360 0 0
-0.0084768980 -0.0184022060 0 0
-0.0085521550 -0.0166042170 0 0
-0.0078312170 -0.0154842510 0 0
-0.0063610510 -0.0151712220 0 0
-0.0042548320 -0.0157132660 0 0
-0.0016838980 -0.0170674700 0 0
0.0011350080 -0.0191009890 0 0
0.0039572310 -0.0216051830 0 0
0.0065312780 -0.0243202530 0 0
0.0086214090 -0.0269659060 0 0
0.0100305830 -0.0292734970 0 0
0.0106237360 -0.0310150150 0 -1
0.0103479530 -0.0320248070 0 -1
0.0092421000 -0.0322120400 0 -1
0.0074315540 -0.0315644720 0 -1
0.0051105920 -0.0301456840 0 -1
0.0025180900 -0.0280882690 0 0
-0.0000885724 -0.0255838460 0 0
-0.0024582300 -0.0228683670 0 0
-0.0043680010 -0.0202014960 0 0
-0.0056421040 -0.0178421200 0 0
-0.0061663100 -0.0160235940 0 0
-0.0058971670 -0.0149310960 0 0
-0.0048657950 -0.0146826100 0 0
-0.0031754390 -0.0153156730 0 0
-0.0009916300 -0.0167821860 0 0
0.0014745370 -0.0189523940 0 0
0.0039871470 -0.0216269340 0 0
0.0063069950 -0.0245544580 0 0
0.0082124750 -0.0274531360 0 0
0.0095202330 -0.0300359220 0 -1
0.0101055880 -0.0320386400 0 -1
0.0099195500 -0.0332477410 0 -1
0.0089970830 -0.0335240270 0 -1
0.0074535830 -0.0328190490 0 -1
0.0054710970 -0.0311814220 0 -1
0.0032773670 -0.0287516770 0 0
0.0011194280 -0.0257464100 0 0
-0.0007668230 -0.0224345860 0 0
-0.0021866600 -0.0191102720 0 0
-0.0030085570 -0.0160658400 0 0
-0.0031726890 -0.0135679820 0 0
-0.0026867290 -0.0118367420 0 0
-0.0016145740 -0.0110262710 0 0
-0.0000647223 -0.0112071020 0 0
0.0018179070 -0.0123536050 0 0
0.0038587630 -0.0143425800 0 0
0.0058637850 -0.0169657530 0 0
0.0076351520 -0.0199531130 0 0
0.0089912270 -0.0230011900 0 0
0.0097867420 -0.0258020400 0 0
0.0099290530 -0.0280715400 0 0
0.0093881260 -0.0295762470 0 0
0.0081995760 -0.0301570100 0 -1
0.0064616950 -0.0297465990 0 0
0.0043279450 -0.0283778460 0 0
0.0019949230 -0.0261799540 0 0
-0.0003149810 -0.0233642490 0 0
-0.0023757640 -0.0202029630 0 0
-0.0039828180 -0.0170034070 0 0
-0.0049772350 -0.0140782270 0 0
-0.0052646080 -0.0117130260 0 0
-0.0048243220 -0.0101351830 0 0
-0.0037088450 -0.0094900500 0 0
-0.0020356720 -0.0098289700 0 0
0.0000257171 -0.0111085130 0 0
0.0022709410 -0.0131977600 0 0
0.0044797230 -0.0158916810 0 0
0.0064343870 -0.0189296600 0 0
0.0079379400 -0.0220182490 0 0
0.0088323370 -0.0248568980 0 0
0.0090160650 -0.0271653250 0 0
0.0084592630 -0.0287114550 0 0
0.0072120570 -0.0293375530 0 0
0.0054004940 -0.0289800370 0 0
0.0032100320 -0.0276780630 0 0
0.0008631110 -0.0255680040 0 0
-0.0014033190 -0.0228651780 0 0
-0.0033591410 -0.0198384250 0 0
-0.0048017600 -0.0167833130 0 0
-0.0055745310 -0.0139963480 0 0
-0.0055802010 -0.0117501680 0 0
-0.0047889850 -0.0102695330 0 0
-0.0032435850 -0.0097088340 0 0
-0.0010613770 -0.0101334870 0 0
0.0015702260 -0.0115091930 0 0
0.0044091910 -0.0137024850 0 0
0.0071841740 -0.0164934870 0 0
0.0096247890 -0.0195991420 0 0
0.0114921830 -0.0227032210 0 0
0.0126067910 -0.0254891240 0 0
0.0128695150 -0.0276722590 0 0
0.0122717060 -0.0290290090 0 0
0.0108920030 -0.0294193130 0 0
0.0088827030 -0.0288005860 0 0
0.0064502570 -0.0272314280 0 0
0.0038333390 -0.0248639290 0 0
0.0012808080 -0.0219248250 0 0
-0.0009689570 -0.0186890240 0 0
-0.0027066850 -0.0154510540 0 0
-0.0037684590 -0.0124981870 0 0
-0.0040494300 -0.0100860060 0 0
-0.0035146380 -0.0084164700 0 0
-0.0022059470 -0.0076193370 0 0
-0.0002432840 -0.0077394520 0 0
0.0021825710 -0.0087330650 0 0
0.0048272850 -0.0104739170 0 0
0.0074185270 -0.0127670480 0 0
0.0096853250 -0.0153683180 0 0
0.0113868460 -0.0180086920 0 0
0.0123384580 -0.0204212100 0 0
0.0124340990 -0.0223665800 0 0
0.0116613510 -0.0236534820 0 0
0.0101035010 -0.0241527460 0 0
0.0079262320 -0.0238070290 0 0
0.0053531270 -0.0226372240 0 0
0.0026375030 -0.0207447030 0 0
0.0000357548 -0.0183066780 0 0
-0.0022166420 -0.0155624060 0 0
-0.0039260340 -0.0127904710 0 0
-0.0049562680 -0.0102800120 0 0
-0.0052370660 -0.0083001230 0 0
-0.0047658250 -0.0070712320 0 0
-0.0036051890 -0.0067410710 0 0
-0.0018773380 -0.0073674430 0 0
0.0002457440 -0.0089097770 0 0
0.0025564860 -0.0112308110 0 0
0.0048298790 -0.0141090230 0 0
0.0068442820 -0.0172613020 0 0
0.0084031730 -0.0203734140 0 0
0.0093552780 -0.0231344520 0 0
0.0096100850 -0.0252711390 0 0
0.0091471840 -0.0265774350 0 0
0.0080189010 -0.0269350210 0 0
0.0063449260 -0.0263223810 0 0
0.0042986250 -0.0248130300 0 0
0.0020880920 -0.0225647740 0 0
-0.0000645327 -0.0198024860 0 0
-0.0019438620 -0.0167966340 0 0
-0.0033603590 -0.0138386480 0 0
-0.0041660630 -0.0112142270 0 0
-0.0042679430 -0.0091772040 0 0
-0.0036399310 -0.0079270070 0 0
-0.0023312860 -0.0075910700 0 0
-0.0004663260 -0.0082117660 0 0
0.0017676030 -0.0097383220 0 0
0.0041407340 -0.0120270570 0 0
0.0064034550 -0.0148535810 0 0
0.0083090550 -0.0179364210 0 0
0.0096389470 -0.0209675820 0 0
0.0102288930 -0.0236457020 0 0
0.0099899870 -0.0257085580 0 0
0.0089192510 -0.0269607410 0 0
0.0070988880 -0.0272917830 0 0
0.0046849370 -0.0266827390 0 0
0.0018868110 -0.0252029260 0 0
-0.0010580220 -0.0229997350 0 0
-0.0039077040 -0.0202834240 0 0
-0.0064345510 -0.0173079030 0 0
-0.0084409010 -0.0143487800 0 0
-0.0097753720 -0.0116799890 0 0
-0.0103475770 -0.0095498880 0 0
-0.0101361520 -0.0081582280 0 0
-0.0091876740 -0.0076366370 0 0
-0.0076091660 -0.0080355340 0 0
-0.0055588650 -0.0093190120 0 0
-0.0032362610 -0.0113675860 0 0
-0.0008677910 -0.0139885500 0 0
0.0013136440 -0.0169337960 0 0
0.0030918900 -0.0199239590 0 0
0.0042892530 -0.0226761830 0 0
0.0047851450 -0.0249319310 0 0
0.0045314800 -0.0264815630 0 0
0.0035630880 -0.0271834520 0 0
0.0019986760 -0.0269764180 0 0
0.0000285138 -0.0258850140 0 0
-0.0021107130 -0.0240176040 0 0
-0.0041688120 -0.0215568920 0 0
-0.0059144780 -0.0187425890 0 0
-0.0071590590 -0.0158475540 0 0
-0.0077688390 -0.0131513100 0 0
-0.0076698490 -0.0109146410 0 0
-0.0068510440 -0.0093561740 0 0
-0.0053671960 -0.0086308740 0 0
-0.0033380880 -0.0088126830 0 0
-0.0009401980 -0.0098852820 0 0
0.0016103560 -0.0117432560 0 0
0.0040810470 -0.0142029370 0 0
0.0062468050 -0.0170205930 0 0
0.0079102110 -0.0199160660 0 0
0.0089177900 -0.0226006480 0 0
0.0091744270 -0.0248070140 0 0
0.0086559840 -0.0263170460 0 0
0.0074158980 -0.0269830090 0 0
0.0055809300 -0.0267394370 0 0
0.0033364500 -0.0256061590 0 0
0.0009061920 -0.0236850590 0 0
-0.0014693940 -0.0211520020 0 0
-0.0035552030 -0.0182428430 0 0
-0.0051441740 -0.0152326710 0 0
-0.0060790380 -0.0124099430 0 0
-0.0062695930 -0.0100483180 0 0
-0.0057022000 -0.0083786790 0 0
-0.0044400120 -0.0075641390 0 0
-0.0026154970 -0.0076814590 0 0
-0.0004184070 -0.0087119400 0 0
0.0019200220 -0.0105432620 0 0
0.0041489770 -0.0129814240 0 0
0.0060270120 -0.0157702040 0 0
0.0073526240 -0.0186157010 0 0
0.0079868140 -0.0212144210 0 0
0.0078631390 -0.0232831180 0 0
0.0069891320 -0.0245879830 0 0
0.0054431050 -0.0249701070 0 0
0.0033655890 -0.0243632400 0 0
0.0009444810 -0.0228009400 0 0
-0.0016034040 -0.0204132330 0 0
-0.0040509260 -0.0174142140 0 0
-0.0061784820 -0.0140811560 0 0
-0.0077914240 -0.0107264280 0 0
-0.0087366490 -0.0076659890 0 0
-0.0089177090 -0.0051892030 0 0
-0.0083072120 -0.0035330120 0 0
-0.0069539690 -0.0028613900 0 0
-0.0049816940 -0.0032503730 0 0
-0.0025776300 -0.0046794480 0 0
0.0000271042 -0.0070306800 0 0
0.0025814160 -0.0100972670 0 0
0.0048394570 -0.0136020040 0 0
0.0065855020 -0.0172239100 0 0
0.0076554270 -0.0206301290 0 0
0.0079510170 -0.0235098530 0 0
0.0074465660 -0.0256062590 0 0
0.0061898880 -0.0267426290 0 0
0.0042985380 -0.0268398730 0 0
0.0019508690 -0.0259235650 0 0
-0.0006276320 -0.0241196080 0 0
-0.0031831100 -0.0216392320 0 0
-0.0054585290 -0.0187555340 0 0
-0.0072232510 -0.0157744230 0 0
-0.0083005640 -0.0130030380 0 0
-0.0085858550 -0.0107191740 0 0
-0.0080523670 -0.0091453070 0 0
-0.0067478470 -0.0084295520 0 0
-0.0047872480 -0.0086344570 0 0
-0.0023428520 -0.0097336180 0 0
0.0003691740 -0.0116158240 0 0
0.0031054150 -0.0140963590 0 0
0.0056145580 -0.0169347430 0 0
0.0076605400 -0.0198576900 0 0
0.0090485640 -0.0225857190 0 0
0.0096488300 -0.0248608820 0 0
0.0094127640 -0.0264717710 0 0
0.0083798550 -0.0272724400 0 0
0.0066748040 -0.0271940940 0 0
0.0044952520 -0.0262499630 0 0
0.0020911800 -0.0245336770 0 0
-0.0002622740 -0.0222108280 0 0
-0.0022960490 -0.0195038610 0 0
-0.0037785950 -0.0166722710 0 0
-0.0045427840 -0.0139901650 0 0
-0.0045036750 -0.0117215650 0 0
-0.0036646270 -0.0100940300 0 0
-0.0021122190 -0.0092730930 0 0
-0.0000019670 -0.0093413990 0 0
0.0024624630 -0.0102871530 0 0
0.0050528360 -0.0120051900 0 0
0.0075381730 -0.0143101630 0 0
0.0097021800 -0.0169580510 0 0
0.0113574770 -0.0196724880 0 0
0.0123584930 -0.0221739280 0 0
0.0126121020 -0.0242091950 0 0
0.0120845740 -0.0255774680 0 0
0.0108053050 -0.0261491780 0 0
0.0088680480 -0.0258764090 0 0
0.0064280460 -0.0247955070 0 0
0.0036919620 -0.0230230780 0 0
0.0008998960 -0.0207454110 0 0
-0.0016972350 -0.0182009630 0 0
-0.0038611610 -0.0156566450 0 0
-0.0053885920 -0.0133801820 0 0
-0.0061311640 -0.0116122810 0 0
-0.0060120320 -0.0105426430 0 0
-0.0050381160 -0.0102926190 0 0
-0.0033050340 -0.0109053880 0 0
-0.0009902890 -0.0123428890 0 0
0.0016662160 -0.0144881570 0 0
0.0043890240 -0.0171525190 0 0
0.0068950630 -0.0200889780 0 0
0.0089212890 -0.0230134940 0 0
0.0102522030 -0.0256330080 0 0
0.0107435410 -0.0276756240 0 0
0.0103371910 -0.0289180710 0 0
0.0090661180 -0.0292082230 0 0
0.0070501730 -0.0284824490 0 0
0.0044829810 -0.0267763950 0 0
0.0016105460 -0.0242256310 0 0
-0.0012958980 -0.0210535050 0 0
-0.0039691250 -0.0175476950 0 0
-0.0061733500 -0.0140302660 0 0
-0.0077261850 -0.0108256650 0 0
-0.0085125970 -0.0082284930 0 0
-0.0084908660 -0.0064722910 0 0
-0.0076932390 -0.0057029630 0 0
-0.0062234230 -0.0059623300 0 0
-0.0042496150 -0.0071856650 0 0
-0.0019902780 -0.0092133030 0 0
0.0003078230 -0.0118127930 0 0
0.0023965390 -0.0147063380 0 0
0.0040534590 -0.0175990220 0 0
0.0051044280 -0.0202055200 0 0
0.0054391490 -0.0222743150 0 0
0.0050201980 -0.0236085960 0 0
0.0038863410 -0.0240824580 0 0
0.0021500360 -0.0236504860 0 0
-0.0000120350 -0.0223494240 0 0
-0.0023766500 -0.0202930000 0 0
-0.0046991560 -0.0176625900 0 0
-0.0067413200 -0.0146947150 0 0
-0.0082960980 -0.0116636830 0 0
-0.0092074810 -0.0088577660 0 0
-0.0093863180 -0.0065503320 0 0
-0.0088206960 -0.0049703380 0 0
-0.0075769300 -0.0042772770 0 0
-0.0057888550 -0.0045440770 0 0
-0.0036372660 -0.0057498280 0 0
-0.0013249350 -0.0077829760 0 0
0.0009463250 -0.0104540200 0 0
0.0029921750 -0.0135150860 0 0
0.0046562440 -0.0166835090 0 0
0.0058181160 -0.0196674710 0 0
0.0064002860 -0.0221924750 0 0
0.0063722190 -0.0240269540 0 0
0.0057511310 -0.0250044340 0 0
0.0046023780 -0.0250400810 0 0
0.0030400500 -0.0241404360 0 0
0.0012235460 -0.0224049910 0 0
-0.0006536440 -0.0200182190 0 0
-0.0023824870 -0.0172320290 0 0
-0.0037618370 -0.0143402250 0 0
-0.0046236800 -0.0116478570 0 0
-0.0048550240 -0.0094392490 0 0
-0.0044109440 -0.0079482600 0 0
-0.0033173900 -0.0073337340 0 0
-0.0016670480 -0.0076633220 0 0
0.0003884080 -0.0089084000 0 0
0.0026493500 -0.0109500680 0 0
0.0048839600 -0.0135932470 0 0
0.0068500740 -0.0165857060 0 0
0.0083227430 -0.0196412160 0 0
0.0091235290 -0.0224672230 0 0
0.0091455260 -0.0247951350 0 0
0.0083690380 -0.0264085760 0 0
0.0068646690 -0.0271649320 0 0
0.0047836000 -0.0270076140 0 0
0.0023384810 -0.0259688650 0 0
-0.0002207250 -0.0241644490 0 0
-0.0026327140 -0.0217816940 0 0
-0.0046506680 -0.0190618220 0 0
-0.0060674370 -0.0162774510 0 0
-0.0067388890 -0.0137069730 0 0
-0.0066002090 -0.0116084000 0 0
-0.0056696240 -0.0101952440 0 0
-0.0040402370 -0.0096158790 0 0
-0.0018659000 -0.0099375420 0 0
0.0006543620 -0.0111370150 0 0
0.0032936260 -0.0131004660 0 0
0.0058179180 -0.0156333680 0 0
0.0080091760 -0.0184792790 0 0
0.0096851060 -0.0213450470 0 0
0.0107114810 -0.0239298690 0 0
0.0110076390 -0.0259555300 0 0
0.0105496940 -0.0271950870 0 0
0.0093741780 -0.0274973460 0 0
0.0075799670 -0.0268044010 0 0
0.0053241070 -0.0251595940 0 0
0.0028094560 -0.0227033470 0 0
0.0002651800 -0.0196559920 0 0
-0.0020772270 -0.0162908280 0 0
-0.0040084570 -0.0129036250 0 0
-0.0053633510 -0.0097838200 0 0
-0.0060387680 -0.0071894530 0 0
-0.0060047910 -0.0053257200 0 0
-0.0053057670 -0.0043275650 0 0
-0.0040507040 -0.0042480170 0 0
-0.0023966940 -0.0050537100 0 0
-0.0005301090 -0.0066279750 0 0
0.0013515030 -0.0087813900 0 0
0.0030558870 -0.0112694030 0 0
0.0044113220 -0.0138162640 0 0
0.0052811710 -0.0161433610 0 0
0.0055769230 -0.0179976920 0 0
0.0052684220 -0.0191754160 0 0
0.0043900720 -0.0195384650 0 0
0.0030408540 -0.0190257710 0 0
0.0013760830 -0.0176604670 0 0
-0.0004086220 -0.0155519520 0 0
-0.0020988750 -0.0128903710 0 0
-0.0034861220 -0.0099321020 0 0
-0.0043924040 -0.0069767940 0 0
-0.0046915350 -0.0043377490 0 0
-0.0043232410 -0.0023082300 0 0
-0.0032988990 -0.0011272300 0 0
-0.0016993330 -0.0009495020 0 0
0.0003349780 -0.0018252800 0 0
0.0026206710 -0.0036936910 0 0
0.0049527860 -0.0063908060 0 0
0.0071267640 -0.0096700490 0 0
0.0089575880 -0.0132306180 0 0
0.0102936720 -0.0167492170 0 0
0.0110260700 -0.0199115630 0 0
0.0110961680 -0.0224414870 0 0
0.0105028260 -0.0241258380 0 0
0.0093053280 -0.0248329830 0 0
0.0076182750 -0.0245228080 0 0
0.0055990130 -0.0232480430 0 0
0.0034319270 -0.0211482280 0 0
0.0013139390 -0.0184369480 0 0
-0.0005581130 -0.0153819310 0 0
-0.0020008860 -0.0122784930 0 0
-0.0028609680 -0.0094193930 0 0
-0.0030340990 -0.0070661660 0 0
-0.0024836320 -0.0054256020 0 0
-0.0012514730 -0.0046322440 0 0
0.0005441390 -0.0047368640 0 0
0.0027232210 -0.0057016570 0 0
0.0050651170 -0.0074037230 0 0
0.0073308320 -0.0096475380 0 0
0.0092855160 -0.0121849570 0 0
0.0107215810 -0.0147402060 0 0
0.0114806420 -0.0170374440 0 0
0.0114704370 -0.0188278450 0 0
0.0106744060 -0.0199124320 0 0
0.0091545930 -0.0201585540 0 0
0.0070482070 -0.0195105680 0 0
0.0045551060 -0.0179957760 0 0
0.0019152840 -0.0157247290 0 0
-0.0006182130 -0.0128838960 0 0
-0.0028039470 -0.0097202200 0 0
-0.0044326790 -0.0065189030 0 0
-0.0053462400 -0.0035759300 0 0
-0.0054551190 -0.0011670950 0 0
-0.0047503480 0.0004826470 0 0
-0.0033047320 0.0012243710 0 0
-0.0012634350 0.0010008600 0 0
0.0011726750 -0.0001489140 0 0
0.0037681550 -0.0020958020 0 0
0.0062762860 -0.0046348600 0 0
0.0084621260 -0.0075061470 0 0
0.0101241640 -0.0104204570 0 0
0.0111143760 -0.0130878470 0 0
0.0113547530 -0.0152457260 0 0
0.0108463000 -0.0166833790 0 0
0.0096673130 -0.0172610270 0 0
0.0079612870 -0.0169222280 0 0
0.0059176660 -0.0156986240 0 0
0.0037495650 -0.0137064430 0 0
0.0016724670 -0.0111350950 0 0
-0.0001134850 -0.0082291410 0 0
-0.0014371330 -0.0052656700 0 0
-0.0021670360 -0.0025290320 0 0
-0.0022217390 -0.0002841000 0 0
-0.0015812690 0.0012501790 0 0
-0.0002971700 0.0019239350 0 0
0.0015053370 0.0016729850 0 0
0.0036379830 0.0005261500 0 0
0.0058718570 -0.0013984180 0 0
0.0079651490 -0.0039071350 0 0
0.0096894970 -0.0067519470 0 0
0.0108524720 -0.0096548960 0 0
0.0113161470 -0.0123341420 0 0
0.0110104860 -0.0145300110 0 0
0.0099400500 -0.0160292290 0 0
0.0081837820 -0.0166851680 0 0
0.0058879360 -0.0164323700 0 0
0.0032519470 -0.0152943070 0 0
0.0005078480 -0.0133833860 0 0
-0.0021040020 -0.0108917930 0 0
-0.0043585680 -0.0080726160 0 0
-0.0060659190 -0.0052133630 0 0
-0.0070854000 -0.0026062020 0 0
-0.0073342440 -0.0005189480 0 0
-0.0067935820 0.0008308800 0 0
-0.0055136760 0.0012973460 0 0
-0.0036150080 0.0008204910 0 0
-0.0012811000 -0.0005678720 0 0
0.0012571260 -0.0027469060 0 0
0.0037436220 -0.0055171170 0 0
0.0059240440 -0.0086179760 0 0
0.0075732180 -0.0117526960 0 0
0.0085179350 -0.0146190370 0 0
0.0086522120 -0.0169427430 0 0
0.0079453020 -0.0185079960 0 0
0.0064433230 -0.0191793470 0 0
0.0042653610 -0.0189124430 0 0
0.0015943980 -0.0177541290 0 0
-0.0013378470 -0.0158345950 0 0
-0.0042726050 -0.0133540180 0 0
-0.0069503090 -0.0105640410 0 0
-0.0091376440 -0.0077435640 0 0
-0.0106520760 -0.0051704580 0 0
-0.0113812780 -0.0030934440 0 0
-0.0112945720 -0.0017086370 0 0
-0.0104441290 -0.0011434110 0 0
-0.0089562500 -0.0014476650 0 0
-0.0070149820 -0.0025911150 0 0
-0.0048413550 -0.0044656500 0 0
-0.0026723780 -0.0068930870 0 0
-0.0007425800 -0.0096396140 0 0
0.0007330960 -0.0124370400 0 0
0.0015782860 -0.0150083770 0 0
0.0016764000 -0.0170939400 0 0
0.0009892560 -0.0184752770 0 0
-0.0004332210 -0.0189959260 0 0
-0.0024564480 -0.0185782120 0 0
-0.0048780930 -0.0172346410 0 0
-0.0074541060 -0.0150716460 0 0
-0.0099272190 -0.0122828430 0 0
-0.0120537120 -0.0091302840 0 0
-0.0136270960 -0.0059159730 0 0
-0.0144970310 -0.0029491750 0 0
-0.0145817910 -0.0005150040 0 0
-0.0138747530 0.0011530100 0 0
-0.0124457900 0.0018956160 0 0
-0.0104365280 0.0016444240 0 0
-0.0080475680 0.0004305290 0 0
-0.0055172350 -0.0016159140 0 0
-0.0030943110 -0.0042762960 0 0
-0.0010101880 -0.0072659560 0 0
0.0005440620 -0.0102677820 0 0
0.0014333290 -0.0129712270 0 0
0.0015874240 -0.0151078290 0 0
0.0010050860 -0.0164767400 0 0
-0.0002461950 -0.0169591960 0 0
-0.0020360470 -0.0165242540 0 0
-0.0041848020 -0.0152275850 0 0
-0.0064831440 -0.0132033660 0 0
-0.0087126910 -0.0106496690 0 0
-0.0106643350 -0.0078093650 0 0
-0.0121554660 -0.0049487040 0 0
-0.0130469240 -0.0023344770 0 0
-0.0132574820 -0.0002104860 0 0
-0.0127730920 0.0012248310 0 0
-0.0116489790 0.0018366820 0 0
-0.0100033300 0.0015657020 0 0
-0.0080038650 0.0004329770 0 0
-0.0058509850 -0.0014604990 0 0
-0.0037597920 -0.0039398930 0 0
-0.0019407660 -0.0067692980 0 0
-0.0005795030 -0.0096713510 0 0
0.0001817590 -0.0123525720 0 0
0.0002580360 -0.0145331060 0 0
-0.0003707110 -0.0159781370 0 0
-0.0016585670 -0.0165255710 0 0
-0.0034976960 -0.0161045630 0 0
-0.0057250340 -0.0147430410 0 0
-0.0081321630 -0.0125650780 0 0
-0.0104811910 -0.0097787860 0 0
-0.0125284480 -0.0066546770 0 0
-0.0140539640 -0.0034962370 0 0
-0.0148894440 -0.0006078580 0 0
-0.0149372930 0.0017342970 0 0
-0.0141794200 0.0033065170 0 0
-0.0126782440 0.0039573760 0 0
-0.0105703050 0.0036227180 0 0
-0.0080518650 0.0023333390 0 0
-0.0053580670 0.0002127800 0 0
-0.0027388050 -0.0025349810 0 0
-0.0004342070 -0.0056454230 0 0
0.0013471740 -0.0088183380 0 0
0.0024450760 -0.0117462760 0 0
0.0027601540 -0.0141449910 0 0
0.0022644130 -0.0157830770 0 0
0.0010074790 -0.0165070460 0 0
-0.0008855730 -0.0162579210 0 0
-0.0032263560 -0.0150765180 0 0
-0.0057830210 -0.0130968250 0 0
-0.0083041050 -0.0105292610 0 0
-0.0105436590 -0.0076376390 0 0
-0.0122862100 -0.0047137730 0 0
-0.0133691540 -0.0020514280 0 0
-0.0136986230 0.0000805042 0 0
-0.0132565570 0.0014644020 0 0
-0.0121003830 0.0019562020 0 0
-0.0103573160 0.0015000060 0 0
-0.0082136670 0.0001333800 0 0
-0.0058990430 -0.0020171590 0 0
-0.0036652880 -0.0047501720 0 0
-0.0017600350 -0.0078107970 0 0
-0.0003970520 -0.0109163670 0 0
0.0002698390 -0.0137831920 0 0
0.0001619070 -0.0161522500 0 0
-0.0007214000 -0.0178118510 0 0
-0.0023072310 -0.0186161080 0 0
-0.0044585490 -0.0184985100 0 0
-0.0069871450 -0.0174792610 0 0
-0.0096697770 -0.0156648540 0 0
-0.0122657010 -0.0132392290 0 0
-0.0145356600 -0.0104468400 0 0
-0.0162646840 -0.0075686550 0 0
-0.0172879010 -0.0048933130 0 0
-0.0175122130 -0.0026870910 0 0
-0.0169257840 -0.0011667390 0 0
-0.0155940540 -0.0004782260 0 0
-0.0136480190 -0.0006831380 0 0
-0.0112704540 -0.0017532850 0 0
-0.0086810800 -0.0035733120 0 0
-0.0061193380 -0.0059512830 0 0
-0.0038246160 -0.0086375710 0 0
-0.0020151210 -0.0113509680 0 0
-0.0008668200 -0.0138083270 0 0
-0.0004947280 -0.0157529030 0 0
-0.0009392750 -0.0169780730 0 0
-0.0021591650 -0.0173455960 0 0
-0.0040315730 -0.0167987530 0 0
-0.0063622260 -0.0153696450 0 0
-0.0089071800 -0.0131782440 0 0
-0.0114027410 -0.0104213850 0 0
-0.0135960680 -0.0073526670 0 0
-0.0152706540 -0.0042562260 0 0
-0.0162645300 -0.0014177800 0 0
-0.0164813250 0.0009038470 0 0
-0.0158965570 0.0025018740 0 0
-0.0145618490 0.0032410550 0 0
-0.0126058230 0.0030696130 0 0
-0.0102267020 0.0020222930 0 0
-0.0076730250 0.0002144460 0 0
-0.0052146060 -0.0021709620 0 0
-0.0031109730 -0.0049006660 0 0
-0.0015833410 -0.0077114760 0 0
-0.0007908880 -0.0103340320 0 0
-0.0008117650 -0.0125190320 0 0
-0.0016334120 -0.0140621750 0 0
-0.0031568890 -0.0148235870 0 0
-0.0052141020 -0.0147398370 0 0
-0.0075902890 -0.0138283610 0 0
-0.0100449500 -0.0121848370 0 0
-0.0123314250 -0.0099750090 0 0
-0.0142178870 -0.0074221200 0 0
-0.0155089360 -0.0047891040 0 0
-0.0160649020 -0.0023546780 0 0
-0.0158164380 -0.0003848860 0 0
-0.0147722730 0.0008962880 0 0
-0.0130190560 0.0013328330 0 0
-0.0107131150 0.0008547690 0 0
-0.0080644990 -0.0005144770 0 0
-0.0053156810 -0.0026612670 0 0
-0.0027186560 -0.0053937170 0 0
-0.0005128060 -0.0084603930 0 0
0.0010955400 -0.0115741180 0 0
0.0019512100 -0.0144396140 0 0
0.0019652280 -0.0167829860 0 0
0.0011254650 -0.0183796210 0 0
-0.0004991710 -0.0190765940 0 0
-0.0027631590 -0.0188070750 0 0
-0.0054581440 -0.0175964710 0 0
-0.0083340870 -0.0155606420 0 0
-0.0111243850 -0.0128960180 0 0
-0.0135718060 -0.0098618610 0 0
-0.0154529480 -0.0067558170 0 0
-0.0165991790 -0.0038840620 0 0
-0.0169117970 -0.0015288830 0 0
-0.0163699200 0.0000814087 0 0
-0.0150311090 0.0007958560 0 0
-0.0130256520 0.0005554640 0 0
-0.0105454880 -0.0006017180 0 0
-0.0078280780 -0.0025457710 0 0
-0.0051350530 -0.0050701760 0 0
-0.0027265740 -0.0079148850 0 0
-0.0008342750 -0.0107936310 0 0
0.0003640670 -0.0134223080 0 0
0.0007648410 -0.0155460060 0 0
0.0003500040 -0.0169626320 0 0
-0.0008124310 -0.0175412750 0 0
-0.0025781870 -0.0172335820 0 0
-0.0047455080 -0.0160774310 0 0
-0.0070802600 -0.0141935640 0 0
-0.0093421110 -0.0117755460 0 0
-0.0113068230 -0.0090726760 0 0
-0.0127832820 -0.0063666570 0 0
-0.0136266560 -0.0039447220 0 0
-0.0137492150 -0.0020716900 0 0
-0.0131289090 -0.0009626660 0 0
-0.0118140420 -0.0007589110 0 0
-0.0099221790 -0.0015108010 0 0
-0.0076327980 -0.0031709310 0 0
-0.0051730440 -0.0055981440 0 0
-0.0027950600 -0.0085716590 0 0
-0.0007462340 -0.0118134880 0 0
0.0007609560 -0.0150166310 0 0
0.0015719280 -0.0178766980 0 0
0.0016031370 -0.0201239080 0 0
0.0008467350 -0.0215507840 0 0
-0.0006317970 -0.0220311150 0 0
-0.0027018920 -0.0215289700 0 0
-0.0051805080 -0.0200993480 0 0
-0.0078475800 -0.0178822750 0 0
-0.0104633670 -0.0150907760 0 0
-0.0127884910 -0.0119926700 0 0
-0.0146079830 -0.0088867870 0 0
-0.0157565240 -0.0060751610 0 0
-0.0161385090 -0.0038337010 0 0
-0.0157391280 -0.0023844080 0 0
-0.0146260400 -0.0018719470 0 0
-0.0129414710 -0.0023468180 0 0
-0.0108850220 -0.0037576040 0 0
-0.0086897070 -0.0059547930 0 0
-0.0065955270 -0.0087068630 0 0
-0.0048249810 -0.0117263180 0 0
-0.0035630330 -0.0147014790 0 0
-0.0029418940 -0.0173296300 0 0
-0.0030302070 -0.0193474710 0 0
-0.0038268510 -0.0205553130 0 0
-0.0052606190 -0.0208329070 0 0
-0.0071973360 -0.0201468030 0 0
-0.0094545750 -0.0185503110 0 0
-0.0118217160 -0.0161769110 0 0
-0.0140807690 -0.0132279480 0 0
-0.0160234790 -0.0099559920 0 0
-0.0174644280 -0.0066444770 0 0
-0.0182537510 -0.0035829850 0 0
-0.0182917360 -0.0010387910 0 0
-0.0175435660 0.0007714010 0 0
-0.0160503060 0.0017042350 0 0
-0.0139323460 0.0017036340 0 0
-0.0113816680 0.0008050920 0 0
-0.0086409310 -0.0008691120 0 0
-0.0059731960 -0.0031226100 0 0
-0.0036301990 -0.0057041910 0 0
-0.0018252530 -0.0083323940 0 0
-0.0007137420 -0.0107235060 0 0
-0.0003820320 -0.0126197650 0 0
-0.0008438150 -0.0138148330 0 0
-0.0020425180 -0.0141749190 0 0
-0.0038583120 -0.0136538340 0 0
-0.0061182110 -0.0122986540 0 0
-0.0086086290 -0.0102435740 0 0
-0.0110909050 -0.0076938080 0 0
-0.0133208360 -0.0049040220 0 0
-0.0150725880 -0.0021542170 0 0
-0.0161644380 0.0002761470 0 0
-0.0164809870 0.0021347520 0 0
-0.0159869320 0.0032215400 0 0
-0.0147301760 0.0034095850 0 0
-0.0128342480 0.0026588980 0 0
-0.0104818650 0.0010211400 0 0
-0.0078939020 -0.0013651220 0 0
-0.0053081580 -0.0042878550 0 0
-0.0029590620 -0.0074823450 0 0
-0.0010575770 -0.0106570320 0 0
0.0002284750 -0.0135209380 0 0
0.0007916400 -0.0158094110 0 0
0.0005960620 -0.0173070840 0 0
-0.0003203240 -0.0178683110 0 0
-0.0018524270 -0.0174340480 0 0
-0.0038402410 -0.0160420800 0 0
-0.0060839430 -0.0138267430 0 0
-0.0083616180 -0.0110058600 0 0
-0.0104495150 -0.0078566750 0 0
-0.0121434250 -0.0046859220 0 0
-0.0132788020 -0.0017988350 0 0
-0.0137460750 0.0005303170 0 0
-0.0134988980 0.0020843540 0 0
-0.0125571800 0.0027238560 0 0
-0.0110073980 0.0023999660 0 0
-0.0089988750 0.0011572910 0 0
-0.0067329600 -0.0008731910 0 0
-0.0044440900 -0.0034887650 0 0
-0.0023741530 -0.0064342890 0 0
-0.0007436160 -0.0094248980 0 0
0.0002750230 -0.0121717250 0 0
0.0005762140 -0.0144091380 0 0
0.0001306400 -0.0159203840 0 0
-0.0010139950 -0.0165585870 0 0
-0.0027384190 -0.0162608830 0 0
-0.0048625980 -0.0150543520 0 0
-0.0071622680 -0.0130537810 0 0
-0.0093907580 -0.0104521190 0 0
-0.0113037940 -0.0075040920 0 0
-0.0126845450 -0.0045031840 0 0
-0.0133670800 -0.0017530430 0 0
-0.0132560870 0.0004639790 0 0
-0.0123393720 0.0019174410 0 0
-0.0106897750 0.0024545200 0 0
-0.0084556690 0.0020167090 0 0
-0.0058422680 0.0006446230 0 0
-0.0030876490 -0.0015288970 0 0
-0.0004379580 -0.0042943950 0 0
0.0018747090 -0.0073868960 0 0
0.0036511710 -0.0105107180 0 0
0.0047418980 -0.0133669700 0 0
0.0050613650 -0.0156821360 0 0
0.0045978780 -0.0172354160 0 0
0.0034163320 -0.0178814720 0 0
0.0016520720 -0.0175648780 0 0
-0.0005035940 -0.0163239970 0 0
-0.0028234230 -0.0142848990 0 0
-0.0050674250 -0.0116480060 0 0
-0.0070075530 -0.0086693240 0 0
-0.0084513870 -0.0056362710 0 0
-0.0092620410 -0.0028391020 0 0
-0.0093720240 -0.0005419620 0 0
-0.0087893200 0.0010421180 0 0
-0.0075948830 0.0017707420 0 0
-0.0059320410 0.0015858270 0 0
-0.0039896970 0.0005195660 0 0
-0.0019821320 -0.0013094280 0 0
-0.0001287200 -0.0037093850 0 0
0.0013641880 -0.0064353280 0 0
0.0023196030 -0.0092129050 0 0
0.0026057790 -0.0117642970 0 0
0.0021508690 -0.0138345670 0 0
0.0009538240 -0.0152159720 0 0
-0.0009109640 -0.0157676350 0 0
-0.0032974160 -0.0154290630 0 0
-0.0060014170 -0.0142270250 0 0
-0.0087828600 -0.0122752470 0 0
-0.0113913420 -0.0097659730 0 0
-0.0135913970 -0.0069525980 0 0
-0.0151852300 -0.0041239520 0 0
-0.0160307120 -0.0015728720 0 0
-0.0160527810 0.0004362640 0 0
-0.0152486010 0.0016957130 0 0
-0.0136875010 0.0020745230 0 0
-0.0115055210 0.0015294340 0 0
-0.0088939020 0.0001067820 0 0
-0.0060823440 -0.0020637220 0 0
-0.0033193770 -0.0047819020 0 0
-0.0008517120 -0.0077952960 0 0
0.0010967940 -0.0108220840 0 0
0.0023452950 -0.0135777120 0 0
0.0027730570 -0.0158023420 0 0
0.0023320360 -0.0172859170 0 0
0.0010540200 -0.0178890390 0 0
-0.0009493920 -0.0175582590 0 0
-0.0034951650 -0.0163333620 0 0
-0.0063446430 -0.0143443020 0 0
-0.0092257370 -0.0117975130 0 0
-0.0118612590 -0.0089539400 0 0
-0.0140006370 -0.0061021910 0 0
-0.0154483900 -0.0035294550 0 0
-0.0160828970 -0.0014926360 0 0
-0.0158637290 -0.0001928840 0 0
-0.0148311220 0.0002432960 0 0
-0.0131013170 -0.0002256720 0 0
-0.0108572010 -0.0015548490 0 0
-0.0083321780 -0.0036185070 0 0
-0.0057878110 -0.0062216000 0 0
-0.0034879930 -0.0091161980 0 0
-0.0016729500 -0.0120227300 0 0
-0.0005360290 -0.0146556220 0 0
-0.0002040480 -0.0167510660 0 0
-0.0007213170 -0.0180928780 0 0
-0.0020405870 -0.0185329250 0 0
-0.0040257770 -0.0180046840 0 0
-0.0064674420 -0.0165300630 0 0
-0.0091073730 -0.0142197370 0 0
-0.0116672280 -0.0112664470 0 0
-0.0138771900 -0.0079298280 0 0
-0.0155030420 -0.0045121360 0 0
-0.0163706460 -0.0013266620 0 0
-0.0163845570 0.0013366610 0 0
-0.0155369880 0.0032429850 0 0
-0.0139062790 0.0042367780 0 0
-0.0116465140 0.0042559460 0 0
-0.0089707160 0.0033358390 0 0
-0.0061300270 0.0016043450 0 0
-0.0033902940 -0.0007313310 0 0
-0.0010071240 -0.0034059030 0 0
0.0007986970 -0.0061235220 0 0
0.0018629810 -0.0085879100 0 0
0.0020944980 -0.0105312850 0 0
0.0014837570 -0.0117401150 0 0
0.0001035560 -0.0120767540 0 0
-0.0018987260 -0.0114946000 0 0
-0.0043170790 -0.0100435750 0 0
-0.0069093790 -0.0078643050 0 0
-0.0094224080 -0.0051720440 0 0
-0.0116157830 -0.0022331110 0 0
-0.0132837880 0.0006629530 0 0
-0.0142744910 0.0032325000 0 0
-0.0145040140 0.0052250640 0 0
-0.0139643760 0.0064461500 0 0
-0.0127244050 0.0067741550 0 0
-0.0109227120 0.0061708690 0 0
-0.0087528200 0.0046845740 0 0
-0.0064432810 0.0024448570 0 0
-0.0042354150 -0.0003502630 0 0
-0.0023595580 -0.0034531970 0 0
-0.0010117770 -0.0065899200 0 0
-0.0003345970 -0.0094854080 0 0
-0.0004041220 -0.0118888270 0 0
-0.0012235040 -0.0135957690 0 0
-0.0027224530 -0.0144656650 0 0
-0.0047632660 -0.0144335400 0 0
-0.0071531280 -0.0135161360 0 0
-0.0096615410 -0.0118126440 0 0
-0.0120420880 -0.0094990980 0 0
-0.0140568300 -0.0068143310 0 0
-0.0155001460 -0.0040370710 0 0
-0.0162190320 -0.0014571730 0 0
-0.0161280440 0.0006542040 0 0
-0.0152175330 0.0020718240 0 0
-0.0135546060 0.0026389670 0 0
-0.0112772660 0.0022831230 0 0
-0.0085821940 0.0010223470 0 0
-0.0057066890 -0.0010381560 0 0
-0.0029061280 -0.0037172380 0 0
-0.0004293180 -0.0067746140 0 0
0.0015054460 -0.0099316520 0 0
0.0027307690 -0.0128947200 0 0
0.0031448820 -0.0153804610 0 0
0.0027198650 -0.0171431360 0 0
0.0015036180 -0.0180023670 0 0
-0.0003834900 -0.0178665100 0 0
-0.0027572310 -0.0167458510 0 0
-0.0053856880 -0.0147522160 0 0
-0.0080144790 -0.0120858170 0 0
-0.0103965750 -0.0090132500 0 0
-0.0123186380 -0.0058411030 0 0
-0.0136193070 -0.0028877160 0 0
-0.0142005130 -0.0004536850 0 0
-0.0140344370 0.0012081880 0 0
-0.0131667040 0.0019207950 0 0
-0.0117138920 0.0016038730 0 0
-0.0098531240 0.0002839900 0 0
-0.0078034970 -0.0019086110 0 0
-0.0058015090 -0.0047552290 0 0
-0.0040747760 -0.0079728550 0 0
-0.0028185570 -0.0112437050 0 0
-0.0021775220 -0.0142473470 0 0
-0.0022330770 -0.0166931560 0 0
-0.0029964800 -0.0183499140 0 0
-0.0044082300 -0.0190684550 0 0
-0.0063434890 -0.0187945480 0 0
-0.0086222130 -0.0175715510 0 0
-0.0110235080 -0.0155337030 0 0
-0.0133054380 -0.0128911830 0 0
-0.0152299830 -0.0099085090 0 0
-0.0165891880 -0.0068788310 0 0
-0.0172278600 -0.0040966950 0 0
-0.0170609340 -0.0018312320 0 0
-0.0160841170 -0.0003014470 0 0
-0.0143748500 0.0003447430 0 0
-0.0120821920 0.0000458637 0 0
-0.0094085130 -0.0011655930 0 0
-0.0065878200 -0.0031652890 0 0
-0.0038636840 -0.0057491550 0 0
-0.0014671970 -0.0086543300 0 0
0.0004042880 -0.0115862100 0 0
0.0016044730 -0.0142482080 0 0
0.0020488750 -0.0163713010 0 0
0.0017199540 -0.0177407770 0 0
0.0006692330 -0.0182177160 0 0
-0.0009834540 -0.0177530370 0 0
-0.0030562940 -0.0163919510 0 0
-0.0053199220 -0.0142676890 0 0
-0.0075206830 -0.0115862600 0 0
-0.0094108600 -0.0086054910 0 0
-0.0107799970 -0.0056106270 0 0
-0.0114794290 -0.0028878750 0 0
-0.0114357470 -0.0006976350 0 0
-0.0106541340 0.0007497290 0 0
-0.0092137640 0.0013125090 0 0
-0.0072564620 0.0009296490 0 0
-0.0049705460 -0.0003731930 0 0
-0.0025730610 -0.0024836710 0 0
-0.0002919920 -0.0052108880 0 0
0.0016521580 -0.0083037120 0 0
0.0030644780 -0.0114780240 0 0
0.0037909170 -0.0144470860 0 0
0.0037309890 -0.0169491170 0 0
0.0028502890 -0.0187699290 0 0
0.0011918590 -0.0197606640 0 0
-0.0011184650 -0.0198505750 0 0
-0.0038772490 -0.0190545030 0 0
-0.0068204510 -0.0174743670 0 0
-0.0096505920 -0.0152934660 0 0
-0.0120703230 -0.0127622750 0 0
-0.0138167510 -0.0101757170 0 0
-0.0146898730 -0.0078446800 0 0
-0.0145707910 -0.0060660300 0 0
-0.0134296910 -0.0050939890 0 0
-0.0113250570 -0.0051143520 0 0
-0.0083944780 -0.0062240100 0 0
-0.0048382380 -0.0084196990 0 0
-0.0008990890 -0.0115989390 0 0
0.0031593400 -0.0155728160 0 0
0.0070755340 -0.0200876050 0 0
0.0106141710 -0.0248515240 0 0
0.0135886870 -0.0295636680 0 0
0.0158789870 -0.0339430400 0 -1
0.0174420540 -0.0377560110 0 -1
0.0183148940 -0.0408401340 0 -1
0.0186104400 -0.0431213920 0 -1
0.0185072100 -0.0446218510 0 -1
0.0182330910 -0.0454557440 0 -1
0.0180432820 -0.0458144870 0 -1
0.0181936400 -0.0459436360 0 -1
0.0189126140 -0.0461159370 0 -1
0.0203754330 -0.0466035810 0 -1
0.0226838340 -0.0476511700 0 -1
0.0258545010 -0.0494505080 0 -1
0.0298183180 -0.0521191680 0 -1
0.0344302140 -0.0556852360 1 -1
0.0394876420 -0.0600804520 1 -1
0.0447544000 -0.0651430660 1 -1
0.0499857020 -0.0706304570 1 -1
0.0549517280 -0.0762411070 1 -1
0.0594588800 -0.0816451020 1 -1
0.0633671900 -0.0865197980 1 -1
0.0666004980 -0.0905848390 1 -1
0.0691485610 -0.0936314500 1 -1
0.0710647460 -0.0955432110 1 -1
0.0724615660 -0.0963065030 1 -1
0.0735016800 -0.0960099820 1 -1
0.0743819620 -0.0948343630 1 -1
0.0753125140 -0.0930345690 1 -1
0.0764949480 -0.0909156180 1 -1
0.0781025740 -0.0888036270 1 -1
0.0802629160 -0.0870143670 1 -1
0.0830438070 -0.0858225420 1 -1
0.0864452120 -0.0854352270 1 -1
0.0903974390 -0.0859731220 1 -1
0.0947651050 -0.0874620230 1 -1
0.0993566420 -0.0898344420 1 -1
0.1039400380 -0.0929396900 1 -1
0.1082654490 -0.0965604000 1 -1
0.1120927700 -0.1004334370 1 -1
0.1152184880 -0.1042734020 1 -1
0.1174959770 -0.1077973430 1 -1
0.1188471690 -0.1107489200 1 -1
0.1192664120 -0.1129202640 1 -1
0.1188176000 -0.1141705980 1 -1
0.1176263060 -0.1144401800 1 -1
0.1158693860 -0.1137572420 1 -1
0.1137624120 -0.1122367830 1 -1
0.1115426740 -0.1100715800 1 -1
0.1094468710 -0.1075154310 1 -1
0.1076869120 -0.1048589620 1 -1
0.1064293290 -0.1024005230 1 -1
0.1057812820 -0.1004160810 1 -1
0.1057826820 -0.0991312440 1 -1
0.1064040810 -0.0986975780 1 -1
0.1075509170 -0.0991760140 1 -1
0.1090732060 -0.1005301950 1 -1
0.1107792610 -0.1026307240 1 -1
0.1124535350 -0.1052691590 1 -1
0.1138790350 -0.1081798910 1 -1
0.1148622810 -0.1110677820 1 -1
0.1152555160 -0.1136388430 1 -1
0.1149709050 -0.1156308490 1 -1
0.1139860630 -0.1168403640 1 -1
0.1123438640 -0.1171429760 1 -1
0.1101486280 -0.1165046940 1 -1
0.1075585010 -0.1149835000 1 -1
0.1047730490 -0.1127209110 1 -1
0.1020156020 -0.1099254770 1 -1
0.0995107850 -0.1068521160 1 -1
0.0974592470 -0.1037799880 1 -1
0.0960142510 -0.1009889430 1 -1
0.0952654720 -0.0987344700 1 -1
0.0952328710 -0.0972229990 1 -1
0.0958702690 -0.0965903130 1 -1
0.0970757760 -0.0968860460 1 -1
0.0987046100 -0.0980675240 1 -1
0.1005807220 -0.1000048610 1 -1
0.1025075550 -0.1024959160 1 -1
0.1042809030 -0.1052874370 1 -1
0.1057054120 -0.1080993420 1 -1
0.1066132280 -0.1106506010 1 -1
0.1068815100 -0.1126854550 1 -1
0.1064459540 -0.1139977450 1 -1
0.1053090780 -0.1144506830 1 -1
0.1035426610 -0.1139901570 1 -1
0.1012831460 -0.1126508940 1 -1
0.0987197000 -0.1105547360 1 -1
0.0960767030 -0.1078996090 1 -1
0.0935923950 -0.1049394070 1 -1
0.0914944280 -0.1019584050 1 -1
0.0899743790 -0.0992443390 1 -1
0.0891655660 -0.0970614420 1 -1
0.0891278520 -0.0956241110 1 -1
0.0898406950 -0.0950739190 1 -1
0.0912041450 -0.0954636750 1 -1
0.0930473930 -0.0967514670 1 -1
0.0951450030 -0.0988057400 1 -1
0.0972403540 -0.1014197990 1 -1
0.0990739650 -0.1043327490 1 -1
0.1004128880 -0.1072549720 1 -1
0.1010769140 -0.1098967340 1 -1
0.1009583920 -0.1119972350 1 -1
0.1000338180 -0.1133504110 1 -1
0.0983657610 -0.1138244270 1 -1
0.0960945710 -0.1133729330 1 -1
0.0934210540 -0.1120374730 1 -1
0.0905827580 -0.1099422670 1 -1
0.0878276810 -0.1072829760 1 -1
0.0853894630 -0.1043095960 1 -1
0.0834664520 -0.1013035950 1 -1
0.0822046280 -0.0985512070 1 -1
0.0816848400 -0.0963157990 1 -1
0.0819169380 -0.0948118540 1 -1
0.0828419990 -0.0941829360 1 -1
0.0843403240 -0.0944863940 1 -1
0.0862425170 -0.0956872830 1 -1
0.0883430370 -0.0976624360 1 -1
0.0904167910 -0.1002137180 1 -1
0.0922386660 -0.1030881730 1 -1
0.0936046170 -0.1060026670 1 -1
0.0943526260 -0.1086708800 1 -1
0.0943816580 -0.1108300360 1 -1
0.0936657350 -0.1122645850 1 -1
0.0922598200 -0.1128253580 1 -1
0.0902952790 -0.1124439440 1 -1
0.0879646700 -0.1111414000 1 -1
0.0854978470 -0.1090291730 1 -1
0.0831337120 -0.1063006480 1 -1
0.0810937290 -0.1032135390 1 -1
0.0795617380 -0.1000643530 1 -1
0.0786703160 -0.0971574450 1 -1
0.0784919050 -0.0947732250 1 -1
0.0790336540 -0.0931402940 1 -1
0.0802362140 -0.0924142810 1 -1
0.0819780230 -0.0926641920 1 -1
0.0840861060 -0.0938664770 1 -1
0.0863522870 -0.0959073400 1 -1
0.0885531510 -0.0985934690 1 -1
0.0904724640 -0.1016701530 1 -1
0.0919234660 -0.1048453600 1 -1
0.0927674460 -0.1078178650 1 -1
0.0929264500 -0.1103058420 1 -1
0.0923895330 -0.1120723240 1 -1
0.0912120600 -0.1129462840 1 -1
0.0895079440 -0.1128392150 1 -1
0.0874368980 -0.1117559580 1 -1
0.0851900100 -0.1097973000 1 -1
0.0829748060 -0.1071525450 1 -1
0.0809985090 -0.1040819560 1 -1
0.0794496040 -0.1008904360 1 -1
0.0784805220 -0.0978951390 1 -1
0.0781931690 -0.0953912350 1 -1
0.0786269100 -0.0936204430 1 -1
0.0797502330 -0.0927458810 1 -1
0.0814596460 -0.0928357500 1 -1
0.0835878500 -0.0938582120 1 -1
0.0859206250 -0.0956882890 1 -1
0.0882199740 -0.0981245500 1 -1
0.0902499220 -0.1009114390 1 -1
0.0918014730 -0.1037640770 1 -1
0.0927140920 -0.1063940580 1 -1
0.0928911530 -0.1085351190 1 -1
0.0923072740 -0.1099672080 1 -1
0.0910073310 -0.1105375110 1 -1
0.0890985270 -0.1101767980 1 -1
0.0867378370 -0.1089089070 1 -1
0.0841179220 -0.1068511750 1 -1
0.0814530030 -0.1042045590 1 -1
0.0789629470 -0.1012337860 1 -1
0.0768541240 -0.0982397290 1 -1
0.0752992070 -0.0955275820 1 -1
0.0744196010 -0.0933743500 1 -1
0.0742725800 -0.0919988120 1 -1
0.0748440060 -0.0915380080 1 -1
0.0760478780 -0.0920342930 1 -1
0.0777336180 -0.0934341030 1 -1
0.0797003640 -0.0955964480 1 -1
0.0817162100 -0.0983086160 1 -1
0.0835401320 -0.1013071420 1 -1
0.0849453460 -0.1043025140 1 -1
0.0857437530 -0.1070062380 1 -1
0.0858094740 -0.1091585700 1 -1
0.0850965740 -0.1105546080 1 -1
0.0836465250 -0.1110658720 1 -1
0.0815843150 -0.1106545000 1 -1
0.0791046720 -0.1093777560 1 -1
0.0764510250 -0.1073814480 1 -1
0.0738904240 -0.1048828220 1 -1
0.0716865930 -0.1021459700 1 -1
0.0700723180 -0.0994537190 1 -1
0.0692237650 -0.0970793900 1 -1
0.0692410770 -0.0952613180 1 -1
0.0701378260 -0.0941822920 1 -1
0.0718389580 -0.0939549590 1 -1
0.0741867990 -0.0946128050 1 -1
0.0769556240 -0.0961061130 1 -1
0.0798741120 -0.0983037630 1 -1
0.0826529790 -0.1010028810 1 -1
0.0850147020 -0.1039474630 1 -1
0.0867225220 -0.1068545900 1 -1
0.0876048730 -0.1094443830 1 -1
0.0875715150 -0.1114689300 1 -1
0.0866202980 -0.1127361540 1 -1
0.0848352050 -0.1131264420 1 -1
0.0823759110 -0.1126018440 1 -1
0.0794602670 -0.1112086740 1 -1
0.0763428330 -0.1090739080 1 -1
0.0732917000 -0.1063957130 1 -1
0.0705642150 -0.1034282070 1 -1
0.0683832210 -0.1004600210 1 -1
0.0669173990 -0.0977874630 1 -1
0.0662683670 -0.0956855040 1 -1
0.0664639960 -0.0943805570 1 -1
0.0674560110 -0.0940274020 1 -1
0.0691221000 -0.0946914900 1 -1
0.0712750950 -0.0963389240 1 -1
0.0736808050 -0.0988376790 1 -1
0.0760828570 -0.1019717750 1 -1
0.0782304370 -0.1054656110 1 -1
0.0799044910 -0.1090127440 1 -1
0.0809387190 -0.1123047470 1 -1
0.0812330310 -0.1150587880 1 -1
0.0807594690 -0.1170431600 1 -1
0.0795623560 -0.1180986930 1 -1
0.0777535580 -0.1181539080 1 -1
0.0755025800 -0.1172325730 1 -1
0.0730216090 -0.1154524450 1 -1
0.0705464340 -0.1130138660 1 -1
0.0683144840 -0.1101785060 1 -1
0.0665415540 -0.1072415530 1 -1
0.0653992670 -0.1045022660 1 -1
0.0649957980 -0.1022365000 1 -1
0.0653625610 -0.1006723260 1 -1
0.0664494720 -0.0999689310 1 -1
0.0681307680 -0.1001999640 1 -1
0.0702205170 -0.1013440450 1 -1
0.0724932090 -0.1032855970 1 -1
0.0747056520 -0.1058272770 1 -1
0.0766204950 -0.1087121860 1 -1
0.0780311090 -0.1116517340 1 -1
0.0787825000 -0.1143552150 1 -1
0.0787832030 -0.1165585000 1 -1
0.0780096270 -0.1180498900 1 -1
0.0765074350 -0.1186906970 1 -1
0.0743907560 -0.1184280050 1 -1
0.0718355650 -0.1172978090 1 -1
0.0690643080 -0.1154191360 1 -1
0.0663236900 -0.1129816840 1 -1
0.0638603890 -0.1102286890 1 -1
0.0618977500 -0.1074352540 1 -1
0.0606144540 -0.1048827230 1 -1
0.0601264880 -0.1028310420 1 -1
0.0604743410 -0.1014917050 1 -1
0.0616168750 -0.1010044010 1 -1
0.0634335140 -0.1014206720 1 -1
0.0657368500 -0.1026971470 1 -1
0.0682946620 -0.1046995780 1 -1
0.0708554960 -0.1072178310 1 -1
0.0731721490 -0.1099900120 1 -1
0.0750228060 -0.1127314930 1 -1
0.0762317990 -0.1151639710 1 -1
0.0766890250 -0.1170415710 1 -1
0.0763639590 -0.1181728210 1 -1
0.0753098120 -0.1184376480 1 -1
0.0736556580 -0.1177984810 1 -1
0.0715884460 -0.1163045770 1 -1
0.0693298550 -0.1140886230 1 -1
0.0671125780 -0.1113548330 1 -1
0.0651582970 -0.1083589030 1 -1
0.0636586300 -0.1053817770 1 -1
0.0627601580 -0.1027005080 1 -1
0.0625527610 -0.1005604450 1 -1
0.0630599290 -0.0991521350 1 -1
0.0642330920 -0.0985946580 1 -1
0.0659541440 -0.0989264650 1 -1
0.0680472590 -0.1001041080 1 -1
0.0702972390 -0.1020077730 1 -1
0.0724711610 -0.1044520700 1 -1
0.0743416670 -0.1072017280 1 -1
0.0757102090 -0.1099922720 1 -1
0.0764271800 -0.1125541530 1 -1
0.0764061330 -0.1146375110 1 -1
0.0756314820 -0.1160351600 1 -1
0.0741603240 -0.1166025760 1 -1
0.0721181400 -0.1162737720 1 -1
0.0696873960 -0.1150708590 1 -1
0.0670892430 -0.1131047540 1 -1
0.0645609390 -0.1105658950 1 -1
0.0623325650 -0.1077060020 1 -1
0.0606057090 -0.1048131550 1 -1
0.0595354340 -0.1021826300 1 -1
0.0592160750 -0.1000863450 1 -1
0.0596716920 -0.0987443850 1 -1
0.0608531000 -0.0983022710 1 -1
0.0626426780 -0.0988167670 1 -1
0.0648657920 -0.1002510910 1 -1
0.0673070070 -0.1024786830 1 -1
0.0697301140 -0.1052946860 1 -1
0.0719004440 -0.1084348400 1 -1
0.0736070790 -0.1116005160 1 -1
0.0746833380 -0.1144872760 1 -1
0.0750244140 -0.1168141140 1 -1
0.0745995210 -0.1183508490 1 -1
0.0734548910 -0.1189416320 1 -1
0.0717066280 -0.1185222250 1 -1
0.0695266900 -0.1171277350 1 -1
0.0671262360 -0.1148887220 1 -1
0.0647378040 -0.1120170140 1 -1
0.0625953090 -0.1087840350 1 -1
0.0609113970 -0.1054940350 1 -1
0.0598542890 -0.1024547440 1 -1
0.0595280780 -0.0999486990 1 -1
0.0599599670 -0.0982074780 1 -1
0.0610965720 -0.0973894450 1 -1
0.0628095960 -0.0975624660 1 -1
0.0649099040 -0.0986949740 1 -1
0.0671686840 -0.1006582540 1 -1
0.0693430010 -0.1032404890 1 -1
0.0712019540 -0.1061706840 1 -1
0.0725509250 -0.1091488820 1 -1
0.0732521490 -0.1118781550 1 -1
0.0732389180 -0.1140941930 1 -1
0.0725209250 -0.1155896570 1 -1
0.0711803050 -0.1162319580 1 -1
0.0693604310 -0.1159738720 1 -1
0.0672503330 -0.1148561860 1 -1
0.0650662330 -0.1130014220 1 -1
0.0630312240 -0.1105990410 1 -1
0.0613549010 -0.1078849330 1 -1
0.0602145420 -0.1051182050 1 -1
0.0597390430 -0.1025568620 1 -1
0.0599967890 -0.1004342930 1 -1
0.0609881680 -0.0989391560 1 -1
0.0626441130 -0.0981999890 1 -1
0.0648325820 -0.0982745950 1 -1
0.0673719440 -0.0991445460 1 -1
0.0700473340 -0.1007157140 1 -1
0.0726281520 -0.1028252400 1 -1
0.0748878780 -0.1052543630 1 -1
0.0766260680 -0.1077464460 1 -1
0.0776890940 -0.1100301130 1 -1
0.0779855060 -0.1118463290 1 -1
0.0774942530 -0.1129761400 1 -1
0.0762661150 -0.1132657050 1 -1
0.0744185550 -0.1126459720 1 -1
0.0721240770 -0.1111439400 1 -1
0.0695934690 -0.1088826860 1 -1
0.0670564460 -0.1060693290 1 -1
0.0647415390 -0.1029728290 1 -1
0.0628556160 -0.0998953490 1 -1
0.0615637710 -0.0971409730 1 -1
0.0609721990 -0.0949844730 1 -1
0.0611170940 -0.0936425060 1 -1
0.0619610150 -0.0932501690 1 -1
0.0633969930 -0.0938459670 1 -1
0.0652595050 -0.0953676770 1 -1
0.0673402410 -0.0976599620 1 -1
0.0694068530 -0.1004919190 1 -1
0.0712242010 -0.1035810760 1 -1
0.0725777400 -0.1066211710 1 -1
0.0732969400 -0.1093121840 1 -1
0.0732750560 -0.1113901730 1 -1
0.0724820550 -0.1126529750 1 -1
0.0709690490 -0.1129786390 1 -1
0.0688635320 -0.1123352630 1 -1
0.0663553320 -0.1107819730 1 -1
0.0636753410 -0.1084618440 1 -1
0.0610709900 -0.1055882480 1 -1
0.0587812750 -0.1024254500 1 -1
0.0570125590 -0.0992639760 1 -1
0.0559174420 -0.0963929630 1 -1
0.0555792000 -0.0940730980 1 -1
0.0560033120 -0.0925130070 1 -1
0.0571180390 -0.0918506240 1 -1
0.0587851470 -0.0921405510 1 -1
0.0608178660 -0.0933486140 1 -1
0.0630007790 -0.0953548060 1 -1
0.0651084860 -0.0979649590 1 -1
0.0669228500 -0.1009296960 1 -1
0.0682498050 -0.1039680020 1 -1
0.0689371190 -0.1067928690 1 -1
0.0688926700 -0.1091371910 1 -1
0.0680990110 -0.1107784140 1 -1
0.0666191340 -0.1115603370 1 -1
0.0645909700 -0.1114097880 1 -1
0.0622107050 -0.1103454010 1 -1
0.0597067610 -0.1084764970 1 -1
0.0573096070 -0.1059920380 1 -1
0.0552253570 -0.1031416250 1 -1
0.0536185060 -0.1002112520 1 -1
0.0526031300 -0.0974957010 1 -1
0.0522386250 -0.0952688410 1 -1
0.0525274180 -0.0937545440 1 -1
0.0534150050 -0.0931025280 1 -1
0.0547943080 -0.0933730250 1 -1
0.0565156510 -0.0945318410 1 -1
0.0584007720 -0.0964553660 1 -1
0.0602575240 -0.0989440840 1 -1
0.0618944670 -0.1017427380 1 -1
0.0631369950 -0.1045651470 1 -1
0.0638448170 -0.1071216630 1 -1
0.0639284630 -0.1091467910 1 -1
0.0633618770 -0.1104244640 1 -1
0.0621877340 -0.1108090480 1 -1
0.0605139130 -0.1102402720 1 -1
0.0585022050 -0.1087506050 1 -1
0.0563509340 -0.1064646250 1 -1
0.0542739590 -0.1035895490 1 -1
0.0524797790 -0.1003954720 1 -1
0.0511525390 -0.0971869010 1 -1
0.0504340270 -0.0942708150 1 -1
0.0504067530 -0.0919261220 1 -1
0.0510817140 -0.0903769140 1 -1
0.0523958200 -0.0897706990 1 -1
0.0542206490 -0.0901628020 1 -1
0.0563787070 -0.0915092140 1 -1
0.0586613820 -0.0936703410 1 -1
0.0608464180 -0.0964255580 1 -1
0.0627168490 -0.0994958230 1 -1
0.0640824890 -0.1025714510 1 -1
0.0648010370 -0.1053430420 1 -1
0.0647938090 -0.1075327850 1 -1
0.0640528510 -0.1089221110 1 -1
0.0626396780 -0.1093722990 1 -1
0.0606786470 -0.1088366030 1 -1
0.0583476740 -0.1073637650 1 -1
0.0558659080 -0.1050930430 1 -1
0.0534756540 -0.1022405270 1 -1
0.0514177500 -0.0990770260 1 -1
0.0499042040 -0.0958998400 1 -1
0.0490943170 -0.0930027230 1 -1
0.0490789500 -0.0906482610 1 -1
0.0498736470 -0.0890449600 1 -1
0.0514182390 -0.0883294410 1 -1
0.0535811880 -0.0885539200 1 -1
0.0561703470 -0.0896804270 1 -1
0.0589519930 -0.0915836920 1 -1
0.0616758850 -0.0940630380 1 -1
0.0641013090 -0.0968616080 1 -1
0.0660200890 -0.0996907880 1 -1
0.0672748300 -0.1022576720 1 -1
0.0677719780 -0.1042931340 1 -1
0.0674891060 -0.1055781760 1 -1
0.0664756160 -0.1059664770 1 -1
0.0648470490 -0.1054007640 1 -1
0.0627740850 -0.1039201010 1 -1
0.0604670140 -0.1016560540 1 -1
0.0581560340 -0.0988185270 1 -1
0.0560681850 -0.0956742700 1 -1
0.0544036790 -0.0925203380 1 -1
0.0533161760 -0.0896538720 1 -1
0.0528999950 -0.0873409200 1 -1
0.0531839980 -0.0857889870 1 -1
0.0541309730 -0.0851273660 1 -1
0.0556426540 -0.0853969870 1 -1
0.0575706360 -0.0865495150 1 -1
0.0597317960 -0.0884543270 1 -1
0.0619253030 -0.0909117440 1 -1
0.0639490830 -0.0936715850 1 -1
0.0656161090 -0.0964562170 1 -1
0.0667709560 -0.0989865310 1 -1
0.0673045180 -0.1010086140 1 -1
0.0671650350 -0.1023184250 1 -1
0.0663664320 -0.1027815570 1 -1
0.0649933130 -0.1023458160 1 -1
0.0631969450 -0.1010458400 1 -1
0.0611773840 -0.0989998280 1 -1
0.0591550350 -0.0963987260 1 -1
0.0573410610 -0.0934888590 1 -1
0.0559137700 -0.0905494600 1 -1
0.0550021870 -0.0878663620 1 -1
0.0546756550 -0.0857035470 1 -1
0.0549389270 -0.0842756490 1 -1
0.0557322700 -0.0837255520 1 -1
0.0569361290 -0.0841101570 1 -1
0.0583812840 -0.0853950920 1 -1
0.0598659140 -0.0874576330 1 -1
0.0611780740 -0.0900973940 1 -1
0.0621191670 -0.0930548480 1 -1
0.0625244250 -0.0960366580 1 -1
0.0622782230 -0.0987448470 1 -1
0.0613242820 -0.1009059720 1 -1
0.0596723810 -0.1022974560 1 -1
0.0574015310 -0.1027696540 1 -1
0.0546566150 -0.1022623510 1 -1
0.0516359100 -0.1008135040 1 -1
0.0485707030 -0.0985584290 1 -1
0.0457011510 -0.0957187180 1 -1
0.0432523330 -0.0925809050 1 -1
0.0414130670 -0.0894657520 1 -1
0.0403191640 -0.0866917750 1 -1
0.0400416680 -0.0845390900 1 -1
0.0405800660 -0.0832190480 1 -1
0.0418610100 -0.0828529340 1 -1
0.0437434040 -0.0834617910 1 -1
0.0460302440 -0.0849677920 1 -1
0.0484867530 -0.0872055890 1 -1
0.0508637070 -0.0899413050 1 -1
0.0529236040 -0.0928968410 1 -1
0.0544651930 -0.0957772540 1 -1
0.0553416060 -0.0982991830 1 -1
0.0554704660 -0.1002177220 1 -1
0.0548373600 -0.1013486450 1 -1
0.0534945740 -0.1015840850 1 -1
0.0515561260 -0.1009013010 1 -1
0.0491891740 -0.0993642200 1 -1
0.0466014240 -0.0971170490 1 -1
0.0440243950 -0.0943703360 1 -1
0.0416929030 -0.0913813830 1 -1
0.0398219580 -0.0884314930 1 -1
0.0385833100 -0.0858016450 1 -1
0.0380847210 -0.0837472100 1 -1
0.0383557250 -0.0824731330 1 -1
0.0393430940 -0.0821126580 1 -1
0.0409168520 -0.0827128660 1 -1
0.0428850790 -0.0842292060 1 -1
0.0450148880 -0.0865301190 1 -1
0.0470575090 -0.0894113240 1 -1
0.0487753510 -0.0926170070 1 -1
0.0499681080 -0.0958638430 1 -1
0.0504941190 -0.0988651980 1 -1
0.0502835530 -0.1013551910 1 -1
0.0493422870 -0.1031123590 1 -1
0.0477478760 -0.1039808950 1 -1
0.0456396910 -0.1038864960 1 -1
0.0432043150 -0.1028445980 1 -1
0.0406569200 -0.1009598560 1 -1
0.0382208820 -0.0984165100 1 -1
0.0361082980 -0.0954603770 1 -1
0.0345019390 -0.0923747450 1 -1
0.0335385140 -0.0894532060 1 -1
0.0332950570 -0.0869716720 1 -1
0.0337804980 -0.0851611850 1 -1
0.0349336320 -0.0841839230 1 -1
0.0366285640 -0.0841163860 1 -1
0.0386870930 -0.0849433420 1 -1
0.0408953140 -0.0865625740 1 -1
0.0430223950 -0.0887971530 1 -1
0.0448416420 -0.0914120390 1 -1
0.0461535400 -0.0941341760 1 -1
0.0468078420 -0.0966768290 1 -1
0.0467202170 -0.0987677510 1 -1
0.0458804200 -0.1001780570 1 -1
0.0443515630 -0.1007476010 1 -1
0.0422617980 -0.1004030750 1 -1
0.0397906110 -0.0991659800 1 -1
0.0371526260 -0.0971494600 1 -1
0.0345801090 -0.0945450480 1 -1
0.0323026230 -0.0916015380 1 -1
0.0305242500 -0.0885986220 1 -1
0.0294028530 -0.0858184850 0 -1
0.0290347200 -0.0835188370 0 -1
0.0294445830 -0.0819097090 0 -1
0.0305811610 -0.0811347630 1 -1
0.0323200370 -0.0812579120 1 -1
0.0344752560 -0.0822566160 1 -1
0.0368189380 -0.0840228190 1 -1
0.0391060790 -0.0863717440 1 -1
0.0411008640 -0.0890578960 1 -1
0.0426010680 -0.0917973100 1 -1
0.0434578410 -0.0942950710 1 -1
0.0435889240 -0.0962760450 1 -1
0.0429844810 -0.0975149970 1 -1
0.0417061090 -0.0978618610 1 -1
0.0398800250 -0.0972588520 1 -1
0.0376848830 -0.0957475170 1 -1
0.0353348670 -0.0934649520 1 -1
0.0330598140 -0.0906291880 1 -1
0.0310843050 -0.0875152250 1 -1
0.0296068270 -0.0844250190 0 -1
0.0287804030 -0.0816550260 0 -1
0.0286970860 -0.0794652680 0 -1
0.0293780460 -0.0780547220 0 -1
0.0307694750 -0.0775461300 1 -1
0.0327452080 -0.0779793210 1 -1
0.0351175730 -0.0793104110 1 -1
0.0376558250 -0.0814159340 1 -1
0.0401100260 -0.0841027490 1 -1
0.0422382670 -0.0871241940 1 -1
0.0438333140 -0.0902014020 1 -1
0.0447432050 -0.0930479510 1 -1
0.0448835540 -0.0953960800 1 -1
0.0442435890 -0.0970223140 1 -1
0.0428872190 -0.0977698300 1 -1
0.0409474570 -0.0975652970 1 -1
0.0386130440 -0.0964285030 1 -1
0.0361090040 -0.0944732010 1 -1
0.0336748770 -0.0918978080 1 -1
0.0315430880 -0.0889658250 1 -1
0.0299172220 -0.0859782240 0 -1
0.0289511090 -0.0832418920 0 -1
0.0287327860 -0.0810379970 0 -1
0.0292758570 -0.0795930560 0 -1
0.0305172480 -0.0790554010 1 -1
0.0323210230 -0.0794798830 1 -1
0.0344905390 -0.0808228920 1 -1
0.0367901470 -0.0829481150 1 -1
0.0389730610 -0.0856416710 1 -1
0.0408090450 -0.0886342390 1 -1
0.0421070730 -0.0916277400 1 -1
0.0427320690 -0.0943243770 1 -1
0.0426170760 -0.0964554530 1 -1
0.0417708610 -0.0978070660 1 -1
0.0402781360 -0.0982400460 1 -1
0.0382897270 -0.0977024790 1 -1
0.0360040210 -0.0962346130 1 -1
0.0336441840 -0.0939664290 1 -1
0.0314352520 -0.0911073430 1 -1
0.0295834120 -0.0879273700 0 -1
0.0282585720 -0.0847305420 0 -1
0.0275809200 -0.0818233540 0 -1
0.0276126230 -0.0794826940 0 -1
0.0283554190 -0.0779279150 0 -1
0.0297526080 -0.0773002750 0 -1
0.0316923350 -0.0776509460 1 -1
0.0340114130 -0.0789380200 1 -1
0.0365033490 -0.0810323380 1 -1
0.0389345080 -0.0837306500 1 -1
0.0410674700 -0.0867739470 1 -1
0.0426869440 -0.0898695870 1 -1
0.0436241370 -0.0927166520 1 -1
0.0437764160 -0.0950334140 1 -1
0.0431189230 -0.0965847330 1 -1
0.0417063350 -0.0972065390 1 -1
0.0396662230 -0.0968242550 1 -1
0.0371869190 -0.0954626300 1 -1
0.0345010930 -0.0932456490 1 -1
0.0318646370 -0.0903861010 1 -1
0.0295315950 -0.0871651720 0 -1
0.0277277250 -0.0839034210 0 -1
0.0266259310 -0.0809260300 0 -1
0.0263262730 -0.0785269110 0 -1
0.0268433350 -0.0769372880 0 -1
0.0281044210 -0.0763032690 0 -1
0.0299605320 -0.0766744210 0 -1
0.0322070910 -0.0780025760 1 -1
0.0346076440 -0.0801485380 1 -1
0.0369153030 -0.0828947610 1 -1
0.0388919310 -0.0859636820 1 -1
0.0403282530 -0.0890426850 1 -1
0.0410651510 -0.0918154370 1 -1
0.0410112370 -0.0939958800 1 -1
0.0401517370 -0.0953588060 1 -1
0.0385482940 -0.0957621820 1 -1
0.0363318000 -0.0951594870 1 -1
0.0336899750 -0.0936028020 1 -1
0.0308512500 -0.0912375960 1 -1
0.0280661920 -0.0882894150 0 -1
0.0255862430 -0.0850432030 0 -1
0.0236397380 -0.0818166960 0 -1
0.0224072600 -0.0789295470 0 -1
0.0219996380 -0.0766708880 0 -1
0.0224421330 -0.0752694140 0 -1
0.0236692760 -0.0748697970 0 -1
0.0255334340 -0.0755181030 0 -1
0.0278248810 -0.0771578770 0 -1
0.0302976920 -0.0796372050 1 -1
0.0326971970 -0.0827252550 1 -1
0.0347863790 -0.0861357030 1 -1
0.0363678530 -0.0895544750 1 -1
0.0372988100 -0.0926692050 1 -1
0.0375002430 -0.0951978780 1 -1
0.0369629360 -0.0969147890 1 -1
0.0357487870 -0.0976724660 1 -1
0.0339838810 -0.0974173850 1 -1
0.0318435580 -0.0961962990 1 -1
0.0295336880 -0.0941508000 0 -1
0.0272716570 -0.0915008880 0 -1
0.0252679910 -0.0885207440 0 -1
0.0237086570 -0.0855101630 0 -1
0.0227381410 -0.0827647640 0 -1
0.0224437790 -0.0805477150 0 -1
0.0228435290 -0.0790650930 0 -1
0.0238814220 -0.0784469860 0 -1
0.0254332090 -0.0787365970 0 -1
0.0273207200 -0.0798883730 0 -1
0.0293322900 -0.0817742970 0 -1
0.0312462520 -0.0841964300 1 -1
0.0328536420 -0.0869041490 1 -1
0.0339778460 -0.0896156930 1 -1
0.0344903760 -0.0920439270 1 -1
0.0343209540 -0.0939247060 1 -1
0.0334612520 -0.0950444170 1 -1
0.0319648540 -0.0952629350 1 -1
0.0299448860 -0.0945292040 0 -1
0.0275669700 -0.0928879690 0 -1
0.0250353120 -0.0904767840 0 -1
0.0225737480 -0.0875130000 0 -1
0.0204056080 -0.0842722860 0 -1
0.0187341650 -0.0810619490 0 -1
0.0177232060 -0.0781916090 0 -1
0.0174781120 -0.0759425160 0 -1
0.0180309410 -0.0745380060 0 -1
0.0193348800 -0.0741197410 0 -1
0.0212705720 -0.0747335540 0 -1
0.0236611450 -0.0763255210 0 -1
0.0262910680 -0.0787468600 0 -1
0.0289266120 -0.0817665570 0 -1
0.0313364750 -0.0850914810 1 -1
0.0333098130 -0.0883936380 1 -1
0.0346708160 -0.0913428280 1 -1
0.0352926010 -0.0936412640 1 -1
0.0351126050 -0.0950558190 1 -1
0.0341460080 -0.0954432430 1 -1
0.0324899990 -0.0947642630 1 -1
0.0303145480 -0.0930847300 1 -1
0.0278417070 -0.0905652270 0 -1
0.0253200360 -0.0874423020 0 -1
0.0230000800 -0.0840040420 0 -1
0.0211123600 -0.0805617580 0 -1
0.0198468840 -0.0774195880 0 -1
0.0193348960 -0.0748448220 0 -1
0.0196351010 -0.0730427530 0 -1
0.0207261240 -0.0721393030 0 -1
0.0225065790 -0.0721724770 0 -1
0.0248034560 -0.0730916750 0 -1
0.0273885620 -0.0747635760 0 -1
0.0300022890 -0.0769838640 1 -1
0.0323828990 -0.0794945470 1 -1
0.0342973380 -0.0820066660 1 -1
0.0355680490 -0.0842274390 1 -1
0.0360906510 -0.0858896380 1 -1
0.0358404360 -0.0867796590 1 -1
0.0348693340 -0.0867602540 1 -1
0.0332965790 -0.0857851190 1 -1
0.0312960850 -0.0839044830 1 -1
0.0290817940 -0.0812614680 0 -1
0.0268898290 -0.0780791970 0 -1
0.0249559530 -0.0746392020 0 -1
0.0234893280 -0.0712529090 0 -1
0.0226473870 -0.0682294170 0 -1
0.0225179680 -0.0658435330 0 -1
0.0231112650 -0.0643077000 0 -1
0.0243603450 -0.0637511660 0 -1
0.0261291710 -0.0642091770 0 -1
0.0282278500 -0.0656231200 0 -1
0.0304336360 -0.0678498680 1 -1
0.0325145740 -0.0706772070 1 -1
0.0342523560 -0.0738428420 1 -1
0.0354617610 -0.0770564570 1 -1
0.0360060490 -0.0800250570 1 -1
0.0358093670 -0.0824798940 1 -1
0.0348659120 -0.0842014980 1 -1
0.0332426210 -0.0850403360 1 -1
0.0310723510 -0.0849321160 1 -1
0.0285392410 -0.0839059720 0 -1
0.0258611120 -0.0820826440 0 -1
0.0232716580 -0.0796617870 0 -1
0.0210017850 -0.0769011160 0 -1
0.0192593450 -0.0740905280 0 -1
0.0182079270 -0.0715227900 0 -1
0.0179471970 -0.0694634180 0 -1
