-0.0035615460 -0.0881434480 0 -1
0.0000872571 -0.0896004370 0 -1
0.0036039960 -0.0915610280 0 -1
0.0066270450 -0.0938280220 0 -1
0.0088369220 -0.0961815070 0 -1
0.0099901620 -0.0983994010 0 -1
0.0099460410 -0.1002764780 0 -1
0.0086822430 -0.1016416620 0 -1
0.0062966910 -0.1023730690 0 -1
0.0029960370 -0.1024093840 0 -1
-0.0009261590 -0.1017557400 0 -1
-0.0051185570 -0.1004830910 0 -1
-0.0092055860 -0.0987218210 0 -1
-0.0128220120 -0.0966509110 0 -1
-0.0156457310 -0.0944826540 0 -1
-0.0174272890 -0.0924424830 0 -1
-0.0180142650 -0.0907452020 0 -1
-0.0173676360 -0.0895710320 0 -1
-0.0155673210 -0.0890454170 0 -1
-0.0128047270 -0.0892257180 0 -1
-0.0093622140 -0.0900965750 0 -1
-0.0055830890 -0.0915738110 0 -1
-0.0018373900 -0.0935147240 0 -1
0.0015133660 -0.0957322520 0 -1
0.0041510010 -0.0980118950 0 -1
0.0058327980 -0.1001313150 0 -1
0.0064166530 -0.1018814780 0 -1
0.0058745810 -0.1030866600 0 -1
0.0042930600 -0.1036211060 0 -1
0.0018618010 -0.1034213380 0 -1
-0.0011476280 -0.1024936560 0 -1
-0.0044113270 -0.1009161310 0 -1
-0.0075863820 -0.0988339630 0 -1
-0.0103436900 -0.0964472070 0 -1
-0.0123987180 -0.0939911760 0 -1
-0.0135394120 -0.0917115850 0 -1
-0.0136484330 -0.0898377740 0 -1
-0.0127154200 -0.0885578060 0 -1
-0.0108361160 -0.0879984940 0 -1
-0.0081980410 -0.0882121020 0 -1
-0.0050560560 -0.0891707350 0 -1
-0.0017038120 -0.0907690620 0 -1
0.0015536950 -0.0928355400 0 -1
0.0044249070 -0.0951512280 0 -1
0.0066547360 -0.0974738720 0 -1
0.0080456810 -0.0995639790 0 -1
0.0084748150 -0.1012094970 0 -1
0.0079048080 -0.1022459810 0 -1
0.0063883650 -0.1025703720 0 -1
0.0040649540 -0.1021479820 0 -1
0.0011487050 -0.1010130730 0 -1
-0.0020917100 -0.0992638190 0 -1
-0.0053581260 -0.0970526840 0 -1
-0.0083492040 -0.0945733800 0 -1
-0.0107863600 -0.0920452110 0 -1
-0.0124393640 -0.0896950570 0 -1
-0.0131502510 -0.0877372380 0 -1
-0.0128521240 -0.0863528990 0 -1
-0.0115790090 -0.0856719420 0 -1
-0.0094641950 -0.0857601180 0 -1
-0.0067266300 -0.0866121780 0 -1
-0.0036474520 -0.0881511410 0 -1
-0.0005405020 -0.0902339190 0 -1
0.0022793550 -0.0926629430 0 -1
0.0045278170 -0.0952031420 0 -1
0.0059808100 -0.0976039950 0 -1
0.0064987050 -0.0996253850 0 -1
0.0060412230 -0.1010637800 0 -1
0.0046719950 -0.1017746550 0 -1
0.0025531300 -0.1016881300 0 -1
-0.0000705099 -0.1008162400 0 -1
-0.0028966850 -0.0992514780 0 -1
-0.0055979220 -0.0971571390 0 -1
-0.0078568890 -0.0947507720 0 -1
-0.0094015130 -0.0922829070 0 -1
-0.0100350140 -0.0900133260 0 -1
-0.0096557500 -0.0881866450 0 -1
-0.0082650170 -0.0870085600 0 -1
-0.0059647500 -0.0866244720 0 -1
-0.0029476010 -0.0871033150 0 -1
0.0005200790 -0.0884298810 0 -1
0.0041226390 -0.0905068620 0 -1
0.0075257300 -0.0931650980 0 -1
0.0104095170 -0.0961801240 0 -1
0.0125001990 -0.0992939230 0 -1
0.0135968850 -0.1022407280 0 -1
0.0135921450 -0.1047744440 0 -1
0.0124840820 -0.1066940430 0 -1
0.0103779150 -0.1078631260 0 -1
0.0074768370 -0.1082214100 0 -1
0.0040629910 -0.1077876510 0 -1
0.0004701220 -0.1066543290 0 -1
-0.0029488880 -0.1049753930 0 -1
-0.0058561820 -0.1029495800 0 -1
-0.0079623500 -0.1008012320 0 -1
-0.0090559540 -0.0987591340 0 -1
-0.0090250280 -0.0970343990 0 -1
-0.0078676220 -0.0957998930 0 -1
-0.0056912210 -0.0951738090 0 -1
-0.0027022000 -0.0952089030 0 -1
0.0008143710 -0.0958880380 0 -1
0.0045241290 -0.0971267140 0 -1
0.0080783610 -0.0987831830 0 -1
0.0111483360 -0.1006752970 0 -1
0.0134548290 -0.1026011730 0 -1
0.0147919580 -0.1043600770 0 -1
0.0150449790 -0.1057707100 0 -1
0.0142011900 -0.1066858850 0 -1
0.0123531540 -0.1070039890 0 -1
0.0096927750 -0.1066775060 0 -1
0.0064945470 -0.1057181520 0 -1
0.0030883290 -0.1041979760 0 -1
-0.0001750540 -0.1022454230 0 -1
-0.0029604660 -0.1000358840 0 -1
-0.0049825740 -0.0977773660 0 -1
-0.0060339900 -0.0956917600 0 -1
-0.0060057750 -0.0939923070 0 -1
-0.0048988710 -0.0928600570 0 -1
-0.0028245370 -0.0924235140 0 -1
0.0000068764 -0.0927441670 0 -1
0.0033074900 -0.0938087360 0 -1
0.0067411960 -0.0955291280 0 -1
0.0099570790 -0.0977509600 0 -1
0.0126238050 -0.1002693000 0 -1
0.0144631900 -0.1028484810 0 -1
0.0152796940 -0.1052440500 0 -1
0.0149807560 -0.1072262450 0 -1
0.0135853450 -0.1086031960 0 -1
0.0112212640 -0.1092404830 0 -1
0.0081116980 -0.1090740840 0 -1
0.0045516500 -0.1081155860 0 -1
0.0008777530 -0.1064498780 0 -1
-0.0025641190 -0.1042259940 0 -1
-0.0054508980 -0.1016421410 0 -1
-0.0075120650 -0.0989266940 0 -1
-0.0085543770 -0.0963172330 0 -1
-0.0084796040 -0.0940394630 0 -1
-0.0072944620 -0.0922871090 0 -1
-0.0051119810 -0.0912038810 0 -1
-0.0021428580 -0.0908696680 0 -1
0.0013241390 -0.0912932820 0 -1
0.0049511400 -0.0924119680 0 -1
0.0083854020 -0.0940964860 0 -1
0.0112941610 -0.0961614770 0 -1
0.0133970290 -0.0983819230 0 -1
0.0144936660 -0.1005157870 0 -1
0.0144837860 -0.1023306610 0 -1
0.0133766220 -0.1036300250 0 -1
0.0112884730 -0.1042747040 0 -1
0.0084287400 -0.1041967820 0 -1
0.0050765300 -0.1034049570 0 -1
0.0015514970 -0.1019814470 0 -1
-0.0018168390 -0.1000718540 0 -1
-0.0047186170 -0.0978700890 0 -1
-0.0068911110 -0.0956000450 0 -1
-0.0081422800 -0.0934948960 0 -1
-0.0083672050 -0.0917747650 0 -1
-0.0075564920 -0.0906243840 0 -1
-0.0057980580 -0.0901732310 0 -1
-0.0032721310 -0.0904807090 0 -1
-0.0002370360 -0.0915283700 0 -1
0.0029944970 -0.0932207410 0 -1
0.0060853580 -0.0953954080 0 -1
0.0087070680 -0.0978408480 0 -1
0.0105735230 -0.1003190580 0 -1
0.0114723820 -0.1025904310 0 -1
0.0112892910 -0.1044384660 0 -1
0.0100206780 -0.1056913660 0 -1
0.0077741800 -0.1062381180 0 -1
0.0047579570 -0.1060378870 0 -1
0.0012598460 -0.1051218590 0 -1
-0.0023819790 -0.1035872480 0 -1
-0.0058130140 -0.1015851010 0 -1
-0.0086970460 -0.0993052240 0 -1
-0.0107486170 -0.0969605220 0 -1
-0.0117607760 -0.0947705540 0 -1
-0.0116258220 -0.0929435300 0 -1
-0.0103480180 -0.0916573360 0 -1
-0.0080467780 -0.0910413920 0 -1
-0.0049472780 -0.0911616740 0 -1
-0.0013577290 -0.0920111570 0 -1
0.0023630200 -0.0935071540 0 -1
0.0058428560 -0.0954967160 0 -1
0.0087347670 -0.0977710110 0 -1
0.0107516040 -0.1000874530 0 -1
0.0116932260 -0.1021960410 0 -1
0.0114642960 -0.1038662880 0 -1
0.0100824290 -0.1049116670 0 -1
0.0076762910 -0.1052085940 0 -1
0.0044736980 -0.1047075280 0 -1
0.0007804200 -0.1034356680 0 -1
-0.0030486610 -0.1014925980 0 -1
-0.0066432940 -0.0990403050 0 -1
-0.0096534350 -0.0962882000 0 -1
-0.0117839320 -0.0934738900 0 -1
-0.0128250680 -0.0908414700 0 -1
-0.0126746000 -0.0886196370 0 -1
-0.0113474630 -0.0870016730 0 -1
-0.0089721150 -0.0861288460 0 -1
-0.0057755160 -0.0860780190 0 -1
-0.0020597680 -0.0868535340 0 -1
0.0018270890 -0.0883840400 0 -1
0.0055239270 -0.0905262100 0 -1
0.0086905430 -0.0930766670 0 -1
0.0110401840 -0.0957914710 0 -1
0.0123673690 -0.0984110470 0 -1
0.0125675280 -0.1006876970 0 -1
0.0116464480 -0.1024123320 0 -1
0.0097188470 -0.1034366490 0 -1
0.0069956450 -0.1036876540 0 -1
0.0037608670 -0.1031731540 0 -1
0.0003419040 -0.1019781500 0 -1
-0.0029221450 -0.1002527780 0 -1
-0.0057108640 -0.0981939770 0 -1
-0.0077503900 -0.0960242570 0 -1
-0.0088383010 -0.0939700900 0 -1
-0.0088639330 -0.0922406860 0 -1
-0.0078209950 -0.0910078780 0 -1
-0.0058098930 -0.0903892690 0 -1
-0.0030285410 -0.0904371680 0 -1
0.0002481470 -0.0911343260 0 -1
0.0036975000 -0.0923961330 0 -1
0.0069818830 -0.0940792110 0 -1
0.0097800040 -0.0959962410 0 -1
0.0118148540 -0.0979353000 0 -1
0.0128784290 -0.0996807950 0 -1
0.0128524560 -0.1010338540 0 -1
0.0117231830 -0.1018311980 0 -1
0.0095870570 -0.1019618240 0 -1
0.0066434940 -0.1013801770 0 -1
0.0031742600 -0.1001134720 0 -1
-0.0004865530 -0.0982608520 0 -1
-0.0039869820 -0.0959836430 0 -1
-0.0069920980 -0.0934883620 0 -1
-0.0092155120 -0.0910056950 0 -1
-0.0104450410 -0.0887681480 0 -1
-0.0105623980 -0.0869878300 0 -1
-0.0095565970 -0.0858355740 0 -1
-0.0075287370 -0.0854230030 0 -1
-0.0046852750 -0.0857900140 0 -1
-0.0013182480 -0.0869005290 0 -1
0.0022263790 -0.0886477880 0 -1
0.0055875440 -0.0908672600 0 -1
0.0084284800 -0.0933536730 0 -1
0.0104713000 -0.0958801240 0 -1
0.0115232030 -0.0982185000 0 -1
0.0114916240 -0.1001596210 0 -1
0.0103881280 -0.1015313460 0 -1
0.0083241570 -0.1022140060 0 -1
0.0055015800 -0.1021527510 0 -1
0.0021977060 -0.1013649790 0 -1
-0.0012572040 -0.0999400250 0 -1
-0.0045104690 -0.0980295610 0 -1
-0.0072233960 -0.0958304350 0 -1
-0.0091087110 -0.0935638500 0 -1
-0.0099628030 -0.0914537140 0 -1
-0.0096867620 -0.0897050860 0 -1
-0.0082928680 -0.0884841400 0 -1
-0.0058988080 -0.0879026810 0 -1
-0.0027151730 -0.0880097490 0 -1
0.0009718310 -0.0887902150 0 -1
0.0048242970 -0.0901683310 0 -1
0.0084833190 -0.0920143210 0 -1
0.0116040080 -0.0941536860 0 -1
0.0138914510 -0.0963807550 0 -1
0.0151324440 -0.0984778760 0 -1
0.0152177060 -0.1002383460 0 -1
0.0141524890 -0.1014884540 0 -1
0.0120556120 -0.1021051300 0 -1
0.0091464890 -0.1020281290 0 -1
0.0057214190 -0.1012662560 0 -1
0.0021237570 -0.0998966630 0 -1
-0.0012877080 -0.0980567050 0 -1
-0.0041710780 -0.0959294350 0 -1
-0.0062342910 -0.0937250750 0 -1
-0.0072659650 -0.0916609490 0 -1
-0.0071589380 -0.0899414840 0 -1
-0.0059222830 -0.0887391950 0 -1
-0.0036805150 -0.0881771940 0 -1
-0.0006607020 -0.0883147610 0 -1
0.0028308780 -0.0891390690 0 -1
0.0064403390 -0.0905655140 0 -1
0.0098024240 -0.0924465220 0 -1
0.0125764770 -0.0945869520 0 -1
0.0144786830 -0.0967641900 0 -1
0.0153094160 -0.0987512910 0 -1
0.0149735410 -0.1003409640 0 -1
0.0134899100 -0.1013674290 0 -1
0.0109885870 -0.1017233840 0 -1
0.0076979150 -0.1013700040 0 -1
0.0039235370 -0.1003388780 0 -1
0.0000202844 -0.0987266710 0 -1
-0.0036415470 -0.0966848210 0 -1
-0.0067124010 -0.0944061310 0 -1
-0.0088981120 -0.0921085410 0 -1
-0.0099889820 -0.0900158100 0 -1
-0.0098804010 -0.0883358910 0 -1
-0.0085832530 -0.0872392500 0 -1
-0.0062235170 -0.0868401280 0 -1
-0.0030308400 -0.0871836830 0 -1
0.0006841840 -0.0882410080 0 -1
0.0045624440 -0.0899121820 0 -1
0.0082333600 -0.0920359400 0 -1
0.0113505940 -0.0944043410 0 -1
0.0136225850 -0.0967818080 0 -1
0.0148358500 -0.0989279630 0 -1
0.0148708330 -0.1006224660 0 -1
0.0137120140 -0.1016886760 0 -1
0.0114529970 -0.1020125760 0 -1
0.0082936410 -0.1015545280 0 -1
0.0045246000 -0.1003530580 0 -1
0.0004983550 -0.0985208350 0 -1
-0.0034082410 -0.0962332030 0 -1
-0.0068329370 -0.0937102740 0 -1
-0.0094634150 -0.0911945390 0 -1
-0.0110656820 -0.0889264870 0 -1
-0.0115037320 -0.0871211660 0 -1
-0.0107502200 -0.0859482430 0 -1
-0.0088886590 -0.0855165750 0 -1
-0.0061075180 -0.0858635660 0 -1
-0.0026855030 -0.0869509500 0 -1
0.0010331940 -0.0886687330 0 -1
0.0046730290 -0.0908466720 0 -1
0.0078665870 -0.0932712060 0 -1
0.0102936150 -0.0957058490 0 -1
0.0117146400 -0.0979132010 0 -1
0.0119952630 -0.0996773770 0 -1
0.0111181850 -0.1008253880 0 -1
0.0091820210 -0.1012444300 0 -1
0.0063881740 -0.1008921400 0 -1
0.0030180950 -0.0997989800 0 -1
-0.0005955950 -0.0980636500 0 -1
-0.0041004470 -0.0958429270 0 -1
-0.0071559910 -0.0933371370 0 -1
-0.0094653100 -0.0907723950 0 -1
-0.0108047310 -0.0883813230 0 -1
-0.0110484060 -0.0863837670 0 -1
-0.0101840770 -0.0849681110 0 -1
-0.0083164980 -0.0842736450 0 -1
-0.0056559550 -0.0843752400 0 -1
-0.0024927000 -0.0852724570 0 -1
0.0008376160 -0.0868857780 0 -1
0.0039912800 -0.0890615320 0 -1
0.0066525210 -0.0915850120 0 -1
0.0085654640 -0.0942011310 0 -1
0.0095585540 -0.0966418630 0 -1
0.0095580800 -0.0986572820 0 -1
0.0085902640 -0.1000446570 0 -1
0.0067738790 -0.1006705270 0 -1
0.0043053440 -0.1004829220 0 -1
0.0014380740 -0.0995128020 0 -1
-0.0015411760 -0.0978660110 0 -1
-0.0043361020 -0.0957091790 0 -1
-0.0066636710 -0.0932525160 0 -1
-0.0082767650 -0.0907298950 0 -1
-0.0089866900 -0.0883762660 0 -1
-0.0086829300 -0.0864046480 0 -1
-0.0073468800 -0.0849860260 0 -1
-0.0050580610 -0.0842345410 0 -1
-0.0019917410 -0.0841992180 0 -1
0.0015939570 -0.0848622070 0 -1
0.0053821560 -0.0861422130 0 -1
0.0090295380 -0.0879017640 0 -1
0.0122015700 -0.0899584430 0 -1
0.0146065210 -0.0921007600 0 -1
0.0160254480 -0.0941077110 0 -1
0.0163342380 -0.0957695800 0 -1
0.0155143720 -0.0969081460 0 -1
0.0136527850 -0.0973951970 0 -1
0.0109334100 -0.0971676510 0 -1
0.0076213640 -0.0962363310 0 -1
0.0040394260 -0.0946853120 0 -1
0.0005375460 -0.0926616040 0 -1
-0.0025417780 -0.0903584440 0 -1
-0.0048979560 -0.0879956240 0 -1
-0.0063024250 -0.0857981520 0 -1
-0.0066214340 -0.0839738960 0 -1
-0.0058289920 -0.0826923050 0 -1
-0.0040084410 -0.0820671790 0 -1
-0.0013435980 -0.0821459110 0 -1
0.0018985430 -0.0829066040 0 -1
0.0053921360 -0.0842626230 0 -1
0.0087821640 -0.0860723800 0 -1
0.0117172210 -0.0881521300 0 -1
0.0138836480 -0.0902913570 0 -1
0.0150394810 -0.0922714500 0 -1
0.0150450140 -0.0938871000 0 -1
0.0138842720 -0.0949676500 0 -1
0.0116710770 -0.0953951020 0 -1
0.0086363410 -0.0951166910 0 -1
0.0050983340 -0.0941510400 0 -1
0.0014223380 -0.0925871100 0 -1
-0.0020220480 -0.0905757780 0 -1
-0.0048994630 -0.0883153400 0 -1
-0.0069397700 -0.0860326810 0 -1
-0.0079596620 -0.0839614470 0 -1
-0.0078743330 -0.0823185800 0 -1
-0.0067004320 -0.0812812030 0 -1
-0.0045523280 -0.0809668190 0 -1
-0.0016326510 -0.0814204880 0 -1
0.0017839130 -0.0826112260 0 -1
0.0053748270 -0.0844367080 0 -1
0.0087999300 -0.0867336610 0 -1
0.0117334800 -0.0892922940 0 -1
0.0138953240 -0.0918749210 0 -1
0.0150789420 -0.0942385970 0 -1
0.0151720760 -0.0961595080 0 -1
0.0141663760 -0.0974554040 0 -1
0.0121567310 -0.0980029440 0 -1
0.0093324840 -0.0977488160 0 -1
0.0059605530 -0.0967151170 0 -1
0.0023603870 -0.0949987220 0 -1
-0.0011262140 -0.0927630220 0 -1
-0.0041662220 -0.0902213160 0 -1
-0.0064656430 -0.0876138900 0 -1
-0.0077980770 -0.0851828680 0 -1
-0.0080285430 -0.0831488830 0 -1
-0.0071280560 -0.0816918960 0 -1
-0.0051762860 -0.0809364080 0 -1
-0.0023528740 -0.0809407320 0 -1
0.0010801900 -0.0816910170 0 -1
0.0048024410 -0.0831016090 0 -1
0.0084629690 -0.0850225690 0 -1
0.0117121150 -0.0872538800 0 -1
0.0142365600 -0.0895648590 0 -1
0.0157939880 -0.0917166190 0 -1
0.0162404020 -0.0934852340 0 -1
0.0155453940 -0.0946833780 0 -1
0.0137947470 -0.0951788040 0 -1
0.0111813360 -0.0949087180 0 -1
0.0079857790 -0.0938888320 0 -1
0.0045486900 -0.0922145460 0 -1
0.0012363220 -0.0900521050 0 -1
-0.0015975390 -0.0876201230 0 -1
-0.0036490010 -0.0851641420 0 -1
-0.0046957040 -0.0829280120 0 -1
-0.0046182320 -0.0811269260 0 -1
-0.0034100160 -0.0799262790 0 -1
-0.0011778210 -0.0794276570 0 -1
0.0018660220 -0.0796613920 0 -1
0.0054212650 -0.0805854760 0 -1
0.0091279790 -0.0820910290 0 -1
0.0126025150 -0.0840140950 0 -1
0.0154765080 -0.0861530300 0 -1
0.0174352820 -0.0882895190 0 -1
0.0182525390 -0.0902098610 0 -1
0.0178162450 -0.0917235850 0 -1
0.0161402080 -0.0926783330 0 -1
0.0133598480 -0.0929711200 0 -1
0.0097148210 -0.0925565240 0 -1
0.0055222550 -0.0914521620 0 -1
0.0011446140 -0.0897405060 0 -1
-0.0030436840 -0.0875649510 0 -1
-0.0066888270 -0.0851189210 0 -1
-0.0094890380 -0.0826284910 0 -1
-0.0112229630 -0.0803299440 0 -1
-0.0117710940 -0.0784448700 0 -1
-0.0111268660 -0.0771566130 0 -1
-0.0093957930 -0.0765910110 0 -1
-0.0067830090 -0.0768028430 0 -1
-0.0035717970 -0.0777697130 0 -1
-0.0000964492 -0.0793951180 0 -1
0.0032884060 -0.0815200730 0 -1
0.0062409810 -0.0839408040 0 -1
0.0084653680 -0.0864298390 0 -1
0.0097399390 -0.0887577950 0 -1
0.0099384670 -0.0907133450 0 -1
0.0090434620 -0.0921203370 0 -1
0.0071501070 -0.0928521900 0 -1
0.0044578730 -0.0928432290 0 -1
0.0012494410 -0.0920952110 0 -1
-0.0021388610 -0.0906773800 0 -1
-0.0053503050 -0.0887203580 0 -1
-0.0080424520 -0.0864054080 0 -1
-0.0099215050 -0.0839498050 0 -1
-0.0107732070 -0.0815882020 0 -1
-0.0104864770 -0.0795506930 0 -1
-0.0090662680 -0.0780396780 0 -1
-0.0066333630 -0.0772081930 0 -1
-0.0034108320 -0.0771426140 0 -1
0.0003012310 -0.0778525020 0 -1
0.0041590480 -0.0792689520 0 -1
0.0078111950 -0.0812506960 0 -1
0.0109322870 -0.0835964560 0 -1
0.0132514060 -0.0860633800 0 -1
0.0145743050 -0.0883915440 0 -1
0.0147992600 -0.0903323060 0 -1
0.0139263310 -0.0916762610 0 -1
0.0120588040 -0.0922767710 0 -1
0.0093951160 -0.0920662560 0 -1
0.0062111470 -0.0910633450 0 -1
0.0028342190 -0.0893699880 0 -1
-0.0003894090 -0.0871592880 0 -1
-0.0031306790 -0.0846563130 0 -1
-0.0051127290 -0.0821138160 0 -1
-0.0061392660 -0.0797847530 0 -1
-0.0061126290 -0.0778954990 0 -1
-0.0050411090 -0.0766245260 0 -1
-0.0030365140 -0.0760884270 0 -1
-0.0003027020 -0.0763340260 0 -1
0.0028843270 -0.0773350840 0 -1
0.0062037550 -0.0789937130 0 -1
0.0093221200 -0.0811477740 0 -1
0.0119259530 -0.0835851450 0 -1
0.0137514630 -0.0860641390 0 -1
0.0146099260 -0.0883375470 0 -1
0.0144067790 -0.0901770570 0 -1
0.0131510530 -0.0913955780 0 -1
0.0109534570 -0.0918661230 0 -1
0.0080142200 -0.0915360200 0 -1
0.0046029350 -0.0904341330 0 -1
0.0010330590 -0.0886683230 0 -1
-0.0023665810 -0.0864125110 0 -1
-0.0052821800 -0.0838862640 0 -1
-0.0074455790 -0.0813310580 0 -1
-0.0086612540 -0.0789857020 0 -1
-0.0088259200 -0.0770629170 0 -1
-0.0079392290 -0.0757302520 0 -1
-0.0061046480 -0.0750973030 0 -1
-0.0035191510 -0.0752085160 0 -1
-0.0004522710 -0.0760405920 0 -1
0.0027821020 -0.0775044970 0 -1
0.0058566380 -0.0794522230 0 -1
0.0084604050 -0.0816888390 0 -1
0.0103256320 -0.0839901740 0 -1
0.0112509960 -0.0861245380 0 -1
0.0111210160 -0.0878752340 0 -1
0.0099204480 -0.0890610490 0 -1
0.0077413470 -0.0895534690 0 -1
0.0047789480 -0.0892899990 0 -1
0.0013135630 -0.0882821820 0 -1
-0.0023194390 -0.0866165470 0 -1
-0.0057655890 -0.0844477910 0 -1
-0.0086879410 -0.0819844870 0 -1
-0.0108009240 -0.0794677770 0 -1
-0.0118980320 -0.0771446830 0 -1
-0.0118713350 -0.0752396980 0 -1
-0.0107231610 -0.0739295070 0 -1
-0.0085687480 -0.0733252840 0 -1
-0.0056264840 -0.0734649280 0 -1
-0.0021952670 -0.0743143590 0 -1
0.0013769260 -0.0757750220 0 -1
0.0047277600 -0.0776949320 0 -1
0.0075147280 -0.0798818550 0 -1
0.0094472870 -0.0821186350 0 -1
0.0103157170 -0.0841816210 0 -1
0.0100135280 -0.0858622560 0 -1
0.0085492690 -0.0869892400 0 -1
0.0060459600 -0.0874473180 0 -1
0.0027291810 -0.0871894710 0 -1
-0.0010947830 -0.0862406120 0 -1
-0.0050690260 -0.0846928780 0 -1
-0.0088211900 -0.0826946890 0 -1
-0.0120002380 -0.0804359700 0 -1
-0.0143115950 -0.0781306980 0 -1
-0.0155463790 -0.0759970030 0 -1
-0.0156004780 -0.0742358550 0 -1
-0.0144819220 -0.0730109700 0 -1
-0.0123070040 -0.0724328480 0 -1
-0.0092859560 -0.0725487590 0 -1
-0.0057005160 -0.0733393700 0 -1
-0.0018773850 -0.0747216370 0 -1
0.0018394970 -0.0765567510 0 -1
0.0051180470 -0.0786622610 0 -1
0.0076690310 -0.0808281490 0 -1
0.0092760550 -0.0828365450 0 -1
0.0098190110 -0.0844837880 0 -1
0.0092869530 -0.0856021560 0 -1
0.0077794970 -0.0860780580 0 -1
0.0054971630 -0.0858640360 0 -1
0.0027212180 -0.0849826910 0 -1
-0.0002149990 -0.0835223950 0 -1
-0.0029598320 -0.0816268820 0 -1
-0.0051794530 -0.0794814750 0 -1
-0.0065940350 -0.0772970940 0 -1
-0.0070089390 -0.0752917840 0 -1
-0.0063348550 -0.0736703670 0 -1
-0.0045945100 -0.0726044740 0 -1
-0.0019175270 -0.0722151070 0 -1
0.0014740250 -0.0725588110 0 -1
0.0052872580 -0.0736187690 0 -1
0.0091856030 -0.0753032940 0 -1
0.0128196020 -0.0774537530 0 -1
0.0158591600 -0.0798613100 0 -1
0.0180251920 -0.0822895680 0 -1
0.0191177910 -0.0844995800 0 -1
0.0190368290 -0.0862740810 0 -1
0.0177921330 -0.0874388210 0 -1
0.0155026060 -0.0878794890 0 -1
0.0123844110 -0.0875525650 0 -1
0.0087292240 -0.0864882260 0 -1
0.0048753340 -0.0847847470 0 -1
0.0011751520 -0.0825966050 0 -1
-0.0020375650 -0.0801196160 0 -1
-0.0044784940 -0.0775741000 0 -1
-0.0059400160 -0.0751853800 0 -1
-0.0063118550 -0.0731624820 0 -1
-0.0055908500 -0.0716778210 0 -1
-0.0038790230 -0.0708503530 0 -1
-0.0013728680 -0.0707337840 0 -1
0.0016544630 -0.0713109000 0 -1
0.0048786640 -0.0724948800 0 -1
0.0079562850 -0.0741380540 0 -1
0.0105592630 -0.0760478790 0 -1
0.0124077150 -0.0780086550 0 -1
0.0132977640 -0.0798053380 0 -1
0.0131216250 -0.0812447740 0 -1
0.0118782530 -0.0821722460 0 -1
0.0096739500 -0.0824844370 0 -1
0.0067122580 -0.0821394080 0 -1
0.0032732600 -0.0811618820 0 -1
-0.0003150910 -0.0796414730 0 -1
-0.0037094290 -0.0777233590 0 -1
-0.0065837010 -0.0755930830 0 -1
-0.0086597650 -0.0734576640 0 -1
-0.0097335660 -0.0715249060 0 -1
-0.0096946600 -0.0699833710 0 -1
-0.0085378330 -0.0689858670 0 -1
-0.0063658860 -0.0686378000 0 -1
-0.0033818070 -0.0689895580 0 -1
0.0001307270 -0.0700316290 0 -1
0.0038364200 -0.0716924260 0 -1
0.0073822090 -0.0738400980 0 -1
0.0104308680 -0.0762899570 0 -1
0.0126914840 -0.0788186980 0 -1
0.0139461370 -0.0811855850 0 -1
0.0140720620 -0.0831587440 0 -1
0.0130567840 -0.0845418070 0 -1
0.0110022250 -0.0851952670 0 -1
0.0081147450 -0.0850496950 0 -1
0.0046817370 -0.0841117560 0 -1
0.0010398300 -0.0824644070 0 -1
-0.0024592690 -0.0802605310 0 -1
-0.0054819360 -0.0777089190 0 -1
-0.0077436560 -0.0750538430 0 -1
-0.0090362140 -0.0725512870 0 -1
-0.0092481480 -0.0704442460 0 -1
-0.0083759640 -0.0689382610 0 -1
-0.0065252010 -0.0681788500 0 -1
-0.0039011130 -0.0682342680 0 -1
-0.0007881920 -0.0690871740 0 -1
0.0024803850 -0.0706366800 0 -1
0.0055585390 -0.0727099410 0 -1
0.0081227780 -0.0750813740 0 -1
0.0099037470 -0.0774970230 0 -1
0.0107109930 -0.0797014450 0 -1
0.0104493900 -0.0814645240 0 -1
0.0091274100 -0.0826053410 0 -1
0.0068569350 -0.0830103010 0 -1
0.0038434730 -0.0826433410 0 -1
0.0003667620 -0.0815470230 0 -1
-0.0032458330 -0.0798351790 0 -1
-0.0066493110 -0.0776794560 0 -1
-0.0095119220 -0.0752918020 0 -1
-0.0115470300 -0.0729035980 0 -1
-0.0125453710 -0.0707423540 0 -1
-0.0124027250 -0.0690083770 0 -1
-0.0111356390 -0.0678549080 0 -1
-0.0088803160 -0.0673746630 0 -1
-0.0058750780 -0.0675936340 0 -1
-0.0024318130 -0.0684712940 0 -1
0.0010970250 -0.0699061120 0 -1
0.0043524170 -0.0717455550 0 -1
0.0070028100 -0.0737997690 0 -1
0.0087763850 -0.0758580690 0 -1
0.0094882020 -0.0777074300 0 -1
0.0090584910 -0.0791520980 0 -1
0.0075196490 -0.0800330960 0 -1
0.0050118260 -0.0802454310 0 -1
0.0017675720 -0.0797500810 0 -1
-0.0019138610 -0.0785787670 0 -1
-0.0056989250 -0.0768315380 0 -1
-0.0092523900 -0.0746680430 0 -1
-0.0122655290 -0.0722928440 0 -1
-0.0144794150 -0.0699350240 0 -1
-0.0157051460 -0.0678237870 0 -1
-0.0158420330 -0.0661634960 0 -1
-0.0148913420 -0.0651118370 0 -1
-0.0129603290 -0.0647637990 0 -1
-0.0102534300 -0.0651428270 0 -1
-0.0070524880 -0.0661992080 0 -1
-0.0036895410 -0.0678156150 0 -1
-0.0005141310 -0.0698201560 0 -1
0.0021425580 -0.0720054220 0 -1
0.0040023990 -0.0741495310 0 -1
0.0048686630 -0.0760357170 0 -1
0.0046440760 -0.0774696480 0 -1
0.0033377710 -0.0782951440 0 -1
0.0010626350 -0.0784086150 0 -1
-0.0019756270 -0.0777711620 0 -1
-0.0054970280 -0.0764158870 0 -1
-0.0091725770 -0.0744477120 0 -1
-0.0126546180 -0.0720342350 0 -1
-0.0156093330 -0.0693884630 0 -1
-0.0177484100 -0.0667466210 0 -1
-0.0188575890 -0.0643449210 0 -1
-0.0188190810 -0.0623978430 0 -1
-0.0176247150 -0.0610791770 0 -1
-0.0153784910 -0.0605069260 0 -1
-0.0122882930 -0.0607330890 0 -1
-0.0086463260 -0.0617389990 0 -1
-0.0047988470 -0.0634364720 0 -1
-0.0011086970 -0.0656747870 0 -1
0.0020831470 -0.0682534500 0 -1
0.0044911120 -0.0709401570 0 -1
0.0059105250 -0.0734921630 0 -1
0.0062342760 -0.0756788620 0 -1
0.0054608790 -0.0773036800 0 -1
0.0036940700 -0.0782231240 0 -1
0.0011336710 -0.0783605290 0 -1
-0.0019427430 -0.0777128270 0 -1
-0.0052071970 -0.0763502900 0 -1
-0.0083147850 -0.0744105200 0 -1
-0.0109383120 -0.0720875940 0 -1
-0.0128004030 -0.0696156180 0 -1
-0.0137003590 -0.0672462960 0 -1
-0.0135326170 -0.0652229310 0 -1
-0.0122953430 -0.0637554850 0 -1
-0.0100903150 -0.0630002030 0 -1
-0.0071151000 -0.0630449240 0 -1
-0.0036472500 -0.0639000170 0 -1
-0.0000204154 -0.0654948970 0 -1
0.0034068690 -0.0676807400 0 -1
0.0062875370 -0.0702409100 0 -1
0.0083235660 -0.0729105340 0 -1
0.0092997820 -0.0754048730 0 -1
0.0091090680 -0.0774532450 0 -1
0.0077654790 -0.0788325460 0 -1
0.0054034150 -0.0793936240 0 -1
0.0022624580 -0.0790762090 0 -1
-0.0013403530 -0.0779122280 0 -1
-0.0050459010 -0.0760194700 0 -1
-0.0084902800 -0.0735873880 0 -1
-0.0113400060 -0.0708567070 0 -1
-0.0133228630 -0.0680949810 0 -1
-0.0142526480 -0.0655697620 0 -1
-0.0140465220 -0.0635209840 0 -1
-0.0127334330 -0.0621356500 0 -1
-0.0104517700 -0.0615286920 0 -1
-0.0074354870 -0.0617327010 0 -1
-0.0039897590 -0.0626976070 0 -1
-0.0004591280 -0.0642997180 0 -1
0.0028075410 -0.0663576910 0 -1
0.0054914040 -0.0686522530 0 -1
0.0073347600 -0.0709472440 0 -1
0.0081659040 -0.0730107160 0 -1
0.0079137940 -0.0746352580 0 -1
0.0066116580 -0.0756565080 0 -1
0.0043921480 -0.0759677920 0 -1
0.0014749500 -0.0755286550 0 -1
-0.0018542090 -0.0743669680 0 -1
-0.0052714290 -0.0725762930 0 -1
-0.0084449420 -0.0703097870 0 -1
-0.0110650970 -0.0677700600 0 -1
-0.0128732570 -0.0651931920 0 -1
-0.0136870290 -0.0628256980 0 -1
-0.0134176160 -0.0608962210 0 -1
-0.0120778520 -0.0595871580 0 -1
-0.0097821180 -0.0590123470 0 -1
-0.0067382580 -0.0592048250 0 -1
-0.0032305180 -0.0601155100 0 -1
0.0004061610 -0.0616215860 0 -1
0.0038187990 -0.0635430070 0 -1
0.0066728390 -0.0656648860 0 -1
0.0086876290 -0.0677623280 0 -1
0.0096655920 -0.0696242130 0 -1
0.0095111620 -0.0710731600 0 -1
0.0082388390 -0.0719797940 0 -1
0.0059715430 -0.0722708670 0 -1
0.0029294230 -0.0719320980 0 -1
-0.0005912760 -0.0710064780 0 -1
-0.0042479340 -0.0695885880 0 -1
-0.0076861590 -0.0678156090 0 -1
-0.0105745840 -0.0658557950 0 -1
-0.0126360210 -0.0638951590 0 -1
-0.0136728090 -0.0621226390 0 -1
-0.0135852210 -0.0607139160 0 -1
-0.0123815320 -0.0598152700 0 -1
-0.0101780130 -0.0595296230 0 -1
-0.0071879740 -0.0599055160 0 -1
-0.0037002960 -0.0609290510 0 -1
-0.0000499697 -0.0625200560 0 -1
0.0034150380 -0.0645349020 0 -1
0.0063669090 -0.0667776650 0 -1
0.0085293650 -0.0690188450 0 -1
0.0097054870 -0.0710189890 0 -1
0.0097982080 -0.0725544470 0 -1
0.0088194100 -0.0734425470 0 -1
0.0068867340 -0.0735628530 0 -1
0.0042107180 -0.0728712920 0 -1
0.0010749560 -0.0714052410 0 -1
-0.0021900730 -0.0692792700 0 -1
-0.0052390270 -0.0666727050 0 -1
-0.0077472150 -0.0638113090 0 -1
-0.0094448820 -0.0609455000 0 -1
-0.0101451720 -0.0583269190 0 -1
-0.0097627920 -0.0561848250 0 -1
-0.0083225660 -0.0547044960 0 -1
-0.0059573820 -0.0540101140 0 -1
-0.0028952640 -0.0541531260 0 -1
0.0005634870 -0.0551060730 0 -1
0.0040770130 -0.0567630450 0 -1
0.0072975400 -0.0589484290 0 -1
0.0099075350 -0.0614341450 0 -1
0.0116514320 -0.0639637980 0 -1
0.0123594560 -0.0662807630 0 -1
0.0119621480 -0.0681557860 0 -1
0.0104953170 -0.0694098350 0 -1
0.0080954940 -0.0699299540 0 -1
0.0049863370 -0.0696777760 0 -1
0.0014567700 -0.0686908480 0 -1
-0.0021670670 -0.0670765300 0 -1
-0.0055516270 -0.0649988260 0 -1
-0.0083835910 -0.0626602380 0 -1
-0.0103956150 -0.0602813540 0 -1
-0.0113921530 -0.0580801650 0 -1
-0.0112730360 -0.0562528610 0 -1
-0.0100479160 -0.0549578080 0 -1
-0.0078360320 -0.0543035340 0 -1
-0.0048516770 -0.0543405810 0 -1
-0.0013806820 -0.0550571410 0 -1
0.0022466640 -0.0563789920 0 -1
0.0056850440 -0.0581743100 0 -1
0.0086068540 -0.0602635750 0 -1
0.0107358760 -0.0624347110 0 -1
0.0118755710 -0.0644631860 0 -1
0.0119268040 -0.0661355700 0 -1
0.0108942530 -0.0672737140 0 -1
0.0088837600 -0.0677559800 0 -1
0.0060923870 -0.0675318470 0 -1
0.0027913630 -0.0666274160 0 -1
-0.0006976910 -0.0651412840 0 -1
-0.0040318820 -0.0632317850 0 -1
-0.0068797930 -0.0610980870 0 -1
-0.0089555430 -0.0589586490 0 -1
-0.0100507030 -0.0570297720 0 -1
-0.0100595680 -0.0555054250 0 -1
-0.0089929540 -0.0545392730 0 -1
-0.0069767180 -0.0542301960 0 -1
-0.0042347650 -0.0546126250 0 -1
-0.0010608910 -0.0556533510 0 -1
0.0022146960 -0.0572555770 0 -1
0.0052592080 -0.0592689390 0 -1
0.0077673810 -0.0615035300 0 -1
0.0094857790 -0.0637465290 0 -1
0.0102321830 -0.0657803700 0 -1
0.0099116410 -0.0674016400 0 -1
0.0085288250 -0.0684402020 0 -1
0.0061940160 -0.0687772390 0 -1
0.0031187600 -0.0683593670 0 -1
-0.0004018290 -0.0672058420 0 -1
-0.0040192060 -0.0654078810 0 -1
-0.0073693590 -0.0631207970 0 -1
-0.0101133660 -0.0605497920 0 -1
-0.0119753170 -0.0579301990 0 -1
-0.0127719320 -0.0555037800 0 -1
-0.0124294310 -0.0534937200 0 -1
-0.0109873840 -0.0520814870 0 -1
-0.0085925400 -0.0513886840 0 -1
-0.0054840610 -0.0514660030 0 -1
-0.0019692040 -0.0522899020 0 -1
0.0016087360 -0.0537664990 0 -1
0.0049048890 -0.0557416100 0 -1
0.0076051070 -0.0580157300 0 -1
0.0094537260 -0.0603628740 0 -1
0.0102755040 -0.0625521790 0 -1
0.0099907860 -0.0643704220 0 -1
0.0086226790 -0.0656423130 0 -1
0.0062951520 -0.0662457800 0 -1
0.0032225580 -0.0661221590 0 -1
-0.0003081740 -0.0652824700 0 -1
-0.0039621450 -0.0638091420 0 -1
-0.0073873170 -0.0618512460 0 -1
-0.0102490610 -0.0596121550 0 -1
-0.0122641150 -0.0573302570 0 -1
-0.0132296060 -0.0552545340 0 -1
-0.0130438260 -0.0536173200 0 -1
-0.0117169750 -0.0526072150 0 -1
-0.0093714290 -0.0523462030 0 -1
-0.0062313150 -0.0528748390 0 -1
-0.0026014670 -0.0541472840 0 -1
0.0011625690 -0.0560363190 0 -1
0.0046903250 -0.0583481150 0 -1
0.0076337420 -0.0608447310 0 -1
0.0097011170 -0.0632705960 0 -1
0.0106843330 -0.0653801050 0 -1
0.0104783990 -0.0669639220 0 -1
0.0090921730 -0.0678705000 0 -1
0.0066481470 -0.0680195970 0 -1
0.0033707480 -0.0674066380 0 -1
-0.0004347580 -0.0660989090 0 -1
-0.0044103860 -0.0642255750 0 -1
-0.0081790160 -0.0619634800 0 -1
-0.0113813870 -0.0595202460 0 -1
-0.0137134460 -0.0571155100 0 -1
-0.0149598760 -0.0549608980 0 -1
-0.0150187910 -0.0532403850 0 -1
-0.0139134030 -0.0520940390 0 -1
-0.0117883510 -0.0516071610 0 -1
-0.0088910590 -0.0518043470 0 -1
-0.0055419840 -0.0526473760 0 -1
-0.0020993780 -0.0540378000 0 -1
0.0010772670 -0.0558259040 0 -1
0.0036626450 -0.0578256480 0 -1
0.0053966940 -0.0598329700 0 -1
0.0061073380 -0.0616448000 0 -1
0.0057232940 -0.0630773470 0 -1
0.0042779520 -0.0639823250 0 -1
0.0019059250 -0.0642595580 0 -1
-0.0011675940 -0.0638653940 0 -1
-0.0046457560 -0.0628172650 0 -1
-0.0081867390 -0.0611937500 0 -1
-0.0114353250 -0.0591289680 0 -1
-0.0140568790 -0.0568010570 0 -1
-0.0157718290 -0.0544156810 0 -1
-0.0163869450 -0.0521862540 0 -1
-0.0158177420 -0.0503131670 0 -1
-0.0140974310 -0.0489641630 0 -1
-0.0113715340 -0.0482571430 0 -1
-0.0078807780 -0.0482462070 0 -1
-0.0039359060 -0.0489127270 0 -1
0.0001122890 -0.0501641040 0 -1
0.0039051360 -0.0518417940 0 -1
0.0071083710 -0.0537381500 0 -1
0.0094423560 -0.0556201650 0 -1
0.0107080670 -0.0572569740 0 -1
0.0108060660 -0.0584469490 0 -1
0.0097454440 -0.0590404240 0 -1
0.0076420040 -0.0589555570 0 -1
0.0047065130 -0.0581865670 0 -1
0.0012233000 -0.0568042750 0 -1
-0.0024789600 -0.0549482110 0 -1
-0.0060592320 -0.0528098950 0 -1
-0.0091941030 -0.0506096030 0 -1
-0.0116045360 -0.0485715910 0 -1
-0.0130796800 -0.0469023510 0 -1
-0.0134962790 -0.0457733340 0 -1
-0.0128313330 -0.0453071660 0 -1
-0.0111664420 -0.0455668540 0 -1
-0.0086823250 -0.0465491650 0 -1
-0.0056421740 -0.0481841670 0 -1
-0.0023647980 -0.0503420390 0 -1
0.0008087040 -0.0528458720 0 -1
0.0035505580 -0.0554876930 0 -1
0.0055803010 -0.0580461010 0 -1
0.0066926290 -0.0603056240 0 -1
0.0067755680 -0.0620771390 0 -1
0.0058187710 -0.0632167900 0 -1
0.0039136670 -0.0636404190 0 -1
0.0012455900 -0.0633314590 0 -1
-0.0019234220 -0.0623415480 0 -1
-0.0052804940 -0.0607842600 0 -1
-0.0084932770 -0.0588229370 0 -1
-0.0112431020 -0.0566541500 0 -1
-0.0132563470 -0.0544891060 0 -1
-0.0143310300 -0.0525350240 0 -1
-0.0143568140 -0.0509775230 0 -1
-0.0133269660 -0.0499647990 0 -1
-0.0113405580 -0.0495944480 0 -1
-0.0085939300 -0.0499039810 0 -1
-0.0053616680 -0.0508663860 0 -1
-0.0019687890 -0.0523915260 0 -1
0.0012426010 -0.0543333320 0 -1
0.0039483100 -0.0565026650 0 -1
0.0058760500 -0.0586851540 0 -1
0.0068358860 -0.0606617310 0 -1
0.0067419470 -0.0622291320 0 -1
0.0056194920 -0.0632192620 0 -1
0.0035969660 -0.0635166020 0 -1
0.0008881050 -0.0630713350 0 -1
-0.0022314340 -0.0619054390 0 -1
-0.0054510200 -0.0601107710 0 -1
-0.0084533850 -0.0578401820 0 -1
-0.0109414890 -0.0552936050 0 -1
-0.0126627130 -0.0527007990 0 -1
-0.0134310500 -0.0503014600 0 -1
-0.0131471730 -0.0483229340 0 -1
-0.0118132730 -0.0469566780 0 -1
-0.0095376710 -0.0463367110 0 -1
-0.0065259200 -0.0465241980 0 -1
-0.0030593100 -0.0475005920 0 -1
0.0005353040 -0.0491692160 0 -1
0.0039196350 -0.0513638800 0 -1
0.0067775610 -0.0538636700 0 -1
0.0088447650 -0.0564139910 0 -1
0.0099326740 -0.0587532590 0 -1
0.0099457810 -0.0606419860 0 -1
0.0088910020 -0.0618892940 0 -1
0.0068776080 -0.0623730450 0 -1
0.0041070580 -0.0620521790 0 -1
0.0008533710 -0.0609707800 0 -1
-0.0025636760 -0.0592532470 0 -1
-0.0058091300 -0.0570904790 0 -1
-0.0085644630 -0.0547186980 0 -1
-0.0105589000 -0.0523938110 0 -1
-0.0115984690 -0.0503646340 0 -1
-0.0115886340 -0.0488483200 0 -1
-0.0105461690 -0.0480103860 0 -1
-0.0085976090 -0.0479499790 0 -1
-0.0059632430 -0.0486907890 0 -1
-0.0029284660 -0.0501790360 0 -1
0.0001908230 -0.0522892900 0 -1
0.0030803860 -0.0548366760 0 -1
0.0054537580 -0.0575931060 0 -1
0.0070742530 -0.0603063160 0 -1
0.0077749450 -0.0627219800 0 -1
0.0074755220 -0.0646088420 0 -1
0.0061925440 -0.0657844360 0 -1
0.0040401070 -0.0661366290 0 -1
0.0012200110 -0.0656366160 0 -1
-0.0019975820 -0.0643411800 0 -1
-0.0053010000 -0.0623843000 0 -1
-0.0083685790 -0.0599600760 0 -1
-0.0109009160 -0.0573004140 0 -1
-0.0126494360 -0.0546511850 0 -1
-0.0134386340 -0.0522493470 0 -1
-0.0131823090 -0.0503021790 0 -1
-0.0118948560 -0.0489696160 0 -1
-0.0096953710 -0.0483512500 0 -1
-0.0067991790 -0.0484793110 0 -1
-0.0034950280 -0.0493178430 0 -1
-0.0001128090 -0.0507673550 0 -1
0.0030117960 -0.0526742470 0 -1
0.0055716650 -0.0548445780 0 -1
0.0073178960 -0.0570610210 0 -1
0.0080812550 -0.0591015640 0 -1
0.0077851190 -0.0607594830 0 -1
0.0064523740 -0.0618637030 0 -1
0.0042068480 -0.0622967380 0 -1
0.0012661270 -0.0620065260 0 -1
-0.0020777590 -0.0610101540 0 -1
-0.0054890600 -0.0593899960 0 -1
-0.0086250030 -0.0572842600 0 -1
-0.0111722290 -0.0548741640 0 -1
-0.0128782730 -0.0523693030 0 -1
-0.0135746640 -0.0499913480 0 -1
-0.0131897620 -0.0479554670 0 -1
-0.0117524500 -0.0464499540 0 -1
-0.0093893990 -0.0456163420 0 -1
-0.0063160580 -0.0455328780 0 -1
-0.0028187820 -0.0462041820 0 -1
0.0007721030 -0.0475596460 0 -1
0.0041144030 -0.0494609510 0 -1
0.0068871700 -0.0517162470 0 -1
0.0088219550 -0.0540980720 0 -1
0.0097287290 -0.0563635760 0 -1
0.0095135610 -0.0582767140 0 -1
0.0081875930 -0.0596316070 0 -1
0.0058677930 -0.0602745420 0 -1
0.0027689360 -0.0601208260 0 -1
-0.0008147320 -0.0591638410 0 -1
-0.0045383240 -0.0574760620 0 -1
-0.0080421270 -0.0552028050 0 -1
-0.0109887280 -0.0525487810 0 -1
-0.0130972490 -0.0497575580 0 -1
-0.0141717940 -0.0470859220 0 -1
-0.0141211920 -0.0447767900 0 -1
-0.0129682300 -0.0430341450 0 -1
-0.0108475990 -0.0420026370 0 -1
-0.0079916590 -0.0417543310 0 -1
-0.0047043000 -0.0422841240 0 -1
-0.0013268940 -0.0435127100 0 -1
0.0017970890 -0.0452947560 0 -1
0.0043540210 -0.0474315460 0 -1
0.0060875870 -0.0496884770 0 -1
0.0068215180 -0.0518168340 0 -1
0.0064756870 -0.0535785400 0 -1
0.0050734410 -0.0547719940 0 -1
0.0027396810 -0.0552554390 0 -1
-0.0003100990 -0.0549638230 0 -1
-0.0037902330 -0.0539169900 0 -1
-0.0073734000 -0.0522186490 0 -1
-0.0107222100 -0.0500454950 0 -1
-0.0135193430 -0.0476262530 0 -1
-0.0154957210 -0.0452128820 0 -1
-0.0164560500 -0.0430494910 0 -1
-0.0162984380 -0.0413451660 0 -1
-0.0150255860 -0.0402546360 0 -1
-0.0127474990 -0.0398675980 0 -1
-0.0096744720 -0.0402048290 0 -1
-0.0060978690 -0.0412185920 0 -1
-0.0023595910 -0.0427965720 0 -1
0.0011847890 -0.0447707400 0 -1
0.0042040670 -0.0469330060 0 -1
0.0064256310 -0.0490572950 0 -1
0.0076603710 -0.0509239520 0 -1
0.0078161560 -0.0523413740 0 -1
0.0069024610 -0.0531625980 0 -1
0.0050289620 -0.0532971960 0 -1
0.0023975620 -0.0527186040 0 -1
-0.0007148010 -0.0514663730 0 -1
-0.0039831450 -0.0496428680 0 -1
-0.0070675800 -0.0474042590 0 -1
-0.0096472730 -0.0449462200 0 -1
-0.0114516240 -0.0424855330 0 -1
-0.0122863510 -0.0402395430 0 -1
-0.0120525250 -0.0384061250 0 -1
-0.0107566310 -0.0371468650 0 -1
-0.0085094510 -0.0365745610 0 -1
-0.0055139940 -0.0367445550 0 -1
-0.0020459420 -0.0376493950 0 -1
0.0015706590 -0.0392172990 0 -1
0.0049923160 -0.0413153380 0 -1
0.0078888030 -0.0437582830 0 -1
0.0099764980 -0.0463235950 0 -1
0.0110485600 -0.0487724020 0 -1
0.0109983640 -0.0508746210 0 -1
0.0098325320 -0.0524343810 0 -1
0.0076711640 -0.0533115120 0 -1
0.0047352520 -0.0534362190 0 -1
0.0013225190 -0.0528154130 0 -1
-0.0022255020 -0.0515301400 0 -1
-0.0055600580 -0.0497249820 0 -1
-0.0083604490 -0.0475919100 0 -1
-0.0103650990 -0.0453516920 0 -1
-0.0113958040 -0.0432349580 0 -1
-0.0113722910 -0.0414627260 0 -1
-0.0103165460 -0.0402256400 0 -1
-0.0083483440 -0.0396635290 0 -1
-0.0056731650 -0.0398489760 0 -1
-0.0025632880 -0.0407775940 0 -1
0.0006670070 -0.0423661490 0 -1
0.0036905320 -0.0444592080 0 -1
0.0061981980 -0.0468443850 0 -1
0.0079298550 -0.0492749110 0 -1
0.0087024990 -0.0514970320 0 -1
0.0084311690 -0.0532787400 0 -1
0.0071378650 -0.0544357000 0 -1
0.0049477840 -0.0548508470 0 -1
0.0020750580 -0.0544858710 0 -1
-0.0011998880 -0.0533843490 0 -1
-0.0045590870 -0.0516665080 0 -1
-0.0076783300 -0.0495158130 0 -1
-0.0102568570 -0.0471590660 0 -1
-0.0120426430 -0.0448424780 0 -1
-0.0128533430 -0.0428055180 0 -1
-0.0125939130 -0.0412550600 0 -1
-0.0112697730 -0.0403437370 0 -1
-0.0089915310 -0.0401556060 0 -1
-0.0059671260 -0.0407003420 0 -1
-0.0024809390 -0.0419158410 0 -1
0.0011362760 -0.0436779390 0 -1
0.0045420480 -0.0458148190 0 -1
0.0074176270 -0.0481239910 0 -1
0.0095004670 -0.0503910350 0 -1
0.0106099180 -0.0524094220 0 -1
0.0106629270 -0.0539993660 0 -1
0.0096786540 -0.0550232990 0 -1
0.0077735560 -0.0553969980 0 -1
0.0051495210 -0.0550964580 0 -1
0.0020761760 -0.0541600860 0 -1
-0.0011329200 -0.0526854130 0 -1
-0.0041494860 -0.0508201930 0 -1
-0.0066620940 -0.0487485530 0 -1
-0.0084059400 -0.0466735340 0 -1
-0.0091877510 -0.0447980260 0 -1
-0.0089049540 -0.0433059730 0 -1
-0.0075589110 -0.0423448980 0 -1
-0.0052598030 -0.0420104540 0 -1
-0.0022193770 -0.0423346600 0 -1
0.0012691230 -0.0432803720 0 -1
0.0048599070 -0.0447439570 0 -1
0.0081885700 -0.0465663270 0 -1
0.0109094470 -0.0485507780 0 -1
0.0127341020 -0.0504845110 0 -1
0.0134647730 -0.0521603490 0 -1
0.0130153320 -0.0533964630 0 -1
0.0114172680 -0.0540533640 0 -1
0.0088136660 -0.0540473000 0 -1
0.0054437430 -0.0533583410 0 -1
0.0016183710 -0.0520315570 0 -1
-0.0023117060 -0.0501712570 0 -1
-0.0059906570 -0.0479301230 0 -1
-0.0090908230 -0.0454954570 0 -1
-0.0113420460 -0.0430737650 0 -1
-0.0125555850 -0.0408741900 0 -1
-0.0126400680 -0.0390909920 0 -1
-0.0116077930 -0.0378853140 0 -1
-0.0095718570 -0.0373678100 0 -1
-0.0067350120 -0.0375851990 0 -1
-0.0033712840 -0.0385135670 0 -1
0.0001978680 -0.0400600110 0 -1
0.0036318260 -0.0420725670 0 -1
0.0066031160 -0.0443561880 0 -1
0.0088310230 -0.0466915560 0 -1
0.0101107320 -0.0488549300 0 -1
0.0103328970 -0.0506383860 0 -1
0.0094925740 -0.0518692010 0 -1
0.0076889480 -0.0524262900 0 -1
0.0051161450 -0.0522521150 0 -1
0.0020444820 -0.0513590920 0 -1
-0.0012068340 -0.0498296700 0 -1
-0.0043021120 -0.0478097370 0 -1
-0.0069226240 -0.0454955380 0 -1
-0.0087978010 -0.0431148640 0 -1
-0.0097309960 -0.0409045090 0 -1
-0.0096169240 -0.0390866230 0 -1
-0.0084499250 -0.0378459760 0 -1
-0.0063241010 -0.0373099780 0 -1
-0.0034260200 -0.0375337870 0 -1
-0.0000190114 -0.0384933130 0 -1
0.0035816250 -0.0400886150 0 -1
0.0070404230 -0.0421574480 0 -1
0.0100358590 -0.0444950930 0 -1
0.0122920470 -0.0468758580 0 -1
0.0136049740 -0.0490736170 0 -1
0.0138611000 -0.0508809210 0 -1
0.0130471150 -0.0521268800 0 -1
0.0112514680 -0.0526932700 0 -1
0.0086582540 -0.0525268120 0 -1
0.0055323350 -0.0516452270 0 -1
0.0021947930 -0.0501362970 0 -1
-0.0010097430 -0.0481505220 0 -1
-0.0037503430 -0.0458878290 0 -1
-0.0057466430 -0.0435786640 0 -1
-0.0067995070 -0.0414607840 0 -1
-0.0068108900 -0.0397544910 0 -1
-0.0057915410 -0.0386394870 0 -1
-0.0038573480 -0.0382360670 0 -1
-0.0012153830 -0.0385925320 0 -1
0.0018587910 -0.0396796920 0 -1
0.0050493130 -0.0413932100 0 -1
0.0080301100 -0.0435644270 0 -1
0.0104951500 -0.0459785250 0 -1
0.0121883200 -0.0483972750 0 -1
0.0129301610 -0.0505835780 0 -1
0.0126364100 -0.0523251680 0 -1
0.0113253090 -0.0534550470 0 -1
0.0091143080 -0.0538670370 0 -1
0.0062078930 -0.0535254670 0 -1
0.0028778260 -0.0524682060 0 -1
-0.0005623710 -0.0508024820 0 -1
-0.0037862980 -0.0486936990 0 -1
-0.0064848020 -0.0463485400 0 -1
-0.0083949950 -0.0439947410 0 -1
-0.0093260720 -0.0418598600 0 -1
-0.0091806350 -0.0401501330 0 -1
-0.0079688310 -0.0390300780 0 -1
-0.0058111530 -0.0386051900 0 -1
-0.0029278870 -0.0389110480 0 -1
0.0003838070 -0.0399103530 0 -1
0.0037821680 -0.0414968360 0 -1
0.0069169950 -0.0435046920 0 -1
0.0094640870 -0.0457238860 0 -1
0.0111557670 -0.0479217720 0 -1
0.0118069490 -0.0498685940 0 -1
0.0113344150 -0.0513619500 0 -1
0.0097660980 -0.0522467600 0 -1
0.0072386670 -0.0524300400 0 -1
0.0039831870 -0.0518899020 0 -1
0.0003001670 -0.0506773300 0 -1
-0.0034722010 -0.0489101150 0 -1
-0.0069919580 -0.0467596770 0 -1
-0.0099457770 -0.0444324580 0 -1
-0.0120768430 -0.0421486100 0 -1
-0.0132062160 -0.0401209930 0 -1
-0.0132470170 -0.0385365300 0 -1
-0.0122114060 -0.0375407400 0 -1
-0.0102103180 -0.0372256670 0 -1
-0.0074453850 -0.0376213390 0 -1
-0.0041919670 -0.0386918500 0 -1
-0.0007733570 -0.0403376990 0 -1
0.0024711770 -0.0424043200 0 -1
0.0052203100 -0.0446951380 0 -1
0.0072025890 -0.0469881770 0 -1
0.0082231180 -0.0490562440 0 -1
0.0081820400 -0.0506896040 0 -1
0.0070829260 -0.0517186370 0 -1
0.0050314820 -0.0520336020 0 -1
0.0022260090 -0.0515987300 0 -1
-0.0010595650 -0.0504579590 0 -1
-0.0044997840 -0.0487304420 0 -1
-0.0077480950 -0.0465959370 0 -1
-0.0104714540 -0.0442727070 0 -1
-0.0123846980 -0.0419927940 0 -1
-0.0132794040 -0.0399791680 0 -1
-0.0130442960 -0.0384265340 0 -1
-0.0116771920 -0.0374858270 0 -1
-0.0092880150 -0.0372526260 0 -1
-0.0060904870 -0.0377601690 0 -1
-0.0023810390 -0.0389771580 0 -1
0.0014928280 -0.0408097360 0 -1
0.0051699260 -0.0431071380 0 -1
0.0083132990 -0.0456714740 0 -1
0.0106441000 -0.0482725530 0 -1
0.0119675870 -0.0506681310 0 -1
0.0121884660 -0.0526285650 0 -1
0.0113152380 -0.0539627750 0 -1
0.0094560110 -0.0545405240 0 -1
0.0068077880 -0.0543067240 0 -1
0.0036387100 -0.0532865030 0 -1
0.0002631660 -0.0515818520 0 -1
-0.0029872800 -0.0493606830 0 -1
-0.0057934460 -0.0468395510 0 -1
-0.0078769170 -0.0442622970 0 -1
-0.0090265970 -0.0418767060 0 -1
-0.0091215890 -0.0399105610 0 -1
-0.0081473870 -0.0385490650 0 -1
-0.0062017870 -0.0379163260 0 -1
-0.0034874060 -0.0380628520 0 -1
-0.0002901020 -0.0389600360 0 -1
0.0030536070 -0.0405028880 0 -1
0.0061938840 -0.0425216630 0 -1
0.0088033920 -0.0448006460 0 -1
0.0106083640 -0.0471006650 0 -1
0.0114140540 -0.0491825970 0 -1
0.0111234010 -0.0508301500 0 -1
0.0097470410 -0.0518699860 0 -1
0.0074033220 -0.0521873730 0 -1
0.0043081460 -0.0517366660 0 -1
0.0007552490 -0.0505460450 0 -1
-0.0029114190 -0.0487153070 0 -1
-0.0063307040 -0.0464064180 0 -1
-0.0091607610 -0.0438285510 0 -1
-0.0111162470 -0.0412197160 0 -1
-0.0120004350 -0.0388256430 0 -1
-0.0117264360 -0.0368763600 0 -1
-0.0103253820 -0.0355626250 0 -1
-0.0079421210 -0.0350153620 0 -1
-0.0048190540 -0.0352907900 0 -1
-0.0012695900 -0.0363634500 0 -1
0.0023549740 -0.0381285510 0 -1
0.0057006150 -0.0404130350 0 -1
0.0084449710 -0.0429931280 0 -1
0.0103286940 -0.0456162220 0 -1
0.0111803550 -0.0480255300 0 -1
0.0109314950 -0.0499858360 0 -1
0.0096201240 -0.0513076610 0 -1
0.0073834030 -0.0518662620 0 -1
0.0044417660 -0.0516128820 0 -1
0.0010772320 -0.0505780440 0 -1
-0.0023914490 -0.0488675590 0 -1
-0.0056353520 -0.0466521730 0 -1
-0.0083443080 -0.0441518990 0 -1
-0.0102576740 -0.0416155470 0 -1
-0.0111920870 -0.0392958310 0 -1
-0.0110605930 -0.0374224780 0 -1
-0.0098811660 -0.0361779140 0 -1
-0.0077749390 -0.0356792010 0 -1
-0.0049543410 -0.0359671130 0 -1
-0.0017018260 -0.0370024350 0 -1
0.0016576430 -0.0386707120 0 -1
0.0047860230 -0.0407955240 0 -1
0.0073624520 -0.0431573500 0 -1
0.0091153180 -0.0455149490 0 -1
0.0098531620 -0.0476283320 0 -1
0.0094872820 -0.0492821930 0 -1
0.0080413930 -0.0503068470 0 -1
0.0056492780 -0.0505938090 0 -1
0.0025427160 -0.0501050380 0 -1
-0.0009703160 -0.0488759630 0 -1
-0.0045369600 -0.0470120470 0 -1
-0.0077964270 -0.0446785190 0 -1
-0.0104170100 -0.0420837270 0 -1
-0.0121295560 -0.0394580370 0 -1
-0.0127550630 -0.0370315640 0 -1
-0.0122233900 -0.0350134380 0 -1
-0.0105802640 -0.0335736460 0 -1
-0.0079814120 -0.0328281700 0 -1
-0.0046745250 -0.0328284270 0 -1
-0.0009719180 -0.0335560250 0 -1
0.0027814340 -0.0349240880 0 -1
0.0062406400 -0.0367863250 0 -1
0.0090926520 -0.0389527400 0 -1
0.0110851840 -0.0412087560 0 -1
0.0120493160 -0.0433351020 0 -1
0.0119123220 -0.0451274960 0 -1
0.0107001980 -0.0464152170 0 -1
0.0085331400 -0.0470771040 0 -1
0.0056173020 -0.0470536880 0 -1
0.0022317390 -0.0463544090 0 -1
-0.0012927160 -0.0450588320 0 -1
-0.0046032620 -0.0433103210 0 -1
-0.0073611290 -0.0413015510 0 -1
-0.0092795340 -0.0392540190 0 -1
-0.0101575720 -0.0373950770 0 -1
-0.0099035880 -0.0359349050 0 -1
-0.0085444760 -0.0350453340 0 -1
-0.0062215190 -0.0348429990 0 -1
-0.0031747750 -0.0353785030 0 -1
0.0002827540 -0.0366310700 0 -1
0.0037985990 -0.0385080700 0 -1
0.0070171020 -0.0408511550 0 -1
0.0096145090 -0.0434512540 0 -1
0.0113303180 -0.0460712920 0 -1
0.0119920340 -0.0484724760 0 -1
0.0115307430 -0.0504400520 0 -1
0.0099863050 -0.0518057250 0 -1
0.0075021970 -0.0524646610 0 -1
0.0043106560 -0.0523853110 0 -1
0.0007090880 -0.0516103340 0 -1
-0.0029697490 -0.0502481540 0 -1
-0.0063892450 -0.0484576360 0 -1
-0.0092385430 -0.0464301910 0 -1
-0.0112597260 -0.0443724060 0 -1
-0.0122723760 -0.0424893980 0 -1
-0.0121926220 -0.0409678100 0 -1
-0.0110423810 -0.0399589410 0 -1
-0.0089462800 -0.0395644080 0 -1
-0.0061177730 -0.0398266180 0 -1
-0.0028384750 -0.0407247300 0 -1
0.0005669430 -0.0421759480 0 -1
0.0037602990 -0.0440422560 0 -1
0.0064230460 -0.0461428850 0 -1
0.0082895620 -0.0482715690 0 -1
0.0091754660 -0.0502167310 0 -1
0.0089963320 -0.0517826600 0 -1
0.0077755570 -0.0528095270 0 -1
0.0056428040 -0.0531898230 0 -1
0.0028228950 -0.0528795960 0 -1
-0.0003866020 -0.0519037780 0 -1
-0.0036474870 -0.0503549730 0 -1
-0.0066169970 -0.0483848960 0 -1
-0.0089821270 -0.0461886480 0 -1
-0.0104890110 -0.0439839160 0 -1
-0.0109661750 -0.0419883470 0 -1
-0.0103412970 -0.0403977300 0 -1
-0.0086502290 -0.0393667190 0 -1
-0.0060353210 -0.0389940750 0 -1
-0.0027307360 -0.0393142590 0 -1
0.0009638870 -0.0402953990 0 -1
0.0047162160 -0.0418426470 0 -1
0.0081944050 -0.0438068970 0 -1
0.0110964680 -0.0459991880 0 -1
0.0131741530 -0.0482093080 0 -1
0.0142519680 -0.0502259440 0 -1
0.0142428350 -0.0518563430 0 -1
0.0131596690 -0.0529441400 0 -1
0.0111186130 -0.0533839690 0 -1
0.0083297900 -0.0531315740 0 -1
0.0050760100 -0.0522086010 0 -1
0.0016830450 -0.0507013860 0 -1
-0.0015147070 -0.0487530600 0 -1
-0.0042087090 -0.0465493140 0 -1
-0.0061462430 -0.0442999620 0 -1
-0.0071532450 -0.0422190240 0 -1
-0.0071493490 -0.0405048600 0 -1
-0.0061550100 -0.0393210570 0 -1
-0.0042902280 -0.0387795070 0 -1
-0.0017641190 -0.0389279060 0 -1
0.0011442930 -0.0397436030 0 -1
0.0041122340 -0.0411349840 0 -1
0.0068044650 -0.0429505820 0 -1
0.0089081350 -0.0449955050 0 -1
0.0101683250 -0.0470537930 0 -1
0.0104186640 -0.0489132340 0 -1
0.0096001050 -0.0503878660 0 -1
0.0077645580 -0.0513352300 0 -1
0.0050656590 -0.0516685530 0 -1
0.0017403120 -0.0513647120 0 -1
-0.0019165560 -0.0504669160 0 -1
-0.0055809240 -0.0490799240 0 -1
-0.0089284760 -0.0473576190 0 -1
-0.0116617120 -0.0454856210 0 -1
-0.0135357800 -0.0436618110 0 -1
-0.0143815290 -0.0420761390 0 -1
-0.0141221080 -0.0408916180 0 -1
-0.0127808880 -0.0402293860 0 -1
-0.0104810330 -0.0401591170 0 -1
-0.0074372040 -0.0406941430 0 -1
-0.0039389070 -0.0417908540 0 -1
-0.0003253570 -0.0433529640 0 -1
0.0030466710 -0.0452404700 0 -1
0.0058391640 -0.0472819710 0 -1
0.0077690740 -0.0492891580 0 -1
0.0086391320 -0.0510732510 0 -1
0.0083588570 -0.0524631420 0 -1
0.0069533960 -0.0533236390 0 -1
0.0045599480 -0.0535707320 0 -1
0.0014130970 -0.0531810030 0 -1
-0.0021789750 -0.0521940740 0 -1
-0.0058651580 -0.0507085800 0 -1
-0.0092860950 -0.0488728270 0 -1
-0.0121094860 -0.0468710730 0 -1
-0.0140625280 -0.0449063090 0 -1
-0.0149581050 -0.0431809050 0 -1
-0.0147124690 -0.0418771610 0 -1
-0.0133532650 -0.0411398630 0 -1
-0.0110166480 -0.0410626330 0 -1
-0.0079332070 -0.0416789440 0 -1
-0.0044045060 -0.0429578680 0 -1
-0.0007726940 -0.0448048520 0 -1
0.0026138020 -0.0470680620 0 -1
0.0054345190 -0.0495500880 0 -1
0.0074274430 -0.0520243290 0 -1
0.0084127520 -0.0542555350 0 -1
0.0083080210 -0.0560232890 0 -1
0.0071352220 -0.0571457390 0 -1
0.0050197960 -0.0575004660 0 -1
0.0021799730 -0.0570397740 0 -1
-0.0010946010 -0.0557979590 0 -1
-0.0044723600 -0.0538890380 0 -1
-0.0076135990 -0.0514956020 0 -1
-0.0102048980 -0.0488508050 0 -1
-0.0119900410 -0.0462149890 0 -1
-0.0127939250 -0.0438486130 0 -1
-0.0125381830 -0.0419848830 0 -1
-0.0112486290 -0.0408064510 0 -1
-0.0090543100 -0.0404290260 0 -1
-0.0061769440 -0.0408924230 0 -1
-0.0029096670 -0.0421582600 0 -1
0.0004133530 -0.0441136350 0 -1
0.0034518370 -0.0465802470 0 -1
0.0058941110 -0.0493288700 0 -1
0.0074885390 -0.0520994440 0 -1
0.0080691310 -0.0546256120 0 -1
0.0075725450 -0.0566606170 0 -1
0.0060443820 -0.0580016290 0 -1
0.0036337470 -0.0585105880 0 -1
0.0005758550 -0.0581291960 0 -1
-0.0028348800 -0.0568853470 0 -1
-0.0062753500 -0.0548898800 0 -1
-0.0094221360 -0.0523252710 0 -1
-0.0119768970 -0.0494286450 0 -1
-0.0136914750 -0.0464694010 0 -1
-0.0143928100 -0.0437211310 0 -1
-0.0140033470 -0.0414312800 0 -1
-0.0125522040 -0.0397951710 0 -1
-0.0101746640 -0.0389386010 0 -1
-0.0070993330 -0.0389089110 0 -1
-0.0036244270 -0.0396731450 0 -1
-0.0000871417 -0.0411230470 0 -1
0.0031693360 -0.0430869270 0 -1
0.0058282680 -0.0453474430 0 -1
0.0076297260 -0.0476633980 0 -1
0.0083965990 -0.0497931520 0 -1
0.0080526670 -0.0515173310 0 -1
0.0066297310 -0.0526592680 0 -1
0.0042631930 -0.0531019560 0 -1
0.0011777660 -0.0527999990 0 -1
-0.0023348740 -0.0517847970 0 -1
-0.0059444840 -0.0501615030 0 -1
-0.0093127440 -0.0480978190 0 -1
-0.0121218090 -0.0458064250 0 -1
-0.0141006030 -0.0435229630 0 -1
-0.0150501750 -0.0414814770 0 -1
-0.0148663450 -0.0398903010 0 -1
-0.0135550950 -0.0389114380 0 -1
-0.0112363470 -0.0386451470 0 -1
-0.0081332490 -0.0391203910 0 -1
-0.0045475410 -0.0402914080 0 -1
-0.0008258300 -0.0420405780 0 -1
0.0026772790 -0.0441884480 0 -1
0.0056349700 -0.0465119250 0 -1
0.0077800690 -0.0487693190 0 -1
0.0089297620 -0.0507279410 0 -1
0.0090010430 -0.0521893350 0 -1
0.0080171000 -0.0530087340 0 -1
0.0061047660 -0.0531070160 0 -1
0.0034812830 -0.0524748310 0 -1
0.0004303740 -0.0511698820 0 -1
-0.0027276770 -0.0493091680 0 -1
-0.0056657600 -0.0470576810 0 -1
-0.0080775230 -0.0446141000 0 -1
-0.0097045050 -0.0421936600 0 -1
-0.0103621540 -0.0400088630 0 -1
-0.0099602450 -0.0382495720 0 -1
-0.0085137320 -0.0370651490 0 -1
-0.0061429420 -0.0365516590 0 -1
-0.0030628890 -0.0367452880 0 -1
0.0004383070 -0.0376209930 0 -1
0.0040297580 -0.0390950170 0 -1
0.0073721690 -0.0410308450 0 -1
0.0101516950 -0.0432492550 0 -1
0.0121105570 -0.0455434190 0 -1
0.0130723850 -0.0476984880 0 -1
0.0129603180 -0.0495126740 0 -1
0.0118060440 -0.0508162020 0 -1
0.0097477410 -0.0514863410 0 -1
0.0070153650 -0.0514585740 0 -1
0.0039043630 -0.0507338020 0 -1
0.0007426860 -0.0493802850 0 -1
-0.0021430580 -0.0475288220 0 -1
-0.0044590390 -0.0453610180 0 -1
-0.0059716620 -0.0430919390 0 -1
-0.0065284590 -0.0409491210 0 -1
-0.0060701260 -0.0391495810 0 -1
-0.0046341540 -0.0378766630 0 -1
-0.0023516090 -0.0372597710 0 -1
0.0005636740 -0.0373605180 0 -1
0.0038349980 -0.0381669290 0 -1
0.0071499950 -0.0395948690 0 -1
0.0101903610 -0.0414955000 0 -1
0.0126609960 -0.0436685520 0 -1
0.0143178890 -0.0458812820 0 -1
0.0149925650 -0.0478922830 0 -1
0.0146089450 -0.0494782330 0 -1
0.0131908870 -0.0504600750 0 -1
0.0108615310 -0.0507242760 0 -1
0.0078343320 -0.0502354980 0 -1
0.0043941930 -0.0490390240 0 -1
0.0008696500 -0.0472534190 0 -1
-0.0023999700 -0.0450558880 0 -1
-0.0050982310 -0.0426635420 0 -1
-0.0069627380 -0.0403129110 0 -1
-0.0078108050 -0.0382389750 0 -1
-0.0075573340 -0.0366548590 0 -1
-0.0062239090 -0.0357331940 0 -1
-0.0039388340 -0.0355896500 0 -1
-0.0009264350 -0.0362695340 0 -1
0.0025163870 -0.0377399030 0 -1
0.0060540020 -0.0398899640 0 -1
0.0093489470 -0.0425404240 0 -1
0.0120950590 -0.0454599350 0 -1
0.0140447750 -0.0483866190 0 -1
0.0150310180 -0.0510535530 0 -1
0.0149826440 -0.0532163170 0 -1
0.0139306980 -0.0546787470 0 -1
0.0120035070 -0.0553126570 0 -1
0.0094114380 -0.0550692990 0 -1
0.0064246270 -0.0539822290 0 -1
0.0033471080 -0.0521618530 0 -1
0.0004896070 -0.0497826100 0 -1
-0.0018578260 -0.0470650470 0 -1
-0.0034524520 -0.0442552360 0 -1
-0.0041232230 -0.0416029070 0 -1
-0.0037900110 -0.0393390700 0 -1
-0.0024745070 -0.0376543470 0 -1
-0.0003013570 -0.0366801380 0 -1
0.0025111640 -0.0364755630 0 -1
0.0056720570 -0.0370225120 0 -1
0.0088485730 -0.0382288100 0 -1
0.0117012990 -0.0399380710 0 -1
0.0139179750 -0.0419452910 0 -1
0.0152447660 -0.0440174450 0 -1
0.0155136510 -0.0459173240 0 -1
0.0146614820 -0.0474281330 0 -1
0.0127369250 -0.0483759810 0 -1
0.0098944530 -0.0486472320 0 -1
0.0063762270 -0.0481985810 0 -1
0.0024849580 -0.0470598390 0 -1
-0.0014466840 -0.0453306150 0 -1
-0.0050856600 -0.0431715270 0 -1
-0.0081261530 -0.0407899240 0 -1
-0.0103156380 -0.0384202850 0 -1
-0.0114781570 -0.0363004830 0 -1
-0.0115321260 -0.0346468510 0 -1
-0.0105004240 -0.0336321190 0 -1
-0.0085105420 -0.0333689600 0 -1
-0.0057829220 -0.0338996770 0 -1
-0.0026084930 -0.0351917750 0 -1
0.0006809640 -0.0371398280 0 -1
0.0037460660 -0.0395737810 0 -1
0.0062735170 -0.0422729470 0 -1
0.0080068280 -0.0449853710 0 -1
0.0087712030 -0.0474522560 0 -1
0.0084899660 -0.0494352710 0 -1
0.0071909130 -0.0507428350 0 -1
0.0050031090 -0.0512513760 0 -1
0.0021443540 -0.0509183030 0 -1
-0.0011009930 -0.0497850850 0 -1
-0.0044108300 -0.0479707850 0 -1
-0.0074556120 -0.0456579700 0 -1
-0.0099281270 -0.0430739450 0 -1
-0.0115726870 -0.0404699170 0 -1
-0.0122113590 -0.0380985560 0 -1
-0.0117631500 -0.0361891350 0 -1
-0.0102531870 -0.0349220140 0 -1
-0.0078109090 -0.0344082670 0 -1
-0.0046576070 -0.0346799850 0 -1
-0.0010843930 -0.0356915380 0 -1
0.0025769740 -0.0373277540 0 -1
0.0059861310 -0.0394159000 0 -1
0.0088251020 -0.0417414710 0 -1
0.0108266800 -0.0440681930 0 -1
0.0117993870 -0.0461606320 0 -1
0.0116468590 -0.0478067510 0 -1
0.0103789700 -0.0488383060 0 -1
0.0081128840 -0.0491474230 0 -1
0.0050632930 -0.0486976280 0 -1
0.0015222390 -0.0475282210 0 -1
-0.0021694090 -0.0457514260 0 -1
-0.0056554240 -0.0435416920 0 -1
-0.0085996340 -0.0411175890 0 -1
-0.0107206370 -0.0387185950 0 -1
-0.0118217480 -0.0365796000 0 -1
-0.0118118320 -0.0349058420 0 -1
-0.0107146730 -0.0338515450 0 -1
-0.0086656230 -0.0335054020 0 -1
-0.0058951070 -0.0338845280 0 -1
-0.0027019440 -0.0349364000 0 -1
0.0005776380 -0.0365469410 0 -1
0.0036010850 -0.0385528230 0 -1
0.0060503430 -0.0407568510 0 -1
0.0076621290 -0.0429456490 0 -1
0.0082543120 -0.0449086290 0 -1
0.0077443520 -0.0464573500 0 -1
0.0061582540 -0.0474444070 0 -1
0.0036294620 -0.0477791920 0 -1
0.0003864320 -0.0474367820 0 -1
-0.0032707330 -0.0464586950 0 -1
-0.0070009300 -0.0449474420 0 -1
-0.0104552790 -0.0430567190 0 -1
-0.0133093420 -0.0409773110 0 -1
-0.0152927650 -0.0389185120 0 -1
-0.0162158040 -0.0370865370 0 -1
-0.0159906190 -0.0356636240 0 -1
-0.0146430080 -0.0347915560 0 -1
-0.0123106900 -0.0345601550 0 -1
-0.0092271640 -0.0349989690 0 -1
-0.0056941930 -0.0360724230 0 -1
-0.0020491630 -0.0376806090 0 -1
0.0013668790 -0.0396666310 0 -1
0.0042384830 -0.0418301610 0 -1
0.0063026540 -0.0439466270 0 -1
0.0073723750 -0.0457902560 0 -1
0.0073547990 -0.0471581030 0 -1
0.0062619650 -0.0478920170 0 -1
0.0042116420 -0.0478956420 0 -1
0.0014170360 -0.0471447950 0 -1
-0.0018338080 -0.0456910910 0 -1
-0.0052064250 -0.0436581210 0 -1
-0.0083531180 -0.0412293500 0 -1
-0.0109479570 -0.0386292600 0 -1
-0.0127204110 -0.0361006160 0 -1
-0.0134832910 -0.0338801080 0 -1
-0.0131515360 -0.0321745310 0 -1
-0.0117505970 -0.0311401940 0 -1
-0.0094144160 -0.0308679310 0 -1
-0.0063731740 -0.0313751430 0 -1
-0.0029317550 -0.0326053270 0 -1
0.0005594630 -0.0344345900 0 -1
0.0037397650 -0.0366840970 0 -1
0.0062763520 -0.0391372170 0 -1
0.0079005280 -0.0415598510 0 -1
0.0084357750 -0.0437219640 0 -1
0.0078142760 -0.0454184250 0 -1
0.0060820350 -0.0464879530 0 -1
0.0033932990 -0.0468290480 0 -1
-0.0000060205 -0.0464107730 0 -1
-0.0038045110 -0.0452764700 0 -1
-0.0076564070 -0.0435400170 0 -1
-0.0112132420 -0.0413753060 0 -1
-0.0141543480 -0.0389997680 0 -1
-0.0162156020 -0.0366528810 0 -1
-0.0172147010 -0.0345714070 0 -1
-0.0170702710 -0.0329645840 0 -1
-0.0158119880 -0.0319935000 0 -1
-0.0135795110 -0.0317571410 0 -1
-0.0106090460 -0.0322847400 0 -1
-0.0072084600 -0.0335333820 0 -1
-0.0037245210 -0.0353911530 0 -1
-0.0005068220 -0.0376864020 0 -1
0.0021277170 -0.0402031610 0 -1
0.0039264400 -0.0427026630 0 -1
0.0047257410 -0.0449494260 0 -1
0.0044663540 -0.0467371010 0 -1
0.0031966470 -0.0479084990 0 -1
0.0010638070 -0.0483677750 0 -1
-0.0017041930 -0.0480858630 0 -1
-0.0048224890 -0.0471005600 0 -1
-0.0079766040 -0.0455119410 0 -1
-0.0108514420 -0.0434736190 0 -1
-0.0131605450 -0.0411802570 0 -1
-0.0146734150 -0.0388514330 0 -1
-0.0152381210 -0.0367117260 0 -1
-0.0147964520 -0.0349681670 0 -1
-0.0133897600 -0.0337882420 0 -1
-0.0111547720 -0.0332820530 0 -1
-0.0083097070 -0.0334908960 0 -1
-0.0051326920 -0.0343828360 0 -1
-0.0019355480 -0.0358552450 0 -1
0.0009646600 -0.0377445100 0 -1
0.0032746450 -0.0398424330 0 -1
0.0047532060 -0.0419172600 0 -1
0.0052370750 -0.0437367470 0 -1
0.0046603330 -0.0450911240 0 -1
0.0030633390 -0.0458140890 0 -1
0.0005903280 -0.0457997570 0 -1
-0.0025233920 -0.0450133140 0 -1
-0.0059740310 -0.0434937540 0 -1
-0.0094199440 -0.0413491360 0 -1
-0.0125173150 -0.0387463960 0 -1
-0.0149573790 -0.0358970470 0 -1
-0.0164999810 -0.0330391540 0 -1
-0.0169977910 -0.0304161090 0 -1
-0.0164083120 -0.0282531790 0 0
-0.0147942010 -0.0267339880 0 0
-0.0123137210 -0.0259804240 0 0
-0.0092032120 -0.0260393020 0 0
-0.0057535400 -0.0268774260 0 0
-0.0022828440 -0.0283851690 0 0
0.0008920560 -0.0303879570 0 -1
0.0034834420 -0.0326645480 0 -1
0.0052576080 -0.0349702650 0 -1
0.0060552340 -0.0370625440 0 -1
0.0058058130 -0.0387257000 0 -1
0.0045347860 -0.0397920590 0 -1
0.0023623250 -0.0401576190 0 -1
-0.0005064690 -0.0397913620 0 -1
-0.0037991500 -0.0387375430 0 -1
-0.0071997790 -0.0371107790 0 -1
-0.0103773320 -0.0350849850 0 -1
-0.0130167690 -0.0328773970 0 -1
-0.0148503030 -0.0307277650 0 -1
-0.0156856080 -0.0288735540 0 0
-0.0154274340 -0.0275242900 0 0
-0.0140900410 -0.0268388830 0 0
-0.0117985670 -0.0269086840 0 0
-0.0087781360 -0.0277477750 0 0
-0.0053319580 -0.0292912650 0 0
-0.0018116100 -0.0314019890 0 -1
0.0014179860 -0.0338854190 0 -1
0.0040165590 -0.0365114690 0 -1
0.0057056060 -0.0390402660 0 -1
0.0062992490 -0.0412476570 0 -1
0.0057232630 -0.0429464820 0 -1
0.0040201690 -0.0440016130 0 -1
0.0013428030 -0.0443387680 0 -1
-0.0020607570 -0.0439477560 0 -1
-0.0058699170 -0.0428810300 0 -1
-0.0097215900 -0.0412487030 0 -1
-0.0132458750 -0.0392106600 0 -1
-0.0161031960 -0.0369649900 0 -1
-0.0180174830 -0.0347314800 0 -1
-0.0188017210 -0.0327306510 0 -1
-0.0183751490 -0.0311613790 0 -1
-0.0167722710 -0.0301805720 0 -1
-0.0141424180 -0.0298872160 0 0
-0.0107371490 -0.0303126910 0 -1
-0.0068840360 -0.0314186940 0 -1
-0.0029501360 -0.0331023540 0 -1
0.0006973040 -0.0352069610 0 -1
0.0037262520 -0.0375368860 0 -1
0.0058688680 -0.0398755500 0 -1
0.0069435630 -0.0420052410 0 -1
0.0068691550 -0.0437274500 0 -1
0.0056698600 -0.0448818630 0 -1
0.0034709470 -0.0453619000 0 -1
0.0004865510 -0.0451253710 0 -1
-0.0029986020 -0.0441993000 0 -1
-0.0066533130 -0.0426777420 0 -1
-0.0101303260 -0.0407124730 0 -1
-0.0131011700 -0.0384981090 0 -1
-0.0152908690 -0.0362536120 0 -1
-0.0165068940 -0.0342016790 0 -1
-0.0166577580 -0.0325473260 0 -1
-0.0157593550 -0.0314574110 0 -1
-0.0139297430 -0.0310435940 0 -1
-0.0113741890 -0.0313509870 0 -1
-0.0083633060 -0.0323532860 0 -1
-0.0052082240 -0.0339540790 0 -1
-0.0022351810 -0.0359942570 0 -1
0.0002420760 -0.0382662350 0 -1
0.0019540100 -0.0405351250 0 -1
0.0027074200 -0.0425645680 0 -1
0.0024099020 -0.0441426530 0 -1
0.0010814340 -0.0451036680 0 -1
-0.0011475570 -0.0453434960 0 -1
-0.0040508980 -0.0448282110 0 -1
-0.0073322900 -0.0435962660 0 -1
-0.0106577090 -0.0417547350 0 -1
-0.0136895920 -0.0394692610 0 -1
-0.0161192230 -0.0369477760 0 -1
-0.0176954320 -0.0344197850 0 -1
-0.0182483870 -0.0321137300 0 -1
-0.0177067250 -0.0302349220 0 -1
-0.0161057350 -0.0289465660 0 0
-0.0135846780 -0.0283554000 0 0
-0.0103728240 -0.0285024600 0 0
-0.0067661540 -0.0293597830 0 0
-0.0030984300 -0.0308337020 0 -1
0.0002895580 -0.0327739440 0 -1
0.0030804320 -0.0349869890 0 -1
0.0050096710 -0.0372529720 0 -1
0.0058922170 -0.0393458300 0 -1
0.0056420490 -0.0410554870 0 -1
0.0042817090 -0.0422097260 0 -1
0.0019419070 -0.0426928080 0 -1
-0.0011482990 -0.0424579670 0 -1
-0.0046816870 -0.0415318990 0 -1
-0.0083035190 -0.0400109820 0 -1
-0.0116491140 -0.0380503440 0 -1
-0.0143821100 -0.0358476640 0 -1
-0.0162281640 -0.0336236040 0 -1
-0.0170012240 -0.0316005920 0 -1
-0.0166210400 -0.0299817670 0 0
-0.0151216440 -0.0289320730 0 0
-0.0126502270 -0.0285626950 0 0
-0.0094546450 -0.0289192960 0 0
-0.0058591620 -0.0299751590 0 0
-0.0022316420 -0.0316308840 0 -1
0.0010530910 -0.0337219240 0 -1
0.0036507680 -0.0360349290 0 -1
0.0052837270 -0.0383320460 0 -1
0.0057710800 -0.0403788560 0 -1
0.0050479340 -0.0419703570 0 -1
0.0031705870 -0.0429513740 0 -1
0.0003075080 -0.0432301980 0 -1
-0.0032808220 -0.0427855000 0 -1
-0.0072686330 -0.0416669350 0 -1
-0.0112950960 -0.0399892270 0 -1
-0.0149965540 -0.0379198900 0 -1
-0.0180389150 -0.0356624550 0 -1
-0.0201481740 -0.0334374120 0 -1
-0.0211372060 -0.0314619850 0 -1
-0.0209252090 -0.0299299560 0 0
-0.0195453980 -0.0289933310 0 0
-0.0171402760 -0.0287471320 0 0
-0.0139471340 -0.0292185020 0 0
-0.0102757420 -0.0303619980 0 -1
-0.0064791830 -0.0320626140 0 -1
-0.0029203630 -0.0341470290 0 -1
0.0000622451 -0.0364022600 0 -1
0.0021873680 -0.0385987730 0 -1
0.0032605810 -0.0405140800 0 -1
0.0031967470 -0.0419542660 0 -1
0.0020299730 -0.0427723090 0 -1
-0.0000910102 -0.0428820500 0 -1
-0.0029205100 -0.0422665540 0 -1
-0.0061436490 -0.0409801380 0 -1
-0.0094109260 -0.0391439920 0 -1
-0.0123760830 -0.0369357790 0 -1
-0.0147330330 -0.0345733220 0 -1
-0.0162464430 -0.0322925910 0 -1
-0.0167718210 -0.0303222430 0 -1
-0.0162648480 -0.0288591960 0 0
-0.0147818360 -0.0280491680 0 0
-0.0124719840 -0.0279737340 0 0
-0.0095611230 -0.0286442650 0 0
-0.0063285330 -0.0300028610 0 -1
-0.0030804220 -0.0319292810 0 -1
-0.0001227270 -0.0342521720 0 -1
0.0022656500 -0.0367636500 0 -1
0.0038577780 -0.0392368910 0 -1
0.0044993210 -0.0414457550 0 -1
0.0041224810 -0.0431851400 0 -1
0.0027526070 -0.0442906500 0 -1
0.0005078100 -0.0446553660 0 -1
-0.0024087750 -0.0442415020 0 -1
-0.0057250630 -0.0430861060 0 -1
-0.0091244060 -0.0413004790 0 -1
-0.0122760420 -0.0390621000 0 -1
-0.0148680340 -0.0365980160 0 -1
-0.0166391770 -0.0341608400 0 -1
-0.0174064300 -0.0320007340 0 -1
-0.0170844970 -0.0303373550 0 -1
-0.0156957600 -0.0293354490 0 0
-0.0133700050 -0.0290875840 0 0
-0.0103329570 -0.0296070510 0 0
-0.0068831450 -0.0308314610 0 -1
-0.0033595350 -0.0326341540 0 -1
-0.0001053970 -0.0348390070 0 -1
0.0025660560 -0.0372362630 0 -1
0.0044008540 -0.0395999610 0 -1
0.0052264520 -0.0417075860 0 -1
0.0049659400 -0.0433603070 0 -1
0.0036441080 -0.0444014010 0 -1
0.0013854810 -0.0447313600 0 -1
-0.0015957080 -0.0443186050 0 -1
-0.0050134520 -0.0432043290 0 -1
-0.0085350470 -0.0414999930 0 -1
-0.0118118520 -0.0393769690 0 -1
-0.0145138120 -0.0370493160 0 -1
-0.0163642890 -0.0347513200 0 -1
-0.0171706620 -0.0327120240 0 -1
-0.0168468400 -0.0311302760 0 -1
-0.0154244100 -0.0301540740 0 -1
-0.0130496100 -0.0298665320 0 0
-0.0099660560 -0.0302796120 0 -1
-0.0064867040 -0.0313357900 0 -1
-0.0029603900 -0.0329165490 0 -1
0.0002624580 -0.0348558140 0 -1
0.0028627670 -0.0369563670 0 -1
0.0045830750 -0.0390078010 0 -1
0.0052521230 -0.0408052000 0 -1
0.0048012290 -0.0421676830 0 -1
0.0032719220 -0.0429550440 0 -1
0.0008135250 -0.0430806030 0 -1
-0.0023322640 -0.0425192720 0 -1
-0.0058594430 -0.0413106000 0 -1
-0.0094322810 -0.0395569420 0 -1
-0.0127188090 -0.0374164950 0 -1
-0.0154193760 -0.0350898990 0 -1
-0.0172901240 -0.0327997350 0 -1
-0.0181623730 -0.0307653040 0 -1
-0.0179581600 -0.0291777990 0 0
-0.0166999380 -0.0281807590 0 0
-0.0145108000 -0.0278579700 0 0
-0.0116035330 -0.0282282470 0 0
-0.0082603530 -0.0292456300 0 0
-0.0048059330 -0.0308040450 0 -1
-0.0015756560 -0.0327463680 0 -1
0.0011178230 -0.0348784700 0 -1
0.0030154670 -0.0369877840 0 -1
0.0039373230 -0.0388642800 0 -1
0.0038010160 -0.0403207380 0 -1
0.0026310540 -0.0412098340 0 -1
0.0005566780 -0.0414371610 0 -1
-0.0022023360 -0.0409703410 0 -1
-0.0053600000 -0.0398436640 0 -1
-0.0085943350 -0.0381568310 0 -1
-0.0115789860 -0.0360669070 0 -1
-0.0140133410 -0.0337740500 0 -1
-0.0156497840 -0.0315025330 0 -1
-0.0163176640 -0.0294785440 0 0
-0.0159430280 -0.0279069100 0 0
-0.0145605080 -0.0269498260 0 0
-0.0123125980 -0.0267105560 0 0
-0.0094345870 -0.0272239420 0 0
-0.0062280070 -0.0284541850 0 0
-0.0030274560 -0.0302987010 0 -1
-0.0001646580 -0.0325962520 0 -1
0.0020668160 -0.0351391020 0 -1
0.0034418380 -0.0376908400 0 -1
0.0038250120 -0.0400102940 0 -1
0.0031810800 -0.0418784200 0 -1
0.0015746730 -0.0431231450 0 -1
-0.0008391590 -0.0436380950 0 -1
-0.0038316070 -0.0433930630 0 -1
-0.0071222010 -0.0424356600 0 -1
-0.0104042640 -0.0408848700 0 -1
-0.0133707900 -0.0389177620 0 -1
-0.0157391730 -0.0367508370 0 -1
-0.0172759410 -0.0346182550 0 -1
-0.0178223210 -0.0327493430 0 -1
-0.0173166420 -0.0313467630 0 -1
-0.0158057860 -0.0305662570 0 -1
-0.0134407810 -0.0304997140 0 -1
-0.0104584600 -0.0311644340 0 -1
-0.0071547460 -0.0325014760 0 -1
-0.0038546140 -0.0343833260 0 -1
-0.0008817050 -0.0366282460 0 -1
0.0014713400 -0.0390185780 0 -1
0.0029709390 -0.0413214380 0 -1
0.0034664680 -0.0433101990 0 -1
0.0029060220 -0.0447850220 0 -1
0.0013408840 -0.0455910450 0 -1
-0.0010816250 -0.0456328910 0 -1
-0.0041343980 -0.0448845000 0 -1
-0.0075325300 -0.0433940750 0 -1
-0.0109590240 -0.0412835390 0 -1
-0.0140932670 -0.0387405700 0 -1
-0.0166401360 -0.0360015490 0 -1
-0.0183565830 -0.0333263950 0 -1
-0.0190740770 -0.0309693520 0 -1
-0.0187165390 -0.0291513050 0 0
-0.0173117930 -0.0280381260 0 0
-0.0149926560 -0.0277270770 0 0
-0.0119853010 -0.0282410400 0 0
-0.0085860610 -0.0295291800 0 0
-0.0051307380 -0.0314727730 0 -1
-0.0019612110 -0.0338957050 0 -1
0.0006076360 -0.0365794350 0 -1
0.0023192400 -0.0392820700 0 -1
0.0030022970 -0.0417606740 0 -1
0.0025886090 -0.0437947000 0 -1
0.0011184110 -0.0452076570 0 -1
-0.0012663650 -0.0458843510 0 -1
-0.0043378700 -0.0457815550 0 -1
-0.0078038790 -0.0449309230 0 -1
-0.0113334680 -0.0434344950 0 -1
-0.0145869530 -0.0414541450 0 -1
-0.0172488250 -0.0391961810 0 -1
-0.0190594450 -0.0368920480 0 -1
-0.0198409480 -0.0347763070 0 -1
-0.0195147680 -0.0330634440 0 -1
-0.0181097900 -0.0319258850 0 -1
-0.0157610090 -0.0314762570 0 -1
-0.0126985410 -0.0317561350 0 -1
-0.0092266250 -0.0327318890 0 -1
-0.0056935620 -0.0342974400 0 -1
-0.0024553750 -0.0362843070 0 -1
0.0001628980 -0.0384794580 0 -1
0.0019027070 -0.0406494800 0 -1
0.0025980250 -0.0425672330 0 -1
0.0021888120 -0.0440366850 0 -1
0.0007230650 -0.0449125470 0 -1
-0.0016500050 -0.0451127190 0 -1
-0.0046944840 -0.0446233710 0 -1
-0.0081098890 -0.0434977990 0 -1
-0.0115599890 -0.0418501140 0 -1
-0.0147057930 -0.0398441160 0 -1
-0.0172390580 -0.0376776310 0 -1
-0.0189118530 -0.0355633190 0 -1
-0.0195585090 -0.0337081820 0 -1
-0.0191093240 -0.0322943060 0 -1
-0.0175968870 -0.0314625360 0 -1
-0.0151545450 -0.0312998590 0 -1
-0.0120054660 -0.0318308780 0 -1
-0.0084418780 -0.0330139350 0 -1
-0.0047963730 -0.0347427600 0 -1
-0.0014089590 -0.0368541960 0 -1
0.0014066060 -0.0391415700 0 -1
0.0033945010 -0.0413726930 0 -1
0.0043831610 -0.0433116720 0 -1
0.0043026530 -0.0447437240 0 -1
0.0031908960 -0.0455006800 0 -1
0.0011883010 -0.0454827510 0 -1
-0.0014780450 -0.0446721480 0 -1
-0.0045182640 -0.0431361160 0 -1
-0.0076089150 -0.0410193290 0 -1
-0.0104250410 -0.0385275220 0 -1
-0.0126722840 -0.0359050050 0 -1
-0.0141160310 -0.0334086200 0 -1
-0.0146049890 -0.0312809050 0 -1
-0.0140869590 -0.0297255220 0 0
-0.0126146690 -0.0288878200 0 0
-0.0103400950 -0.0288422760 0 0
-0.0074973620 -0.0295875840 0 0
-0.0043766320 -0.0310493390 0 -1
-0.0012932180 -0.0330889770 0 -1
0.0014435800 -0.0355167550 0 -1
0.0035589600 -0.0381077380 0 -1
0.0048374060 -0.0406210880 0 -1
0.0051430000 -0.0428224690 0 -1
0.0044331650 -0.0445076320 0 -1
0.0027636050 -0.0455239790 0 -1
0.0002838210 -0.0457865460 0 -1
-0.0027764050 -0.0452855310 0 -1
-0.0061288270 -0.0440849840 0 -1
-0.0094548780 -0.0423147820 0 -1
-0.0124365800 -0.0401579280 0 -1
-0.0147866790 -0.0378333480 0 -1
-0.0162758950 -0.0355741810 0 -1
-0.0167560140 -0.0336037570 0 -1
-0.0161771570 -0.0321128420 0 -1
-0.0145962230 -0.0312412240 0 -1
-0.0121729950 -0.0310654870 0 -1
-0.0091529510 -0.0315931390 0 -1
-0.0058397710 -0.0327620730 0 -1
-0.0025620920 -0.0344453010 0 -1
0.0003611080 -0.0364623020 0 -1
0.0026518100 -0.0385977070 0 -1
0.0040974930 -0.0406254730 0 -1
0.0045682010 -0.0423340750 0 -1
0.0040262590 -0.0435482580 0 -1
0.0025285120 -0.0441449360 0 -1
0.0002215940 -0.0440629440 0 -1
-0.0026695010 -0.0433071130 0 -1
-0.0058601990 -0.0419468690 0 -1
-0.0090320070 -0.0401092060 0 -1
-0.0118623310 -0.0379663500 0 -1
-0.0140555450 -0.0357192630 0 -1
-0.0153732290 -0.0335784160 0 -1
-0.0156608680 -0.0317436620 0 -1
-0.0148669410 -0.0303855800 0 -1
-0.0130508880 -0.0296300870 0 0
-0.0103782220 -0.0295469480 0 0
-0.0071028200 -0.0301426490 0 -1
-0.0035387880 -0.0313585270 0 -1
-0.0000271049 -0.0330748920 0 -1
0.0030971870 -0.0351212580 0 -1
0.0055341800 -0.0372925650 0 -1
0.0070442910 -0.0393706110 0 -1
0.0074695540 -0.0411476790 0 -1
0.0067503540 -0.0424475930 0 -1
0.0049352820 -0.0431408730 0 -1
0.0021803040 -0.0431540310 0 -1
-0.0012656120 -0.0424744520 0 -1
-0.0050875180 -0.0411512750 0 -1
-0.0089382970 -0.0392916810 0 -1
-0.0124721770 -0.0370525900 0 -1
-0.0153751000 -0.0346285100 0 -1
-0.0173929000 -0.0322356590 0 -1
-0.0183568270 -0.0300919200 0 -1
-0.0182018780 -0.0283939880 0 0
-0.0169727700 -0.0272953660 0 0
-0.0148168420 -0.0268891200 0 0
-0.0119671050 -0.0271979690 0 0
-0.0087188520 -0.0281725950 0 0
-0.0054022970 -0.0296976760 0 0
-0.0023526550 -0.0316045430 0 -1
0.0001220100 -0.0336888450 0 -1
0.0017729260 -0.0357309800 0 -1
0.0024368230 -0.0375169740 0 -1
0.0020508850 -0.0388583630 0 -1
0.0006564890 -0.0396103630 0 -1
-0.0016052530 -0.0396871970 0 -1
-0.0045051560 -0.0390720960 0 -1
-0.0077462280 -0.0378195430 0 -1
-0.0109925520 -0.0360492900 0 -1
-0.0139039140 -0.0339338620 0 -1
-0.0161718130 -0.0316814490 0 -1
-0.0175522160 -0.0295153690 0 0
-0.0178912180 -0.0276518240 0 0
-0.0171410180 -0.0262786830 0 0
-0.0153640360 -0.0255371720 0 0
-0.0127243060 -0.0255073950 0 0
-0.0094684970 -0.0261996350 0 0
-0.0059009520 -0.0275537070 0 0
-0.0023560820 -0.0294462620 0 0
0.0008306900 -0.0317031400 0 -1
0.0033534330 -0.0341143220 0 -1
0.0049662580 -0.0364514730 0 -1
0.0055100710 -0.0384885730 0 -1
0.0049309680 -0.0400241620 0 -1
0.0032876820 -0.0409020630 0 -1
0.0007471990 -0.0410273550 0 -1
-0.0024322760 -0.0403756330 0 -1
-0.0059299670 -0.0389953730 0 -1
-0.0093972570 -0.0370039000 0 -1
-0.0124915520 -0.0345776350 0 -1
-0.0149066060 -0.0319373090 0 -1
-0.0164003470 -0.0293284550 0 0
-0.0168193860 -0.0269981440 0 0
-0.0161159560 -0.0251705040 0 0
-0.0143536810 -0.0240237810 0 0
-0.0117013160 -0.0236712800 0 0
-0.0084148640 -0.0241484050 0 0
-0.0048102010 -0.0254077110 0 0
-0.0012309690 -0.0273231030 0 0
0.0019832390 -0.0297031490 0 0
0.0045255230 -0.0323118490 0 -1
0.0061466920 -0.0348939580 0 -1
0.0066775540 -0.0372019950 0 -1
0.0060478200 -0.0390218450 0 -1
0.0042981780 -0.0401935430 0 -1
0.0015812990 -0.0406251360 0 -1
-0.0018508300 -0.0402991430 0 -1
-0.0056727410 -0.0392715040 0 -1
-0.0095203070 -0.0376636730 0 -1
-0.0130289680 -0.0356498020 0 -1
-0.0158713230 -0.0334407790 0 -1
-0.0177910420 -0.0312654570 0 -1
-0.0186291330 -0.0293493910 0 0
-0.0183383410 -0.0278929640 0 0
-0.0169835340 -0.0270518450 0 0
-0.0147292330 -0.0269222420 0 0
-0.0118182440 -0.0275319450 0 0
-0.0085461540 -0.0288372130 0 0
-0.0052346790 -0.0307258280 0 -1
-0.0022044380 -0.0330267940 0 -1
0.0002525350 -0.0355262240 0 -1
0.0018982270 -0.0379878660 0 -1
0.0025694060 -0.0401762170 0 -1
0.0021926650 -0.0418799130 0 -1
0.0007929330 -0.0429330780 0 -1
-0.0015059340 -0.0432326250 0 -1
-0.0044895090 -0.0427496670 0 -1
-0.0078707860 -0.0415334020 0 -1
-0.0113177560 -0.0397067750 0 -1
-0.0144880290 -0.0374541700 0 -1
-0.0170652520 -0.0350019100 0 -1
-0.0187917330 -0.0325938300 0 -1
-0.0194937740 -0.0304661070 0 -1
-0.0190984270 -0.0288249660 0 0
-0.0176408040 -0.0278283620 0 0
-0.0152605760 -0.0275716390 0 0
-0.0121877820 -0.0280779160 0 0
-0.0087203740 -0.0292948220 0 0
-0.0051961540 -0.0310987950 0 -1
-0.0019610720 -0.0333067850 0 -1
0.0006642910 -0.0356942000 0 -1
0.0024177380 -0.0380176280 0 -1
0.0031240700 -0.0400398840 0 -1
0.0027140460 -0.0415540550 0 -1
0.0012307730 -0.0424039330 0 -1
-0.0011755970 -0.0424991270 0 -1
-0.0042628590 -0.0418232960 0 -1
-0.0077204230 -0.0404348610 0 -1
-0.0112003550 -0.0384606670 0 -1
-0.0143524670 -0.0360838060 0 -1
-0.0168589920 -0.0335267250 0 -1
-0.0184653740 -0.0310306560 0 -1
-0.0190046750 -0.0288328790 0 0
-0.0184133530 -0.0271439370 0 0
-0.0167371420 -0.0261268570 0 0
-0.0141266430 -0.0258805210 0 0
-0.0108227600 -0.0264291000 0 0
-0.0071329670 -0.0277187890 0 0
-0.0034008550 -0.0296228250 0 0
0.0000272560 -0.0319544370 0 -1
0.0028351670 -0.0344852030 0 -1
0.0047664390 -0.0369663190 0 -1
0.0056481220 -0.0391519910 0 -1
0.0054062250 -0.0408238260 0 -1
0.0040722360 -0.0418129770 0 -1
0.0017811610 -0.0420168970 0 -1
-0.0012392550 -0.0414093780 0 -1
-0.0046892970 -0.0400433910 0 -1
-0.0082267080 -0.0380460880 0 -1
-0.0115001500 -0.0356062600 0 -1
-0.0141825180 -0.0329560890 0 -1
-0.0160025620 -0.0303492270 0 -1
-0.0167733190 -0.0280364500 0 0
-0.0164137130 -0.0262406980 0 0
-0.0149592390 -0.0251348780 0 0
-0.0125598010 -0.0248255250 0 0
-0.0094648580 -0.0253434610 0 0
-0.0059969870 -0.0266414020 0 0
-0.0025166810 -0.0285982560 0 0
0.0006167550 -0.0310299340 0 -1
0.0030831130 -0.0337066010 0 -1
0.0046338030 -0.0363754210 0 -1
0.0051154660 -0.0387858730 0 -1
0.0044825830 -0.0407143590 0 -1
0.0027997480 -0.0419857870 0 -1
0.0002350440 -0.0424903440 0 -1
-0.0029558900 -0.0421936200 0 -1
-0.0064549730 -0.0411388640 0 -1
-0.0099129320 -0.0394412430 0 -1
-0.0129826530 -0.0372749870 0 -1
-0.0153520550 -0.0348548420 0 -1
-0.0167744980 -0.0324141880 0 -1
-0.0170940710 -0.0301828110 0 -1
-0.0162626040 -0.0283663900 0 0
-0.0143456900 -0.0271284370 0 0
-0.0115162630 -0.0265755740 0 0
-0.0080362990 -0.0267476300 0 0
-0.0042292690 -0.0276135580 0 0
-0.0004472380 -0.0290734390 0 0
0.0029630600 -0.0309668230 0 -1
0.0056918200 -0.0330878100 0 -1
0.0074938360 -0.0352062170 0 -1
0.0082110770 -0.0370918540 0 -1
0.0077879120 -0.0385380510 0 -1
0.0062769960 -0.0393822640 0 -1
0.0038350490 -0.0395227870 0 -1
0.0007082250 -0.0389297800 0 -1
-0.0027923830 -0.0376483220 0 -1
-0.0063223780 -0.0357927770 0 -1
-0.0095388570 -0.0335341080 0 -1
-0.0121341080 -0.0310823950 0 -1
-0.0138642740 -0.0286662260 0 0
-0.0145705010 -0.0265107390 0 0
-0.0141919150 -0.0248163070 0 0
-0.0127700660 -0.0237394690 0 0
-0.0104444150 -0.0233775820 0 0
-0.0074390510 -0.0237587610 0 0
-0.0040418580 -0.0248384430 0 0
-0.0005779490 -0.0265031860 0 0
0.0026204800 -0.0285815660 0 0
0.0052452270 -0.0308611060 0 -1
0.0070411120 -0.0331093250 0 -1
0.0078303500 -0.0350964520 0 -1
0.0075299120 -0.0366175850 0 -1
0.0061599730 -0.0375126040 0 -1
0.0038427250 -0.0376821070 0 -1
0.0007916030 -0.0370977350 0 -1
-0.0027086460 -0.0358059630 0 -1
-0.0063292570 -0.0339247820 0 -1
-0.0097290320 -0.0316327410 0 -1
-0.0125874400 -0.0291509570 0 0
-0.0146368590 -0.0267204180 0 0
-0.0156905120 -0.0245778160 0 0
-0.0156615200 -0.0229325870 0 0
-0.0145704840 -0.0219466480 0 0
-0.0125424000 -0.0217182370 0 0
-0.0097938820 -0.0222718750 0 0
-0.0066108990 -0.0235561430 0 0
-0.0033193530 -0.0254492050 0 0
-0.0002525340 -0.0277705100 0 0
0.0022812990 -0.0302970500 0 -1
0.0040285280 -0.0327831290 0 -1
0.0048143430 -0.0349831710 0 -1
0.0045596560 -0.0366771720 0 -1
0.0032899470 -0.0376965730 0 -1
0.0011347310 -0.0379456680 0 -1
-0.0016845170 -0.0374134220 0 -1
-0.0048784310 -0.0361732730 0 -1
-0.0081223800 -0.0343715270 0 -1
-0.0110916760 -0.0322070380 0 -1
-0.0134940710 -0.0299062200 0 0
-0.0150968850 -0.0276977530 0 0
-0.0157476770 -0.0257905750 0 0
-0.0153870750 -0.0243572570 0 0
-0.0140530030 -0.0235229460 0 0
-0.0118771540 -0.0233579120 0 0
-0.0090741750 -0.0238718570 0 0
-0.0059232130 -0.0250111050 0 0
-0.0027420590 -0.0266616340 0 0
0.0001443020 -0.0286593650 0 0
0.0024371400 -0.0308065530 0 -1
0.0038945240 -0.0328916230 0 -1
0.0043553350 -0.0347094310 0 -1
0.0037557560 -0.0360796940 0 -1
0.0021374870 -0.0368626140 0 -1
-0.0003546680 -0.0369715200 0 -1
-0.0034872130 -0.0363817200 0 -1
-0.0069625360 -0.0351338020 0 -1
-0.0104496080 -0.0333303080 0 -1
-0.0136160480 -0.0311262060 0 -1
-0.0161582800 -0.0287145590 0 0
-0.0178299440 -0.0263092450 0 0
-0.0184682840 -0.0241266270 0 0
-0.0180132650 -0.0223672410 0 0
-0.0165137790 -0.0211974610 0 0
-0.0141209940 -0.0207313330 0 0
-0.0110721150 -0.0210151180 0 0
-0.0076665510 -0.0220188350 0 0
-0.0042362980 -0.0236379730 0 0
-0.0011141940 -0.0257051960 0 0
0.0013966830 -0.0280092980 0 0
0.0030514750 -0.0303180860 0 -1
0.0036890420 -0.0324020280 0 -1
0.0032512340 -0.0340557300 0 -1
0.0017913500 -0.0351159250 0 -1
-0.0005309780 -0.0354762820 0 -1
-0.0034682610 -0.0350984450 0 -1
-0.0067137930 -0.0340170560 0 -1
-0.0099345700 -0.0323366160 0 -1
-0.0128029280 -0.0302200070 0 -1
-0.0150250210 -0.0278705420 0 0
-0.0163668290 -0.0255103770 0 0
-0.0166774850 -0.0233581490 0 0
-0.0159071630 -0.0216082620 0 0
-0.0141152680 -0.0204132410 0 0
-0.0114658320 -0.0198702320 0 0
-0.0082103730 -0.0200133070 0 0
-0.0046612340 -0.0208123230 0 0
-0.0011592330 -0.0221771930 0 0
0.0019604140 -0.0239660840 0 0
0.0043996820 -0.0259971870 0 0
0.0059239720 -0.0280648010 0 0
0.0063822620 -0.0299600530 0 0
0.0057208580 -0.0314939850 0 -1
0.0039895020 -0.0325184950 0 -1
0.0013387250 -0.0329412470 0 -1
-0.0019917210 -0.0327330190 0 -1
-0.0056929460 -0.0319280680 0 -1
-0.0094149190 -0.0306189990 0 -1
-0.0128002220 -0.0289473490 0 0
-0.0155197030 -0.0270908810 0 0
-0.0173067210 -0.0252483410 0 0
-0.0179866310 -0.0236219020 0 0
-0.0174962460 -0.0223976890 0 0
-0.0158887240 -0.0217257340 0 0
-0.0133241400 -0.0217019070 0 0
-0.0100504250 -0.0223550140 0 0
-0.0063797170 -0.0236418190 0 0
-0.0026620950 -0.0254508640 0 0
0.0007444350 -0.0276138020 0 0
0.0035084250 -0.0299223320 0 0
0.0053607810 -0.0321494420 0 -1
0.0061248950 -0.0340735170 0 -1
0.0057351030 -0.0355023830 0 -1
0.0042418820 -0.0362930750 0 -1
0.0018052490 -0.0363642570 0 -1
-0.0013222750 -0.0357016560 0 -1
-0.0048223770 -0.0343586340 0 -1
-0.0083447590 -0.0324523910 0 -1
-0.0115428830 -0.0301546030 0 -1
-0.0141071580 -0.0276762810 0 0
-0.0157934160 -0.0252479940 0 0
-0.0164451550 -0.0230976360 0 0
-0.0160078890 -0.0214286420 0 0
-0.0145342670 -0.0204010470 0 0
-0.0121789140 -0.0201165010 0 0
-0.0091822580 -0.0206081030 0 0
-0.0058451080 -0.0218360910 0 0
-0.0024989620 -0.0236900090 0 0
0.0005238220 -0.0259972590 0 0
0.0029191970 -0.0285378640 0 0
0.0044396220 -0.0310650810 0 -1
0.0049188340 -0.0333304220 0 -1
0.0042899820 -0.0351104190 0 -1
0.0025943450 -0.0362319080 0 -1
-0.0000215492 -0.0365920510 0 -1
-0.0033212580 -0.0361693150 0 -1
-0.0070045980 -0.0350241240 0 -1
-0.0107398730 -0.0332906320 0 -1
-0.0141961270 -0.0311612570 0 -1
-0.0170722180 -0.0288650870 0 0
-0.0191228010 -0.0266425800 0 0
-0.0201805660 -0.0247206080 0 0
-0.0201720460 -0.0232916450 0 0
-0.0191247490 -0.0224985090 0 0
-0.0171648690 -0.0224234540 0 0
-0.0145055450 -0.0230802940 0 0
-0.0114267070 -0.0244105120 0 0
-0.0082488590 -0.0262860620 0 0
-0.0053032840 -0.0285211090 0 0
-0.0029004590 -0.0308925330 0 -1
-0.0012988340 -0.0331658610 0 -1
-0.0006775710 -0.0351215550 0 -1
-0.0011169180 -0.0365775060 0 -1
-0.0025885910 -0.0374055030 0 -1
-0.0049575580 -0.0375407980 0 -1
-0.0079953890 -0.0369849050 0 -1
-0.0114036550 -0.0358029050 0 -1
-0.0148448740 -0.0341166810 0 -1
-0.0179776510 -0.0320948370 0 -1
-0.0204916390 -0.0299391950 0 0
-0.0221382480 -0.0278673290 0 0
-0.0227544280 -0.0260916390 0 0
-0.0222776050 -0.0247974410 0 0
-0.0207507580 -0.0241235240 0 0
-0.0183178250 -0.0241476870 0 0
-0.0152101980 -0.0248780960 0 0
-0.0117248740 -0.0262507430 0 0
-0.0081951250 -0.0281337680 0 0
-0.0049565480 -0.0303395980 0 -1
-0.0023130860 -0.0326442690 0 -1
-0.0005071250 -0.0348105550 0 -1
0.0003028590 -0.0366109150 0 -1
0.0000546711 -0.0378482710 0 -1
-0.0012145410 -0.0383744410 0 -1
-0.0033722300 -0.0381062980 0 -1
-0.0062006070 -0.0370383010 0 -1
-0.0094140720 -0.0352481300 0 -1
-0.0126847360 -0.0328922430 0 -1
-0.0156746970 -0.0301907400 0 -1
-0.0180715960 -0.0274033380 0 0
-0.0196229670 -0.0247999930 0 0
-0.0201642060 -0.0226309360 0 0
-0.0196352570 -0.0211006950 0 0
-0.0180845140 -0.0203489060 0 0
-0.0156618880 -0.0204390890 0 0
-0.0126034790 -0.0213557070 0 0
-0.0092091790 -0.0230087690 0 0
-0.0058138980 -0.0252442010 0 0
-0.0027537370 -0.0278580920 0 0
-0.0003309110 -0.0306136650 0 -1
0.0012171110 -0.0332607310 0 -1
0.0017401200 -0.0355575140 0 -1
0.0011877920 -0.0372937160 0 -1
-0.0003873480 -0.0383123940 0 -1
-0.0028354060 -0.0385278780 0 -1
-0.0059220450 -0.0379365610 0 -1
-0.0093490690 -0.0366173260 0 -1
-0.0127826100 -0.0347204940 0 -1
-0.0158866950 -0.0324480370 0 -1
-0.0183575110 -0.0300302390 0 -1
-0.0199530970 -0.0277032900 0 0
-0.0205151520 -0.0256893180 0 0
-0.0199827760 -0.0241779860 0 0
-0.0183990020 -0.0233089580 0 0
-0.0159088630 -0.0231568140 0 0
-0.0127465820 -0.0237218100 0 0
-0.0092122750 -0.0249294880 0 0
-0.0056422670 -0.0266392120 0 0
-0.0023777190 -0.0286590610 0 0
0.0002660420 -0.0307647620 0 -1
0.0020286160 -0.0327215320 0 -1
0.0027304820 -0.0343072580 0 -1
0.0022936100 -0.0353347230 0 -1
0.0007540090 -0.0356709320 0 -1
-0.0017379220 -0.0352515830 0 -1
-0.0049327000 -0.0340878710 0 -1
-0.0085111390 -0.0322638640 0 -1
-0.0121208580 -0.0299260330 0 0
-0.0154127440 -0.0272686050 0 0
-0.0180739680 -0.0245172370 0 0
-0.0198568540 -0.0219115460 0 0
-0.0206024580 -0.0196866150 0 0
-0.0202559350 -0.0180538040 0 0
-0.0188708410 -0.0171810080 0 0
-0.0166019860 -0.0171734030 0 0
-0.0136882400 -0.0180573390 0 0
-0.0104273770 -0.0197709920 0 0
-0.0071466870 -0.0221653430 0 0
-0.0041733290 -0.0250177220 0 0
-0.0018054060 -0.0280571340 0 0
-0.0002835300 -0.0309968840 0 -1
0.0002342460 -0.0335682530 0 -1
-0.0003105900 -0.0355502130 0 -1
-0.0018705460 -0.0367920710 0 -1
-0.0042962400 -0.0372266140 0 -1
-0.0073502420 -0.0368717030 0 -1
-0.0107294870 -0.0358201970 0 -1
-0.0140951850 -0.0342217290 0 -1
-0.0171077290 -0.0322621880 0 -1
-0.0194613550 -0.0301449960 0 -1
-0.0209135450 -0.0280748780 0 0
-0.0213073270 -0.0262434320 0 0
-0.0205861800 -0.0248160010 0 0
-0.0188005750 -0.0239197720 0 0
-0.0161050330 -0.0236338500 0 0
-0.0127451550 -0.0239824120 0 0
-0.0090347690 -0.0249314550 0 0
-0.0053251590 -0.0263893460 0 0
-0.0019701310 -0.0282120790 0 0
0.0007100360 -0.0302145110 0 -1
0.0024626980 -0.0321879440 0 -1
0.0031298370 -0.0339223750 0 -1
0.0026630530 -0.0352301840 0 -1
0.0011252010 -0.0359678010 0 -1
-0.0013194910 -0.0360521460 0 -1
-0.0044234170 -0.0354690610 0 -1
-0.0078793360 -0.0342728630 0 -1
-0.0113490900 -0.0325789620 0 -1
-0.0144954430 -0.0305523910 0 -1
-0.0170140270 -0.0283932360 0 0
-0.0186628320 -0.0263183450 0 0
-0.0192862190 -0.0245396320 0 0
-0.0188301300 -0.0232416410 0 0
-0.0173473200 -0.0225621390 0 0
-0.0149930480 -0.0225787450 0 0
-0.0120105340 -0.0233028550 0 0
-0.0087058610 -0.0246802340 0 0
-0.0054156450 -0.0265962140 0 0
-0.0024729570 -0.0288838700 0 0
-0.0001755040 -0.0313358440 0 -1
0.0012423450 -0.0337216660 0 -1
0.0016326220 -0.0358106470 0 -1
0.0009496380 -0.0373972430 0 -1
-0.0007438520 -0.0383240020 0 -1
-0.0032813730 -0.0384980290 0 -1
-0.0064087750 -0.0378994180 0 -1
-0.0098107370 -0.0365822510 0 -1
-0.0131443150 -0.0346695270 0 -1
-0.0160738360 -0.0323429520 0 -1
-0.0183014180 -0.0298276710 0 0
-0.0195907230 -0.0273713330 0 0
-0.0197857200 -0.0252176400 0 0
-0.0188265740 -0.0235773560 0 0
-0.0167609740 -0.0226025340 0 0
-0.0137458090 -0.0223691400 0 0
-0.0100355800 -0.0228703250 0 0
-0.0059586760 -0.0240204300 0 0
-0.0018850310 -0.0256683100 0 0
0.0018114630 -0.0276167040 0 0
0.0047915910 -0.0296433000 0 0
0.0067853050 -0.0315210090 0 -1
0.0076182490 -0.0330378120 0 -1
0.0072286020 -0.0340164770 0 -1
0.0056730640 -0.0343324810 0 -1
0.0031211740 -0.0339277210 0 -1
-0.0001617930 -0.0328175020 0 -1
-0.0038421490 -0.0310887600 0 -1
-0.0075525360 -0.0288898220 0 0
-0.0109293490 -0.0264146980 0 0
-0.0136485540 -0.0238850830 0 0
-0.0154574020 -0.0215314430 0 0
-0.0161996540 -0.0195731300 0 0
-0.0158309150 -0.0181982550 0 0
-0.0144213100 -0.0175455960 0 0
-0.0121451180 -0.0176906670 0 0
-0.0092593940 -0.0186369620 0 0
-0.0060751140 -0.0203136790 0 0
-0.0029251130 -0.0225814620 0 0
-0.0001330420 -0.0252460240 0 0
0.0020143380 -0.0280774990 0 0
0.0032918270 -0.0308325640 0 -1
0.0035575840 -0.0332763720 0 -1
0.0027698100 -0.0352020270 0 -1
0.0009940150 -0.0364473410 0 -1
-0.0016029970 -0.0369094940 0 -1
-0.0047722340 -0.0365561430 0 -1
-0.0082097360 -0.0354300910 0 -1
-0.0115856230 -0.0336461530 0 -1
-0.0145716640 -0.0313807220 0 -1
-0.0168684530 -0.0288550980 0 0
-0.0182339810 -0.0263139980 0 0
-0.0185107970 -0.0240013430 0 0
-0.0176453510 -0.0221360230 0 0
-0.0156955250 -0.0208905570 0 0
-0.0128266140 -0.0203751980 0 0
-0.0092968870 -0.0206289860 0 0
-0.0054325920 -0.0216178090 0 0
-0.0015932120 -0.0232384940 0 0
0.0018685050 -0.0253278370 0 0
0.0046442350 -0.0276760720 0 0
0.0064991920 -0.0300447310 0 -1
0.0072906410 -0.0321886300 0 -1
0.0069774530 -0.0338807930 0 -1
0.0056225690 -0.0349378780 0 -1
0.0033875940 -0.0352426090 0 -1
0.0005172940 -0.0347590680 0 -1
-0.0026850140 -0.0335378180 0 -1
-0.0058862980 -0.0317106700 0 -1
-0.0087533480 -0.0294764980 0 0
-0.0109827030 -0.0270793360 0 0
-0.0123299150 -0.0247809800 0 0
-0.0126343680 -0.0228324510 0 0
-0.0118366210 -0.0214488900 0 0
-0.0099877640 -0.0207900800 0 0
-0.0072494870 -0.0209467530 0 0
-0.0038815940 -0.0219328330 0 0
-0.0002158560 -0.0236842820 0 0
0.0033802910 -0.0260646620 0 0
0.0065435850 -0.0288765330 0 0
0.0089519180 -0.0318778290 0 -1
0.0103550960 -0.0348026160 0 -1
0.0105988890 -0.0373849610 0 -1
0.0096418450 -0.0393841500 0 -1
0.0075626070 -0.0406091150 0 -1
0.0045542890 -0.0409390830 0 -1
0.0009041200 -0.0403373360 0 -1
-0.0030388600 -0.0388561310 0 -1
-0.0069018370 -0.0366322580 0 -1
-0.0103260290 -0.0338736820 0 -1
-0.0130004040 -0.0308383030 0 -1
-0.0146894720 -0.0278070030 0 0
-0.0152541170 -0.0250552010 0 0
-0.0146634580 -0.0228272630 0 0
-0.0129957440 -0.0213154200 0 0
-0.0104283760 -0.0206424640 0 0
-0.0072189890 -0.0208486170 0 0
-0.0036803960 -0.0218856880 0 0
-0.0001521620 -0.0236213770 0 0
0.0030292670 -0.0258532670 0 0
0.0055606060 -0.0283300740 0 0
0.0072002390 -0.0307780140 0 -1
0.0077924530 -0.0329297110 0 -1
0.0072838710 -0.0345519650 0 -1
0.0057294520 -0.0354690450 0 -1
0.0032875320 -0.0355796910 0 -1
0.0002043950 -0.0348665570 0 -1
-0.0032108540 -0.0333966190 0 -1
-0.0066179710 -0.0313117580 0 -1
-0.0096785300 -0.0288110610 0 0
-0.0120868560 -0.0261284930 0 0
-0.0135983520 -0.0235096840 0 0
-0.0140538410 -0.0211899690 0 0
-0.0133967740 -0.0193745680 0 0
-0.0116806150 -0.0182212750 0 0
-0.0090650920 -0.0178263060 0 0
-0.0058013200 -0.0182149640 0 0
-0.0022069600 -0.0193390810 0 0
0.0013661040 -0.0210817950 0 0
0.0045677250 -0.0232688340 0 0
0.0070847810 -0.0256856250 0 0
0.0086720850 -0.0280992110 0 0
0.0091759400 -0.0302817290 0 -1
0.0085479810 -0.0320316130 0 -1
0.0068481610 -0.0331907210 0 -1
0.0042375260 -0.0336572030 0 -1
0.0009620660 -0.0333943760 0 -1
-0.0026709520 -0.0324351860 0 -1
-0.0063217300 -0.0308809580 0 -1
-0.0096485000 -0.0288937230 0 0
-0.0123378340 -0.0266829370 0 0
-0.0141343770 -0.0244873010 0 0
-0.0148685790 -0.0225516780 0 0
-0.0144775200 -0.0211004840 0 0
-0.0130134660 -0.0203112120 0 0
-0.0106387680 -0.0202922520 0 0
-0.0076083810 -0.0210680850 0 0
-0.0042419900 -0.0225743450 0 0
-0.0008894630 -0.0246643530 0 0
0.0021051610 -0.0271266840 0 0
0.0044366060 -0.0297110090 0 0
0.0058652310 -0.0321580740 0 -1
0.0062366560 -0.0342292140 0 -1
0.0054949480 -0.0357308230 0 -1
0.0036898650 -0.0365304520 0 -1
0.0009759780 -0.0365644720 0 -1
-0.0023997030 -0.0358397480 0 -1
-0.0061219830 -0.0344306430 0 -1
-0.0098401020 -0.0324706130 0 -1
-0.0132042190 -0.0301385660 0 -1
-0.0159019080 -0.0276421400 0 0
-0.0176904880 -0.0252000000 0 0
-0.0184205740 -0.0230240110 0 0
-0.0180480410 -0.0213017800 0 0
-0.0166347170 -0.0201808390 0 0
-0.0143397910 -0.0197559060 0 0
-0.0114038340 -0.0200601200 0 0
-0.0081265070 -0.0210612220 0 0
-0.0048386910 -0.0226633360 0 0
-0.0018708320 -0.0247142650 0 0
0.0004791040 -0.0270181070 0 0
0.0019744760 -0.0293529130 0 0
0.0024633660 -0.0314918380 0 -1
0.0018949480 -0.0332252320 0 -1
0.0003261360 -0.0343819030 0 -1
-0.0020834630 -0.0348481460 0 -1
-0.0050871280 -0.0345816910 0 -1
-0.0083747100 -0.0336168840 0 -1
-0.0116030590 -0.0320599590 0 -1
-0.0144311550 -0.0300769710 0 -1
-0.0165557750 -0.0278768470 0 0
-0.0177429100 -0.0256897390 0 0
-0.0178516110 -0.0237416950 0 0
-0.0168487010 -0.0222297170 0 0
-0.0148126840 -0.0213021190 0 0
-0.0119250900 -0.0210465470 0 0
-0.0084501480 -0.0214846480 0 0
-0.0047073900 -0.0225714600 0 0
-0.0010420540 -0.0241986820 0 0
0.0022052320 -0.0262022430 0 0
0.0047298210 -0.0283754020 0 0
0.0062936120 -0.0304884220 0 -1
0.0067501340 -0.0323133440 0 -1
0.0060589900 -0.0336496450 0 -1
0.0042880070 -0.0343461850 0 -1
0.0016056920 -0.0343168710 0 -1
-0.0017339880 -0.0335493450 0 -1
-0.0054148480 -0.0321064360 0 -1
-0.0090884960 -0.0301196600 0 -1
-0.0124076700 -0.0277750880 0 0
-0.0150598730 -0.0252939200 0 0
-0.0167981310 -0.0229102390 0 0
-0.0174646980 -0.0208475680 0 0
-0.0170049230 -0.0192962810 0 0
-0.0154712840 -0.0183945640 0 0
-0.0130185310 -0.0182153460 0 0
-0.0098905460 -0.0187607470 0 0
-0.0063985640 -0.0199643430 0 0
-0.0028907180 -0.0217003360 0 0
0.0002838230 -0.0237976150 0 0
0.0028108660 -0.0260560910 0 0
0.0044434650 -0.0282636030 0 0
0.0050273490 -0.0302132430 0 -1
0.0045156380 -0.0317211920 0 -1
0.0029706170 -0.0326443730 0 -1
0.0005540460 -0.0328960040 0 -1
-0.0024910570 -0.0324559740 0 -1
-0.0058652010 -0.0313732760 0 -1
-0.0092417490 -0.0297602130 0 0
-0.0122974310 -0.0277806740 0 0
-0.0147404780 -0.0256349140 0 0
-0.0163340430 -0.0235414960 0 0
-0.0169147960 -0.0217164770 0 0
-0.0164079040 -0.0203514720 0 0
-0.0148374190 -0.0195934640 0 0
-0.0123284540 -0.0195287680 0 0
-0.0090982930 -0.0201730720 0 0
-0.0054365340 -0.0214691290 0 0
-0.0016766890 -0.0232926200 0 0
0.0018372320 -0.0254653320 0 0
0.0047851320 -0.0277736890 0 0
0.0069021670 -0.0299903180 0 0
0.0080035130 -0.0318964700 0 -1
0.0080008430 -0.0333030430 0 -1
0.0069103090 -0.0340679150 0 -1
0.0048514860 -0.0341078620 0 -1
0.0020366980 -0.0334046200 0 -1
-0.0012479860 -0.0320057280 0 -1
-0.0046680500 -0.0300209110 0 -1
-0.0078710590 -0.0276143850 0 0
-0.0105208430 -0.0249928570 0 0
-0.0123321470 -0.0223886760 0 0
-0.0131018960 -0.0200385540 0 0
-0.0127331370 -0.0181599270 0 0
-0.0112480230 -0.0169279140 0 0
-0.0087872450 -0.0164559550 0 0
-0.0055953610 -0.0167827300 0 0
-0.0019945460 -0.0178671430 0 0
0.0016488420 -0.0195922230 0 0
0.0049612750 -0.0217774120 0 0
0.0076002180 -0.0241972440 0 0
0.0092900160 -0.0266039780 0 0
0.0098507500 -0.0287519880 0 0
0.0092161290 -0.0304215930 0 -1
0.0074391010 -0.0314402970 0 -1
0.0046857000 -0.0316998330 0 -1
0.0012179590 -0.0311671240 0 -1
-0.0026329640 -0.0298872150 0 0
-0.0065008170 -0.0279776730 0 0
-0.0100209610 -0.0256160680 0 0
-0.0128652310 -0.0230229270 0 0
-0.0147724910 -0.0204419760 0 0
-0.0155734970 -0.0181182370 0 0
-0.0152076850 -0.0162744580 0 0
-0.0137293940 -0.0150878890 0 0
-0.0113023730 -0.0146704940 0 0
-0.0081829610 -0.0150556480 0 0
-0.0046936780 -0.0161940070 0 0
-0.0011901940 -0.0179596650 0 0
0.0019745930 -0.0201650090 0 0
0.0044857360 -0.0225815860 0 0
0.0060979860 -0.0249647700 0 0
0.0066613830 -0.0270793980 0 0
0.0061362450 -0.0287223300 0 0
0.0045944360 -0.0297391660 0 0
0.0022081390 -0.0300355640 0 -1
-0.0007705320 -0.0295848790 0 0
-0.0040360120 -0.0284317520 0 0
-0.0072582050 -0.0266893350 0 0
-0.0101110360 -0.0245292600 0 0
-0.0123007280 -0.0221659460 0 0
-0.0135943660 -0.0198368000 0 0
-0.0138457090 -0.0177794010 0 0
-0.0130125540 -0.0162078810 0 0
-0.0111624400 -0.0152916000 0 0
-0.0084676050 -0.0151383190 0 0
-0.0051900430 -0.0157830580 0 0
-0.0016561970 -0.0171837710 0 0
0.0017771120 -0.0192245230 0 0
0.0047610530 -0.0217257100 0 0
0.0069921920 -0.0244606800 0 0
0.0082438050 -0.0271779530 0 0
0.0083869560 -0.0296268090 0 0
0.0074002340 -0.0315830170 0 -1
0.0053696880 -0.0328716560 0 -1
0.0024802500 -0.0333844730 0 -1
-0.0010011350 -0.0330900700 0 -1
-0.0047504390 -0.0320361200 0 -1
-0.0084174790 -0.0303436040 0 -1
-0.0116586680 -0.0281940620 0 0
-0.0141678800 -0.0258111360 0 0
-0.0157043880 -0.0234380170 0 0
-0.0161173340 -0.0213136700 0 0
-0.0153639390 -0.0196507380 0 0
-0.0135167730 -0.0186164970 0 0
-0.0107569530 -0.0183175720 0 0
-0.0073543320 -0.0187894070 0 0
-0.0036388690 -0.0199915550 0 0
0.0000321085 -0.0218096610 0 0
0.0033063510 -0.0240650710 0 0
0.0058665180 -0.0265321790 0 0
0.0074579400 -0.0289615570 0 0
0.0079145640 -0.0311055460 0 -1
0.0071798580 -0.0327435370 0 -1
0.0053169090 -0.0337049960 0 -1
0.0025032610 -0.0338877660 0 -1
-0.0009890970 -0.0332691420 0 -1
-0.0048235550 -0.0319081940 0 -1
-0.0086335070 -0.0299391850 0 0
-0.0120592800 -0.0275572410 0 0
-0.0147847480 -0.0249982640 0 0
-0.0165694950 -0.0225149690 0 0
-0.0172723640 -0.0203509620 0 0
-0.0168632250 -0.0187155910 0 0
-0.0154221060 -0.0177628550 0 0
-0.0131278460 -0.0175768110 0 0
-0.0102393870 -0.0181642450 0 0
-0.0070714510 -0.0194544380 0 0
-0.0039653850 -0.0213062190 0 0
-0.0012568400 -0.0235227220 0 0
0.0007568340 -0.0258729360 0 0
0.0018461150 -0.0281171220 0 0
0.0018721740 -0.0300322070 0 -1
0.0008003840 -0.0314336920 0 -1
-0.0012964880 -0.0321916940 0 -1
-0.0042458860 -0.0322403620 0 -1
-0.0077932510 -0.0315812980 0 -1
-0.0116267940 -0.0302819460 0 -1
-0.0154058080 -0.0284692640 0 0
-0.0187911880 -0.0263187770 0 0
-0.0214771930 -0.0240397180 0 0
-0.0232212250 -0.0218572390 0 0
-0.0238675160 -0.0199925330 0 0
-0.0233628130 -0.0186417150 0 0
-0.0217635260 -0.0179545900 0 0
-0.0192325000 -0.0180156010 0 0
-0.0160235640 -0.0188310850 0 0
-0.0124557580 -0.0203268470 0 0
-0.0088816790 -0.0223572640 0 0
-0.0056529800 -0.0247236150 0 0
-0.0030845140 -0.0271972970 0 0
-0.0014206520 -0.0295441240 0 0
-0.0008100570 -0.0315471740 0 -1
-0.0012934750 -0.0330260080 0 -1
-0.0028040640 -0.0338509100 0 -1
-0.0051770980 -0.0339524410 0 -1
-0.0081665100 -0.0333266510 0 -1
-0.0114672170 -0.0320353520 0 -1
-0.0147426910 -0.0302010300 0 -1
-0.0176568550 -0.0279970110 0 0
-0.0199083360 -0.0256333580 0 0
-0.0212625880 -0.0233382620 0 0
-0.0215758760 -0.0213358480 0 0
-0.0208072810 -0.0198238600 0 0
-0.0190191560 -0.0189551740 0 0
-0.0163688570 -0.0188244720 0 0
-0.0130936610 -0.0194592650 0 0
-0.0094897210 -0.0208152110 0 0
-0.0058867350 -0.0227776380 0 0
-0.0026199630 -0.0251708270 0 0
0.0000003282 -0.0277739010 0 0
0.0017208680 -0.0303408480 0 -1
0.0023742510 -0.0326231400 0 -1
0.0018992850 -0.0343937990 0 -1
0.0003496020 -0.0354710860 0 -1
-0.0021103440 -0.0357394500 0 -1
-0.0052214520 -0.0351644610 0 -1
-0.0086567950 -0.0337981880 0 -1
-0.0120558990 -0.0317732080 0 -1
-0.0150615830 -0.0292862580 0 0
-0.0173548880 -0.0265748320 0 0
-0.0186861140 -0.0238912190 0 0
-0.0189006370 -0.0214777610 0 0
-0.0179560130 -0.0195451640 0 0
-0.0159270100 -0.0182545100 0 0
-0.0129983410 -0.0177037890 0 0
-0.0094464530 -0.0179202760 0 0
-0.0056116190 -0.0188592850 0 0
-0.0018629800 -0.0204083020 0 0
0.0014386500 -0.0223958150 0 0
0.0039754140 -0.0246058500 0 0
0.0055015680 -0.0267989410 0 0
0.0058653400 -0.0287374140 0 0
0.0050224430 -0.0302110440 0 -1
0.0030412670 -0.0310595010 0 -1
0.0000994316 -0.0311889970 0 -1
-0.0035302720 -0.0305815710 0 -1
-0.0075059360 -0.0292965970 0 0
-0.0114522130 -0.0274646950 0 0
-0.0149997550 -0.0252741690 0 0
-0.0178225020 -0.0229508780 0 0
-0.0196685210 -0.0207338770 0 0
-0.0203817990 -0.0188498370 0 0
-0.0199149020 -0.0174891830 0 0
-0.0183332960 -0.0167868890 0 0
-0.0158094260 -0.0168102290 0 0
-0.0126041800 -0.0175541450 0 0
-0.0090383140 -0.0189439950 0 0
-0.0054602810 -0.0208451540 0 0
-0.0022149310 -0.0230779170 0 0
0.0003865470 -0.0254352750 0 0
0.0020959640 -0.0277017490 0 0
0.0027543960 -0.0296719530 0 0
0.0023103780 -0.0311678330 0 -1
0.0008255670 -0.0320541980 0 -1
-0.0015332880 -0.0322518000 0 -1
-0.0045143650 -0.0317460730 0 -1
-0.0078095240 -0.0305897520 0 -1
-0.0110871210 -0.0288986130 0 0
-0.0140240410 -0.0268405310 0 0
-0.0163340280 -0.0246188490 0 0
-0.0177916290 -0.0224522970 0 0
-0.0182523670 -0.0205545310 0 0
-0.0176687830 -0.0191153320 0 0
-0.0160989520 -0.0182838960 0 0
-0.0137031200 -0.0181546030 0 0
-0.0107277290 -0.0187566790 0 0
-0.0074803900 -0.0200495650 0 0
-0.0042996560 -0.0219257900 0 0
-0.0015218560 -0.0242222230 0 0
0.0005525980 -0.0267379500 0 0
0.0016897040 -0.0292548940 0 0
0.0017457290 -0.0315583000 0 -1
0.0006833800 -0.0334563500 0 -1
-0.0014195650 -0.0347983230 0 -1
-0.0043712400 -0.0354897400 0 -1
-0.0078803380 -0.0355029300 0 -1
-0.0115853650 -0.0348816060 0 -1
-0.0150933430 -0.0337380090 0 -1
-0.0180201950 -0.0322422970 0 -1
-0.0200281080 -0.0306057840 0 -1
-0.0208583690 -0.0290607090 0 0
-0.0203573400 -0.0278384740 0 0
-0.0184913040 -0.0271477540 0 0
-0.0153475850 -0.0271544470 0 0
-0.0111231550 -0.0279655270 0 0
-0.0061036680 -0.0296182260 0 0
-0.0006348300 -0.0320759080 0 -1
0.0049118020 -0.0352313870 0 -1
0.0101744110 -0.0389168340 0 -1
0.0148328290 -0.0429192550 0 -1
0.0186342620 -0.0470014270 0 -1
0.0214135670 -0.0509270180 0 -1
0.0231089200 -0.0544863010 0 -1
0.0237705930 -0.0575182360 0 -1
0.0235582040 -0.0599260950 0 -1
0.0227239420 -0.0616855490 0 -1
0.0215844390 -0.0628453260 0 -1
0.0204872100 -0.0635206770 0 -1
0.0197764390 -0.0638802350 0 -1
0.0197599310 -0.0641282410 0 -1
0.0206783180 -0.0644843770 0 -1
0.0226797390 -0.0651619320 0 -1
0.0258041810 -0.0663449510 0 -1
0.0299799990 -0.0681670790 0 -1
0.0350332280 -0.0706962230 1 -1
0.0407082460 -0.0739278910 1 -1
0.0466956270 -0.0777871990 1 -1
0.0526624560 -0.0821373680 1 -1
0.0582823160 -0.0867924260 1 -1
0.0632643860 -0.0915329530 1 -1
0.0673805300 -0.0961243630 1 -1
0.0704869450 -0.1003370710 1 -1
0.0725368150 -0.1039672070 1 -1
0.0735830670 -0.1068559350 1 -1
0.0737725540 -0.1089053640 1 -1
0.0733332420 -0.1100894300 1 -1
0.0725548090 -0.1104578150 1 -1
0.0717616690 -0.1101309600 1 -1
0.0712789890 -0.1092865780 1 -1
0.0713963840 -0.1081409610 1 -1
0.0723356920 -0.1069283820 1 -1
0.0742269720 -0.1058801180 1 -1
0.0770943280 -0.1052040880 1 -1
0.0808521830 -0.1050666400 1 -1
0.0853119760 -0.1055778290 1 -1
0.0901987910 -0.1067809750 1 -1
0.0951772250 -0.1086474770 1 -1
0.0998846340 -0.1110781500 1 -1
0.1039675170 -0.1139117000 1 -1
0.1071162570 -0.1169398970 1 -1
0.1090951960 -0.1199284110 1 -1
0.1097661230 -0.1226415980 1 -1
0.1091028930 -0.1248679950 1 -1
0.1071951350 -0.1264422360 1 -1
0.1042403870 -0.1272606080 1 -1
0.1005256570 -0.1272899950 1 -1
0.0964006040 -0.1265707510 1 -1
0.0922455460 -0.1252134490 1 -1
0.0884374650 -0.1233891770 1 -1
0.0853164120 -0.1213134660 1 -1
0.0831548030 -0.1192249600 1 -1
0.0821323760 -0.1173612320 1 -1
0.0823189010 -0.1159346170 1 -1
0.0836660490 -0.1151104230 1 -1
0.0860095440 -0.1149895530 1 -1
0.0890827900 -0.1155975260 1 -1
0.0925423060 -0.1168817670 1 -1
0.0960026740 -0.1187182150 1 -1
0.0990766320 -0.1209262750 1 -1
0.1014158970 -0.1232892150 1 -1
0.1027483610 -0.1255768400 1 -1
0.1029069330 -0.1275679060 1 -1
0.1018464560 -0.1290702710 1 -1
0.0996477160 -0.1299375850 1 -1
0.0965083420 -0.1300818040 1 -1
0.0927202590 -0.1294808530 1 -1
0.0886360200 -0.1281807220 1 -1
0.0846300780 -0.1262912280 1 -1
0.0810615850 -0.1239754290 1 -1
0.0782426010 -0.1214343160 1 -1
0.0764128010 -0.1188888440 1 -1
0.0757203470 -0.1165600910 1 -1
0.0762087220 -0.1146483870 1 -1
0.0778107510 -0.1133133660 1 -1
0.0803525170 -0.1126569720 1 -1
0.0835691130 -0.1127116550 1 -1
0.0871308140 -0.1134363980 1 -1
0.0906756270 -0.1147216310 1 -1
0.0938444600 -0.1164013070 1 -1
0.0963158070 -0.1182695770 1 -1
0.0978368830 -0.1201005700 1 -1
0.0982484540 -0.1216706320 1 -1
0.0975009450 -0.1227823080 1 -1
0.0956596250 -0.1232877360 1 -1
0.0928977200 -0.1231069820 1 -1
0.0894780650 -0.1222370480 1 -1
0.0857255660 -0.1207505130 1 -1
0.0819940160 -0.1187858530 1 -1
0.0786312910 -0.1165318790 1 -1
0.0759465160 -0.1142076910 1 -1
0.0741819260 -0.1120397230 1 -1
0.0734909570 -0.1102385420 1 -1
0.0739228680 -0.1089779600 1 -1
0.0754151380 -0.1083780150 1 -1
0.0777971670 -0.1084936300 1 -1
0.0808079030 -0.1093109130 1 -1
0.0841253550 -0.1107514180 1 -1
0.0874015110 -0.1126827480 1 -1
0.0902965160 -0.1149331350 1 -1
0.0925096570 -0.1173073090 1 -1
0.0938066020 -0.1196018530 1 -1
0.0940417710 -0.1216199320 1 -1
0.0931737010 -0.1231861510 1 -1
0.0912703950 -0.1241616820 1 -1
0.0885026910 -0.1244582020 1 -1
0.0851263780 -0.1240479580 1 -1
0.0814558220 -0.1229683600 1 -1
0.0778333090 -0.1213213870 1 -1
0.0745980460 -0.1192677140 1 -1
0.0720561540 -0.1170143250 1 -1
0.0704517380 -0.1147951700 1 -1
0.0699416570 -0.1128463850 1 -1
0.0705780610 -0.1113790360 1 -1
0.0723004170 -0.1105536060 1 -1
0.0749372080 -0.1104612200 1 -1
0.0782189720 -0.1111149380 1 -1
0.0818036800 -0.1124507830 1 -1
0.0853122610 -0.1143362320 1 -1
0.0883703170 -0.1165844630 1 -1
0.0906505690 -0.1189732300 1 -1
0.0919089700 -0.1212669330 1 -1
0.0920089530 -0.1232397940 1 -1
0.0909320400 -0.1246976690 1 -1
0.0887756590 -0.1254965530 1 -1
0.0857399770 -0.1255566560 1 -1
0.0821058990 -0.1248708670 1 -1
0.0782066590 -0.1235062660 1 -1
0.0743955020 -0.1215982220 1 -1
0.0710118700 -0.1193373330 1 -1
0.0683491420 -0.1169499450 1 -1
0.0666281800 -0.1146744740 1 -1
0.0659796830 -0.1127374420 1 -1
0.0664345870 -0.1113326780 1 -1
0.0679211790 -0.1106045250 1 -1
0.0702705840 -0.1106340520 1 -1
0.0732321380 -0.1114285610 1 -1
0.0764968130 -0.1129172210 1 -1
0.0797259670 -0.1149559180 1 -1
0.0825835270 -0.1173414960 1 -1
0.0847697160 -0.1198330760 1 -1
0.0860532070 -0.1221777390 1 -1
0.0862968910 -0.1241375180 1 -1
0.0854723510 -0.1255138900 1 -1
0.0836606580 -0.1261668780 1 -1
0.0810404120 -0.1260277010 1 -1
0.0778663680 -0.1251044950 1 -1
0.0744427070 -0.1234805440 1 -1
0.0710941460 -0.1213051790 1 -1
0.0681373710 -0.1187785740 1 -1
0.0658544960 -0.1161320820 1 -1
0.0644691970 -0.1136061710 1 -1
0.0641265540 -0.1114284680 1 -1
0.0648786860 -0.1097939290 1 -1
0.0666774710 -0.1088478140 1 -1
0.0693750900 -0.1086717530 1 -1
0.0727340950 -0.1092744010 1 -1
0.0764482200 -0.1105891360 1 -1
0.0801721670 -0.1124800440 1 -1
0.0835558430 -0.1147551140 1 -1
0.0862786780 -0.1171847330 1 -1
0.0880812000 -0.1195241040 1 -1
0.0887916610 -0.1215379170 1 -1
0.0883449950 -0.1230243980 1 -1
0.0867907000 -0.1238355390 1 -1
0.0842875160 -0.1238913010 1 -1
0.0810861590 -0.1231866540 1 -1
0.0775031470 -0.1217909760 1 -1
0.0738881690 -0.1198399250 1 -1
0.0705879780 -0.1175209170 1 -1
0.0679110930 -0.1150543980 1 -1
0.0660972820 -0.1126732790 1 -1
0.0652950180 -0.1106019980 1 -1
0.0655496850 -0.1090364030 1 -1
0.0668039570 -0.1081265620 1 -1
0.0689086300 -0.1079634950 1 -1
0.0716395580 -0.1085690010 1 -1
0.0747173170 -0.1098890600 1 -1
0.0778296210 -0.1117941940 1 -1
0.0806579930 -0.1140901590 1 -1
0.0829083910 -0.1165391580 1 -1
0.0843424540 -0.1188880970 1 -1
0.0848045650 -0.1208981800 1 -1
0.0842405610 -0.1223703780 1 -1
0.0827054620 -0.1231638740 1 -1
0.0803585990 -0.1232067410 1 -1
0.0774454210 -0.1224988840 1 -1
0.0742684410 -0.1211083170 1 -1
0.0711536040 -0.1191630340 1 -1
0.0684181290 -0.1168398070 1 -1
0.0663422830 -0.1143496890 1 -1
0.0651450100 -0.1119203980 1 -1
0.0649639520 -0.1097770590 1 -1
0.0658418090 -0.1081221230 1 -1
0.0677201070 -0.1071145970 1 -1
0.0704407430 -0.1068507740 1 -1
0.0737566520 -0.1073510390 1 -1
0.0773529230 -0.1085564660 1 -1
0.0808777870 -0.1103354450 1 -1
0.0839803290 -0.1124982440 1 -1
0.0863495450 -0.1148177520 1 -1
0.0877483310 -0.1170545340 1 -1
0.0880381450 -0.1189819370 1 -1
0.0871929650 -0.1204069150 1 -1
0.0853012060 -0.1211855730 1 -1
0.0825545270 -0.1212345670 1 -1
0.0792254670 -0.1205382010 1 -1
0.0756382990 -0.1191498710 1 -1
0.0721369630 -0.1171870630 1 -1
0.0690528820 -0.1148202420 1 -1
0.0666750140 -0.1122569670 1 -1
0.0652234880 -0.1097233020 1 -1
0.0648273250 -0.1074439370 1 -1
0.0655087770 -0.1056215600 1 -1
0.0671791780 -0.1044166130 1 -1
0.0696486890 -0.1039298690 1 -1
0.0726469150 -0.1041909390 1 -1
0.0758497050 -0.1051551060 1 -1
0.0789100870 -0.1067088580 1 -1
0.0814930650 -0.1086824330 1 -1
0.0833116210 -0.1108670060 1 -1
0.0841582140 -0.1130347470 1 -1
0.0839259740 -0.1149602300 1 -1
0.0826161080 -0.1164417370 1 -1
0.0803317730 -0.1173214500 1 -1
0.0772629410 -0.1175029190 1 -1
0.0736674400 -0.1169628670 1 -1
0.0698497010 -0.1157550390 1 -1
0.0661360130 -0.1140056270 1 -1
0.0628463460 -0.1119005430 1 -1
0.0602655820 -0.1096654780 1 -1
0.0586168770 -0.1075408030 1 -1
0.0580380410 -0.1057545460 1 -1
0.0585635760 -0.1044974630 1 -1
0.0601179450 -0.1039041200 1 -1
0.0625230660 -0.1040416520 1 -1
0.0655173920 -0.1049049430 1 -1
0.0687821340 -0.1064168230 1 -1
0.0719723130 -0.1084341420 1 -1
0.0747510100 -0.1107612020 1 -1
0.0768233770 -0.1131701540 1 -1
0.0779663450 -0.1154252580 1 -1
0.0780510920 -0.1173063830 1 -1
0.0770560790 -0.1186284500 1 -1
0.0750686180 -0.1192564120 1 -1
0.0722744100 -0.1191165030 1 -1
0.0689374810 -0.1182034900 1 -1
0.0653740690 -0.1165827720 1 -1
0.0619226770 -0.1143864050 1 -1
0.0589120530 -0.1118028200 1 -1
0.0566301000 -0.1090604650 1 -1
0.0552968950 -0.1064064860 1 -1
0.0550437870 -0.1040826740 1 -1
0.0559000380 -0.1023015310 1 -1
0.0577883440 -0.1012253570 1 -1
0.0605299340 -0.1009504980 1 -1
0.0638592770 -0.1014979010 1 -1
0.0674478600 -0.1028105710 1 -1
0.0709353540 -0.1047581090 1 -1
0.0739658490 -0.1071478550 1 -1
0.0762259020 -0.1097422140 1 -1
0.0774789170 -0.1122817560 1 -1
0.0775895330 -0.1145116850 1 -1
0.0765351630 -0.1162074760 1 -1
0.0744057660 -0.1171967070 1 -1
0.0713932580 -0.1173760300 1 -1
0.0677714370 -0.1167221660 1 -1
0.0638688840 -0.1152952740 1 -1
0.0600386920 -0.1132338020 1 -1
0.0566276120 -0.1107410830 1 -1
0.0539452490 -0.1080647050 1 -1
0.0522345150 -0.1054703740 1 -1
0.0516471630 -0.1032132090 1 -1
0.0522283900 -0.1015103800 1 -1
0.0539115740 -0.1005185810 1 -1
0.0565230590 -0.1003191830 1 -1
0.0597976380 -0.1009129610 1 -1
0.0634047480 -0.1022240810 1 -1
0.0669832420 -0.1041110540 1 -1
0.0701800390 -0.1063822620 1 -1
0.0726865310 -0.1088145790 1 -1
0.0742681440 -0.1111737390 1 -1
0.0747852310 -0.1132346200 1 -1
0.0742049940 -0.1148000170 1 -1
0.0726043680 -0.1157177730 1 -1
0.0701634300 -0.1158960200 1 -1
0.0671484600 -0.1153141390 1 -1
0.0638849400 -0.1140261300 1 -1
0.0607229490 -0.1121554590 1 -1
0.0579994390 -0.1098830570 1 -1
0.0560030100 -0.1074298790 1 -1
0.0549458080 -0.1050347280 1 -1
0.0549443870 -0.1029293230 1 -1
0.0560093630 -0.1013140400 1 -1
0.0580441430 -0.1003374580 1 -1
0.0608542780 -0.1000816950 1 -1
0.0641681730 -0.1005549840 1 -1
0.0676659870 -0.1016923170 1 -1
0.0710111070 -0.1033631020 1 -1
0.0738809920 -0.1053837240 1 -1
0.0759972690 -0.1075340340 1 -1
0.0771536650 -0.1095775380 1 -1
0.0772372150 -0.1112843040 1 -1
0.0762384270 -0.1124548020 1 -1
0.0742498370 -0.1129418250 1 -1
0.0714551850 -0.1126669030 1 -1
0.0681115080 -0.1116286820 1 -1
0.0645257680 -0.1099025930 1 -1
0.0610278770 -0.1076325500 1 -1
0.0579418930 -0.1050163980 1 -1
0.0555569430 -0.1022871810 1 -1
0.0540999020 -0.0996914550 1 -1
0.0537122960 -0.0974656630 1 -1
0.0544336130 -0.0958126710 1 -1
0.0561935620 -0.0948808860 1 -1
0.0588158430 -0.0947479510 1 -1
0.0620346240 -0.0954113570 1 -1
0.0655226480 -0.0967881970 1 -1
0.0689267750 -0.0987248190 1 -1
0.0719045570 -0.1010150130 1 -1
0.0741568480 -0.1034233490 1 -1
0.0754549290 -0.1057095900 1 -1
0.0756614340 -0.1076515460 1 -1
0.0747431240 -0.1090653010 1 -1
0.0727739410 -0.1098215160 1 -1
0.0699287920 -0.1098562510 1 -1
0.0664688950 -0.1091758460 1 -1
0.0627184340 -0.1078559120 1 -1
0.0590331700 -0.1060340160 1 -1
0.0557642480 -0.1038957290 1 -1
0.0532220120 -0.1016552710 1 -1
0.0516439570 -0.0995338540 1 -1
0.0511701810 -0.0977385160 1 -1
0.0518295370 -0.0964423490 1 -1
0.0535379340 -0.0957670910 1 -1
0.0561073230 -0.0957707340 1 -1
0.0592636320 -0.0964424370 1 -1
0.0626732340 -0.0977049370 1 -1
0.0659767060 -0.0994236090 1 -1
0.0688261380 -0.1014208930 1 -1
0.0709211380 -0.1034943200 1 -1
0.0720391180 -0.1054358240 1 -1
0.0720562730 -0.1070500200 1 -1
0.0709573610 -0.1081706720 1 -1
0.0688346060 -0.1086756580 1 -1
0.0658770280 -0.1084994190 1 -1
0.0623521320 -0.1076404670 1 -1
0.0585824590 -0.1061623930 1 -1
0.0549184780 -0.1041882820 1 -1
0.0517078620 -0.1018892830 1 -1
0.0492620250 -0.0994688600 1 -1
0.0478236100 -0.0971443630 1 -1
0.0475404780 -0.0951270590 1 -1
0.0484503930 -0.0936023280 1 -1
0.0504773130 -0.0927122880 1 -1
0.0534384250 -0.0925419000 1 -1
0.0570612630 -0.0931092990 1 -1
0.0610096340 -0.0943623210 1 -1
0.0649155010 -0.0961830320 1 -1
0.0684136500 -0.0983997160 1 -1
0.0711766700 -0.1008038030 1 -1
0.0729473550 -0.1031695670 1 -1
0.0735650060 -0.1052752830 1 -1
0.0729823750 -0.1069244050 1 -1
0.0712707050 -0.1079644400 1 -1
0.0686119680 -0.1083011970 1 -1
0.0652794410 -0.1079073780 1 -1
0.0616087780 -0.1068255010 1 -1
0.0579624730 -0.1051647210 1 -1
0.0546923620 -0.1030910880 1 -1
0.0521049420 -0.1008120880 1 -1
0.0504327300 -0.0985568630 1 -1
0.0498139050 -0.0965535300 1 -1
0.0502818340 -0.0950056040 1 -1
0.0517645490 -0.0940701440 1 -1
0.0540929310 -0.0938402930 1 -1
0.0570166660 -0.0943348470 1 -1
0.0602277420 -0.0954968420 1 -1
0.0633900900 -0.0972013810 1 -1
0.0661722340 -0.0992709670 1 -1
0.0682794590 -0.1014954880 1 -1
0.0694826300 -0.1036540160 1 -1
0.0696417030 -0.1055361470 1 -1
0.0687219180 -0.1069614380 1 -1
0.0667992940 -0.1077958200 1 -1
0.0640527030 -0.1079635500 1 -1
0.0607434290 -0.1074535230 1 -1
0.0571860350 -0.1063197970 1 -1
0.0537151510 -0.1046769110 1 -1
0.0506524690 -0.1026905780 1 -1
0.0482769410 -0.1005637890 1 -1
0.0467999220 -0.0985177920 1 -1
0.0463468120 -0.0967686940 1 -1
0.0469467660 -0.0955031060 1 -1
0.0485305600 -0.0948571160 1 -1
0.0509357450 -0.0949015350 1 -1
0.0539194800 -0.0956347810 1 -1
0.0571799580 -0.0969839200 1 -1
0.0603850890 -0.0988134680 1 -1
0.0632049690 -0.1009403750 1 -1
0.0653448290 -0.1031528130 1 -1
0.0665759020 -0.1052310270 1 -1
0.0667607830 -0.1069689740 1 -1
0.0658691470 -0.1081944800 1 -1
0.0639812450 -0.1087856670 1 -1
0.0612789050 -0.1086821380 1 -1
0.0580255700 -0.1078891690 1 -1
0.0545382460 -0.1064747340 1 -1
0.0511554860 -0.1045619090 1 -1
0.0482058280 -0.1023185870 1 -1
0.0459788090 -0.0999441280 1 -1
0.0446979890 -0.0976522280 1 -1
0.0444970190 -0.0956508310 1 -1
0.0454034760 -0.0941219490 1 -1
0.0473350190 -0.0932042540 1 -1
0.0501082720 -0.0929796150 1 -1
0.0534579110 -0.0934639680 1 -1
0.0570634960 -0.0946039080 1 -1
0.0605814870 -0.0962803370 1 -1
0.0636787100 -0.0983189070 1 -1
0.0660638480 -0.1005061090 1 -1
0.0675146620 -0.1026102970 1 -1
0.0678986870 -0.1044059940 1 -1
0.0671857910 -0.1056976420 1 -1
0.0654523210 -0.1063386940 1 -1
0.0628756030 -0.1062441320 1 -1
0.0597170450 -0.1053968290 1 -1
0.0562954130 -0.1038491040 1 -1
0.0529549370 -0.1017195440 1 -1
0.0500318960 -0.0991835640 1 -1
0.0478217160 -0.0964570380 1 -1
0.0465496910 -0.0937749690 1 -1
0.0463489540 -0.0913685060 1 -1
0.0472475520 -0.0894428410 1 -1
0.0491653750 -0.0881572270 1 -1
0.0519212640 -0.0876087220 1 -1
0.0552494120 -0.0878222130 1 -1
0.0588236670 -0.0887483150 1 -1
0.0622890230 -0.0902689260 1 -1
0.0652984030 -0.0922097840 1 -1
0.0675497970 -0.0943592020 1 -1
0.0688177120 -0.0964910490 1 -1
0.0689745910 -0.0983884700 1 -1
0.0680004320 -0.0998644060 1 -1
0.0659812640 -0.1007770370 1 -1
0.0630986040 -0.1010409350 1 -1
0.0596116340 -0.1006347590 1 -1
0.0558331150 -0.0996042580 1 -1
0.0521006550 -0.0980589800 1 -1
0.0487455680 -0.0961628480 1 -1
0.0460617390 -0.0941197860 1 -1
0.0442774020 -0.0921555520 1 -1
0.0435332680 -0.0904969100 1 -1
0.0438701380 -0.0893491240 1 -1
0.0452276210 -0.0888727030 1 -1
0.0474532090 -0.0891619090 1 -1
0.0503185100 -0.0902296790 1 -1
0.0535388740 -0.0920031400 1 -1
0.0567954730 -0.0943309400 1 -1
0.0597613970 -0.0970007530 1 -1
0.0621320210 -0.0997637180 1 -1
0.0636568430 -0.1023621470 1 -1
0.0641679970 -0.1045568860 1 -1
0.0636008060 -0.1061508180 1 -1
0.0620033920 -0.1070059370 1 -1
0.0595338550 -0.1070536120 1 -1
0.0564445400 -0.1062989410 1 -1
0.0530550010 -0.1048191300 1 -1
0.0497179960 -0.1027549970 1 -1
0.0467829520 -0.1002964430 1 -1
0.0445595950 -0.0976645400 1 -1
0.0432848330 -0.0950918170 1 -1
0.0430977960 -0.0928014540 1 -1
0.0440266550 -0.0909873770 1 -1
0.0459872250 -0.0897973950 1 -1
0.0487921700 -0.0893196430 1 -1
0.0521700190 -0.0895727780 1 -1
0.0557921520 -0.0905025190 1 -1
0.0593049680 -0.0919866430 1 -1
0.0623647140 -0.0938475520 1 -1
0.0646721150 -0.0958698480 1 -1
0.0660027230 -0.0978210800 1 -1
0.0662288960 -0.0994749430 1 -1
0.0653314340 -0.1006352230 1 -1
0.0634009570 -0.1011568900 1 -1
0.0606289550 -0.1009609160 1 -1
0.0572882330 -0.1000416000 1 -1
0.0537046480 -0.0984665170 1 -1
0.0502244410 -0.0963695190 1 -1
0.0471810940 -0.0939378420 1 -1
0.0448637700 -0.0913946760 1 -1
0.0434895990 -0.0889783500 1 -1
0.0431833810 -0.0869194430 1 -1
0.0439671870 -0.0854177920 1 -1
0.0457598250 -0.0846216770 1 -1
0.0483851220 -0.0846114170 1 -1
0.0515883490 -0.0853896300 1 -1
0.0550592590 -0.0868800220 1 -1
0.0584596710 -0.0889351200 1 -1
0.0614546400 -0.0913515270 1 -1
0.0637456990 -0.0938906850 1 -1
0.0651018820 -0.0963032420 1 -1
0.0653833720 -0.0983544480 1 -1
0.0645549740 -0.0998470910 1 -1
0.0626894520 -0.1006393220 1 -1
0.0599613890 -0.1006566900 1 -1
0.0566314230 -0.0998988730 1 -1
0.0530210660 -0.0984410590 1 -1
0.0494806770 -0.0964286310 1 -1
0.0463549510 -0.0940638230 1 -1
0.0439493300 -0.0915848980 1 -1
0.0424994970 -0.0892411220 1 -1
0.0421470320 -0.0872677970 1 -1
0.0429245030 -0.0858639930 1 -1
0.0447510930 -0.0851736740 1 -1
0.0474381760 -0.0852711090 1 -1
0.0507053060 -0.0861529400 1 -1
0.0542078800 -0.0877387600 1 -1
0.0575745300 -0.0898795010 1 -1
0.0604476360 -0.0923718600 1 -1
0.0625200590 -0.0949781620 1 -1
0.0635651600 -0.0974508500 1 -1
0.0634587190 -0.0995585930 1 -1
0.0621904900 -0.1011098130 1 -1
0.0598641400 -0.1019708020 1 -1
0.0566861450 -0.1020773910 1 -1
0.0529449470 -0.1014396020 1 -1
0.0489828250 -0.1001386280 1 -1
0.0451638610 -0.0983163370 1 -1
0.0418408160 -0.0961595580 1 -1
0.0393226860 -0.0938822130 1 -1
0.0378447230 -0.0917067740 1 -1
0.0375438880 -0.0898447660 1 -1
0.0384432010 -0.0884768730 1 -1
0.0404473590 -0.0877350450 1 -1
0.0433509880 -0.0876896600 1 -1
0.0468595400 -0.0883433420 1 -1
0.0506203240 -0.0896312880 1 -1
0.0542590660 -0.0914274160 1 -1
0.0574176590 -0.0935559860 1 -1
0.0597899960 -0.0958081140 1 -1
0.0611524810 -0.0979613110 1 -1
0.0613850680 -0.0997994480 1 -1
0.0604805480 -0.1011319280 1 -1
0.0585425320 -0.1018123730 1 -1
0.0557738270 -0.1017557400 1 -1
0.0524566480 -0.1009500240 1 -1
0.0489252940 -0.0994588630 1 -1
0.0455323510 -0.0974144990 1 -1
0.0426122420 -0.0950033190 1 -1
0.0404477800 -0.0924468310 1 -1
0.0392438120 -0.0899806840 1 -1
0.0391095460 -0.0878339650 1 -1
0.0400504540 -0.0862096780 1 -1
0.0419704930 -0.0852665530 1 -1
0.0446838000 -0.0851029960 1 -1
0.0479334470 -0.0857448860 1 -1
0.0514149610 -0.0871393090 1 -1
0.0548031710 -0.0891563430 1 -1
0.0577812170 -0.0916001590 1 -1
0.0600696480 -0.0942289100 1 -1
0.0614525730 -0.0967807720 1 -1
0.0617981430 -0.0990019390 1 -1
0.0610720800 -0.1006724870 1 -1
0.0593434620 -0.1016277480 1 -1
0.0567807730 -0.1017742560 1 -1
0.0536363160 -0.1010993360 1 -1
0.0502201470 -0.0996727440 1 -1
0.0468676920 -0.0976389900 1 -1
0.0439058210 -0.0952009070 1 -1
0.0416207850 -0.0925971620 1 -1
0.0402303730 -0.0900773180 1 -1
0.0398632640 -0.0878777470 1 -1
0.0405480100 -0.0862003640 1 -1
0.0422112530 -0.0851946040 1 -1
0.0446837910 -0.0849433540 1 -1
0.0477149820 -0.0854548570 1 -1
0.0509966070 -0.0866622630 1 -1
0.0541947250 -0.0884306360 1 -1
0.0569847730 -0.0905706470 1 -1
0.0590846060 -0.0928581600 1 -1
0.0602819670 -0.0950573750 1 -1
0.0604544210 -0.0969438800 1 -1
0.0595801850 -0.0983250940 1 -1
0.0577389910 -0.0990575300 1 -1
0.0551037120 -0.0990603160 1 -1
0.0519240900 -0.0983230140 1 -1
0.0485032230 -0.0969060710 1 -1
0.0451682340 -0.0949341290 1 -1
0.0422385290 -0.0925838540 1 -1
0.0399953810 -0.0900682600 1 -1
0.0386552110 -0.0876188120 1 -1
0.0383481800 -0.0854655920 1 -1
0.0391042390 -0.0838158190 1 -1
0.0408490400 -0.0828322230 1 -1
0.0434106300 -0.0826140340 1 -1
0.0465361850 -0.0831839870 1 -1
0.0499171840 -0.0844841590 1 -1
0.0532201940 -0.0863817840 1 -1
0.0561193030 -0.0886838870 1 -1
0.0583271430 -0.0911573870 1 -1
0.0596225950 -0.0935511900 1 -1
0.0598729750 -0.0956189440 1 -1
0.0590479570 -0.0971425330 1 -1
0.0572230500 -0.0979549020 1 -1
0.0545718230 -0.0979588590 1 -1
0.0513482860 -0.0971382910 1 -1
0.0478622310 -0.0955595990 1 -1
0.0444497070 -0.0933639160 1 -1
0.0414406500 -0.0907527840 1 -1
0.0391265500 -0.0879690950 1 -1
0.0377314130 -0.0852736790 1 -1
0.0373893070 -0.0829189100 1 -1
0.0381315760 -0.0811227510 1 -1
0.0398849720 -0.0800468640 1 -1
0.0424798200 -0.0797809600 1 -1
0.0456669830 -0.0803345740 1 -1
0.0491417150 -0.0816370770 1 -1
0.0525714550 -0.0835458530 1 -1
0.0556256640 -0.0858615060 1 -1
0.0580068670 -0.0883485410 1 -1
0.0594806170 -0.0907596100 1 -1
0.0599000610 -0.0928600430 1 -1
0.0592214450 -0.0944491530 1 -1
0.0575094020 -0.0953768840 1 -1
0.0549314800 -0.0955564580 1 -1
0.0517408300 -0.0949730620 1 -1
0.0482483690 -0.0936869000 1 -1
0.0447898220 -0.0918286490 1 -1
0.0416930340 -0.0895870080 1 -1
0.0392476380 -0.0871895230 1 -1
0.0376778300 -0.0848787170 1 -1
0.0371204020 -0.0828863520 1 -1
0.0376107650 -0.0814087430 1 -1
0.0390792320 -0.0805858550 1 -1
0.0413588400 -0.0804867500 1 -1
0.0442037690 -0.0811033500 1 -1
0.0473149660 -0.0823529600 1 -1
0.0503695580 -0.0840885170 1 -1
0.0530521330 -0.0861151290 1 -1
0.0550860450 -0.0882118520 1 -1
0.0562612420 -0.0901565160 1 -1
0.0564547730 -0.0917495940 1 -1
0.0556419640 -0.0928333770 1 -1
0.0538977660 -0.0933048100 1 -1
0.0513887770 -0.0931221490 1 -1
0.0483576640 -0.0923066100 1 -1
0.0451013440 -0.0909401940 1 -1
0.0419433860 -0.0891594830 1 -1
0.0392022300 -0.0871441520 1 -1
0.0371584360 -0.0851000820 1 -1
0.0360248420 -0.0832395870 1 -1
0.0359236560 -0.0817618570 1 -1
0.0368737570 -0.0808347170 1 -1
0.0387894890 -0.0805776870 1 -1
0.0414902080 -0.0810476790 1 -1
0.0447186170 -0.0822300750 1 -1
0.0481659750 -0.0840372340 1 -1
0.0515026550 -0.0863148510 1 -1
0.0544113530 -0.0888556430 1 -1
0.0566185280 -0.0914195940 1 -1
0.0579201670 -0.0937588980 1 -1
0.0581998190 -0.0956441820 1 -1
0.0574380530 -0.0968879590 1 -1
0.0557128710 -0.0973624890 1 -1
0.0531905320 -0.0970111440 1 -1
0.0501074790 -0.0958535810 1 -1
0.0467468310 -0.0939844630 1 -1
0.0434135450 -0.0915648480 1 -1
0.0404095830 -0.0888063830 1 -1
0.0380081620 -0.0859503800 1 -1
0.0364279400 -0.0832445490 1 -1
0.0358110750 -0.0809198880 1 -1
0.0362087190 -0.0791698900 1 -1
0.0375743140 -0.0781334330 1 -1
0.0397645470 -0.0778817580 1 -1
0.0425500350 -0.0784106740 1 -1
0.0456370980 -0.0796405490 1 -1
0.0486983160 -0.0814254920 1 -1
0.0514075270 -0.0835697930 1 -1
0.0534750240 -0.0858478870 1 -1
0.0546782470 -0.0880249150 1 -1
0.0548839190 -0.0898771320 1 -1
0.0540601640 -0.0912123780 1 -1
0.0522788320 -0.0918891150 1 -1
0.0497073330 -0.0918308950 1 -1
0.0465895930 -0.0910340200 1 -1
0.0432195320 -0.0895677050 1 -1
