-0.0179400310 -0.1153961530 0 -1
-0.0207121310 -0.1121505850 0 -1
-0.0229301470 -0.1084702060 0 -1
-0.0243894170 -0.1047040820 0 -1
-0.0249579270 -0.1012129170 0 -1
-0.0245915660 -0.0983355020 0 -1
-0.0233413020 -0.0963563230 0 -1
-0.0213494720 -0.0954770530 0 -1
-0.0188351090 -0.0957940390 0 -1
-0.0160713600 -0.0972846470 0 -1
-0.0133587590 -0.0998060910 0 -1
-0.0109964940 -0.1031084790 0 -1
-0.0092522950 -0.1068605620 0 -1
-0.0083330810 -0.1106851700 0 -1
-0.0083616100 -0.1142004400 0 -1
-0.0093640060 -0.1170614380 0 -1
-0.0112688940 -0.1189957720 0 -1
-0.0139160850 -0.1198282030 0 -1
-0.0170738590 -0.1194929600 0 -1
-0.0204635940 -0.1180355250 0 -1
-0.0237877440 -0.1156059600 0 -1
-0.0267575000 -0.1124448870 0 -1
-0.0291187410 -0.1088624780 0 -1
-0.0306745360 -0.1052110150 -1 -1
-0.0313024290 -0.1018530030 -1 -1
-0.0309665340 -0.0991282940 -1 -1
-0.0297237660 -0.0973230480 0 -1
-0.0277209140 -0.0966416080 0 -1
-0.0251797240 -0.0971826150 0 -1
-0.0223716090 -0.0989235720 0 -1
-0.0195877060 -0.1017190420 0 -1
-0.0171099210 -0.1053141340 0 -1
-0.0151857010 -0.1093704680 0 -1
-0.0140069200 -0.1135003880 0 -1
-0.0136924330 -0.1173058550 0 -1
-0.0142751930 -0.1204184280 0 -1
-0.0156972030 -0.1225361960 0 -1
-0.0178155400 -0.1234535070 0 -1
-0.0204187250 -0.1230801380 0 -1
-0.0232486090 -0.1214483410 0 -1
-0.0260239080 -0.1187082220 0 -1
-0.0284654730 -0.1151128460 0 -1
-0.0303238260 -0.1109942810 -1 -1
-0.0314059640 -0.1067323220 -1 -1
-0.0315961180 -0.1027186260 -1 -1
-0.0308668220 -0.0993196550 -1 -1
-0.0292801350 -0.0968418780 0 -1
-0.0269805490 -0.0955023910 0 -1
-0.0241805780 -0.0954075520 0 -1
-0.0211400070 -0.0965422080 0 -1
-0.0181410560 -0.0987716010 0 -1
-0.0154621620 -0.1018561990 0 -1
-0.0133522150 -0.1054769290 0 -1
-0.0120069530 -0.1092667820 0 -1
-0.0115500650 -0.1128459240 0 -1
-0.0120211100 -0.1158585810 0 -1
-0.0133706580 -0.1180084610 0 -1
-0.0154626420 -0.1190879910 0 -1
-0.0180846220 -0.1189977990 0 -1
-0.0209663270 -0.1177553940 0 -1
-0.0238052910 -0.1154932700 0 -1
-0.0262973750 -0.1124466240 0 -1
-0.0281697160 -0.1089307740 0 -1
-0.0292123890 -0.1053091590 0 -1
-0.0293033940 -0.1019548870 0 -1
-0.0284226090 -0.0992114520 0 -1
-0.0266529490 -0.0973586810 0 -1
-0.0241691370 -0.0965868460 0 -1
-0.0212162920 -0.0969791630 0 -1
-0.0180820760 -0.0985033810 0 -1
-0.0150669380 -0.1010142600 0 -1
-0.0124560360 -0.1042677140 0 -1
-0.0104938780 -0.1079453720 0 -1
-0.0093621210 -0.1116866980 0 -1
-0.0091630500 -0.1151251630 0 -1
-0.0099114330 -0.1179246960 0 -1
-0.0115349460 -0.1198118340 0 -1
-0.0138816430 -0.1205995890 0 -1
-0.0167330380 -0.1202021930 0 -1
-0.0198225260 -0.1186421680 0 -1
-0.0228596750 -0.1160498890 0 -1
-0.0255592660 -0.1126537660 0 -1
-0.0276707970 -0.1087596240 0 -1
-0.0290036150 -0.1047208230 0 -1
-0.0294450360 -0.1009036760 0 -1
-0.0289704270 -0.0976526270 0 -1
-0.0276445040 -0.0952576340 0 -1
-0.0256134360 -0.0939257960 0 -1
-0.0230886430 -0.0937604360 0 -1
-0.0203251020 -0.0947507380 0 -1
-0.0175977370 -0.0967730030 0 -1
-0.0151779230 -0.0996030670 0 -1
-0.0133104280 -0.1029388060 0 -1
-0.0121907450 -0.1064306680 0 -1
-0.0119438890 -0.1097167400 0 -1
-0.0126076990 -0.1124584250 0 -1
-0.0141247460 -0.1143735570 0 -1
-0.0163458320 -0.1152641930 0 -1
-0.0190458770 -0.1150362480 0 -1
-0.0219501760 -0.1137084920 0 -1
-0.0247657840 -0.1114102310 0 -1
-0.0272119200 -0.1083690940 0 -1
-0.0290466750 -0.1048905950 0 -1
-0.0300901520 -0.1013299290 -1 -1
-0.0302426910 -0.0980570570 -1 -1
-0.0294948130 -0.0954187440 0 -1
-0.0279265430 -0.0937021270 0 -1
-0.0256968790 -0.0931039020 0 -1
-0.0230266760 -0.0937088220 0 -1
-0.0201777320 -0.0954800460 0 -1
-0.0174291700 -0.0982619450 0 -1
-0.0150526220 -0.1017947760 0 -1
-0.0132880850 -0.1057404310 0 -1
-0.0123212740 -0.1097174670 0 -1
-0.0122640570 -0.1133414680 0 -1
-0.0131414030 -0.1162652960 0 -1
-0.0148869370 -0.1182140050 0 -1
-0.0173471360 -0.1190111180 0 -1
-0.0202946270 -0.1185947650 0 -1
-0.0234510020 -0.1170222230 0 -1
-0.0265170070 -0.1144612740 0 -1
-0.0292051590 -0.1111695240 0 -1
-0.0312691480 -0.1074665210 -1 -1
-0.0325263220 -0.1037033620 -1 -1
-0.0328724740 -0.1002315100 -1 -1
-0.0322894520 -0.0973716090 -1 -1
-0.0308458670 -0.0953846770 -1 -1
-0.0286908300 -0.0944488690 0 -1
-0.0260406170 -0.0946439030 0 -1
-0.0231584160 -0.0959442880 0 -1
-0.0203285810 -0.0982218230 0 -1
-0.0178282010 -0.1012568750 0 -1
-0.0158991140 -0.1047573350 0 -1
-0.0147236480 -0.1083840910 0 -1
-0.0144071880 -0.1117815940 0 -1
-0.0149692170 -0.1146113710 0 -1
-0.0163427470 -0.1165858470 0 -1
-0.0183820570 -0.1174991500 0 -1
-0.0208790620 -0.1172506930 0 -1
-0.0235861090 -0.1158576820 0 -1
-0.0262402210 -0.1134543280 0 -1
-0.0285851520 -0.1102774010 0 -1
-0.0303911640 -0.1066400430 -1 -1
-0.0314743660 -0.1028980260 -1 -1
-0.0317159140 -0.0994133700 -1 -1
-0.0310775000 -0.0965191300 -1 -1
-0.0296083000 -0.0944877170 0 -1
-0.0274418930 -0.0935045000 0 -1
-0.0247844270 -0.0936489830 0 -1
-0.0218956140 -0.0948862010 0 -1
-0.0190645980 -0.0970703100 0 -1
-0.0165827330 -0.0999606960 0 -1
-0.0147142690 -0.1032488090 0 -1
-0.0136665370 -0.1065916020 0 -1
-0.0135639230 -0.1096463520 0 -1
-0.0144315320 -0.1121026630 0 -1
-0.0161924240 -0.1137095330 0 -1
-0.0186780740 -0.1142967590 0 -1
-0.0216491350 -0.1137897800 0 -1
-0.0248222750 -0.1122166560 0 -1
-0.0278979610 -0.1097067120 0 -1
-0.0305858410 -0.1064808700 -1 -1
-0.0326277220 -0.1028334570 -1 -1
-0.0338193300 -0.0991059260 -1 -1
-0.0340307210 -0.0956544410 -1 -1
-0.0332230500 -0.0928138710 -1 -1
-0.0314572080 -0.0908615720 -1 -1
-0.0288899120 -0.0899861070 0 -1
-0.0257565050 -0.0902661600 0 -1
-0.0223441780 -0.0916623210 0 -1
-0.0189610620 -0.0940218370 0 -1
-0.0159061720 -0.0970951210 0 -1
-0.0134429580 -0.1005619760 0 -1
-0.0117764010 -0.1040644910 0 -1
-0.0110337470 -0.1072429890 0 -1
-0.0112515140 -0.1097717510 0 -1
-0.0123715120 -0.1113917160 0 -1
-0.0142464530 -0.1119367840 0 -1
-0.0166545890 -0.1113501170 0 -1
-0.0193221450 -0.1096885130 0 -1
-0.0219509470 -0.1071151300 0 -1
-0.0242478050 -0.1038820140 0 -1
-0.0259531410 -0.1003044700 0 -1
-0.0268671150 -0.0967297850 0 -1
-0.0268709170 -0.0935034530 0 -1
-0.0259405080 -0.0909367110 0 -1
-0.0241506400 -0.0892787250 0 -1
-0.0216677760 -0.0886949180 0 -1
-0.0187326270 -0.0892519650 0 -1
-0.0156350690 -0.0909104290 0 -1
-0.0126849290 -0.0935257890 0 -1
-0.0101818860 -0.0968580810 0 -1
-0.0083861800 -0.1005908330 0 -1
-0.0074910760 -0.1043599080 0 -1
-0.0076004940 -0.1077902690 0 -1
-0.0087168460 -0.1105352720 0 -1
-0.0107414170 -0.1123126170 0 -1
-0.0134859580 -0.1129337180 0 -1
-0.0166934630 -0.1123245800 0 -1
-0.0200660730 -0.1105350350 0 -1
-0.0232965680 -0.1077335560 0 -1
-0.0260988780 -0.1041882350 0 -1
-0.0282343050 -0.1002377050 0 -1
-0.0295323490 -0.0962564740 0 -1
-0.0299058740 -0.0926188510 0 -1
-0.0293591550 -0.0896649450 0 -1
-0.0279866980 -0.0876707820 0 -1
-0.0259624080 -0.0868234620 0 -1
-0.0235204820 -0.0872027620 0 -1
-0.0209305600 -0.0887711910 0 -1
-0.0184712310 -0.0913740440 0 -1
-0.0164058080 -0.0947506710 0 -1
-0.0149609620 -0.0985576680 0 -1
-0.0143069820 -0.1024027150 0 -1
-0.0145408470 -0.1058853220 0 -1
-0.0156751240 -0.1086398530 0 -1
-0.0176343630 -0.1103758560 0 -1
-0.0202596880 -0.1109100010 0 -1
-0.0233228220 -0.1101845540 0 -1
-0.0265492800 -0.1082704310 0 -1
-0.0296469100 -0.1053562910 0 -1
-0.0323349620 -0.1017267260 -1 -1
-0.0343706730 -0.0977324640 -1 -1
-0.0355712930 -0.0937550610 -1 -1
-0.0358299990 -0.0901688080 -1 -1
-0.0351260020 -0.0873041540 -1 -1
-0.0335298150 -0.0854176650 -1 -1
-0.0312020060 -0.0846712920 -1 -1
-0.0283817870 -0.0851203540 0 -1
-0.0253641510 -0.0867090200 0 -1
-0.0224681830 -0.0892739460 0 -1
-0.0200012430 -0.0925577460 0 -1
-0.0182242950 -0.0962327150 0 -1
-0.0173237060 -0.0999329740 0 -1
-0.0173934190 -0.1032910890 0 -1
-0.0184283680 -0.1059743600 0 -1
-0.0203278010 -0.1077167020 0 -1
-0.0229067440 -0.1083436780 0 -1
-0.0259142580 -0.1077889220 0 -1
-0.0290574150 -0.1061002700 0 -1
-0.0320295540 -0.1034348580 -1 -1
-0.0345400040 -0.1000439290 -1 -1
-0.0363418280 -0.0962486940 -1 -1
-0.0372549040 -0.0924092070 -1 -1
-0.0371826190 -0.0888895770 -1 -1
-0.0361210120 -0.0860232960 -1 -1
-0.0341594460 -0.0840814720 -1 -1
-0.0314722730 -0.0832459460 -1 -1
-0.0283020810 -0.0835899020 0 -1
-0.0249364020 -0.0850689770 0 -1
-0.0216803270 -0.0875249970 0 -1
-0.0188280390 -0.0907023640 0 -1
-0.0166363350 -0.0942750330 0 -1
-0.0153013790 -0.0978805110 0 -1
-0.0149389880 -0.1011567560 0 -1
-0.0155705410 -0.1037779920 0 -1
-0.0171177870 -0.1054861660 0 -1
-0.0194088690 -0.1061152540 0 -1
-0.0221964190 -0.1056061330 0 -1
-0.0251854560 -0.1040108330 0 -1
-0.0280655080 -0.1014862510 0 -1
-0.0305424830 -0.0982781480 -1 -1
-0.0323679360 -0.0946971180 -1 -1
-0.0333624720 -0.0910887600 -1 -1
-0.0334297560 -0.0878006130 -1 -1
-0.0325612500 -0.0851490490 -1 -1
-0.0308348850 -0.0833892030 -1 -1
-0.0284092440 -0.0826899110 0 -1
-0.0255116540 -0.0831156430 0 -1
-0.0224187380 -0.0846183750 0 -1
-0.0194307580 -0.0870417690 0 -1
-0.0168429070 -0.0901377070 0 -1
-0.0149166110 -0.0935925330 0 -1
-0.0138526760 -0.0970588770 0 -1
-0.0137685500 -0.1001889720 0 -1
-0.0146836180 -0.1026664740 0 -1
-0.0165158920 -0.1042350590 0 -1
-0.0190902780 -0.1047229840 0 -1
-0.0221569420 -0.1040624390 0 -1
-0.0254180830 -0.1023005530 0 -1
-0.0285594690 -0.0995978120 0 -1
-0.0312811390 -0.0962121500 -1 -1
-0.0333238580 -0.0924716140 -1 -1
-0.0344913110 -0.0887409520 -1 -1
-0.0346680430 -0.0853863590 -1 -1
-0.0338312960 -0.0827407050 -1 -1
-0.0320546710 -0.0810713620 -1 -1
-0.0295023380 -0.0805536550 0 -1
-0.0264129050 -0.0812531050 0 -1
-0.0230740180 -0.0831179980 0 -1
-0.0197923130 -0.0859826350 0 -1
-0.0168636010 -0.0895817390 0 -1
-0.0145451560 -0.0935760120 0 -1
-0.0130312650 -0.0975866130 0 -1
-0.0124348760 -0.1012339030 0 -1
-0.0127781380 -0.1041756140 0 -1
-0.0139920710 -0.1061409560 0 -1
-0.0159240650 -0.1069576740 0 -1
-0.0183531110 -0.1065683890 0 -1
-0.0210126980 -0.1050334750 0 -1
-0.0236181380 -0.1025212420 0 -1
-0.0258941270 -0.0992893350 0 -1
-0.0276006450 -0.0956605160 0 -1
-0.0285556820 -0.0919933080 0 -1
-0.0286524990 -0.0886482680 0 -1
-0.0278699700 -0.0859531710 0 -1
-0.0262751940 -0.0841713940 0 -1
-0.0240177550 -0.0834766880 0 -1
-0.0213154170 -0.0839358680 0 -1
-0.0184319910 -0.0855006870 0 -1
-0.0156504270 -0.0880110100 0 -1
-0.0132454120 -0.0912106040 0 -1
-0.0114575770 -0.0947742990 0 -1
-0.0104699670 -0.0983427430 0 -1
-0.0103891540 -0.1015599770 0 -1
-0.0112344720 -0.1041095270 0 -1
-0.0129368570 -0.1057456140 0 -1
-0.0153463610 -0.1063162290 0 -1
-0.0182464250 -0.1057753990 0 -1
-0.0213726270 -0.1041839230 0 -1
-0.0244342440 -0.1016999920 0 -1
-0.0271386320 -0.0985621580 0 -1
-0.0292185140 -0.0950670630 0 -1
-0.0304602210 -0.0915434870 -1 -1
-0.0307289610 -0.0883235870 -1 -1
-0.0299862250 -0.0857124860 0 -1
-0.0282955720 -0.0839584610 0 -1
-0.0258164330 -0.0832273240 0 -1
-0.0227877760 -0.0835849640 0 -1
-0.0195035210 -0.0849902250 0 -1
-0.0162825870 -0.0872981160 0 -1
-0.0134375650 -0.0902730060 0 -1
-0.0112446910 -0.0936113690 0 -1
-0.0099160540 -0.0969720880 0 -1
-0.0095762420 -0.1000108980 0 -1
-0.0102480430 -0.1024154200 0 -1
-0.0118511940 -0.1039372550 0 -1
-0.0142136340 -0.1044171510 0 -1
-0.0170910500 -0.1037999880 0 -1
-0.0201912170 -0.1021382680 0 -1
-0.0232020470 -0.0995847440 0 -1
-0.0258219840 -0.0963762430 0 -1
-0.0277906210 -0.0928109890 0 -1
-0.0289171900 -0.0892209830 0 -1
-0.0291028130 -0.0859413820 0 -1
-0.0283509370 -0.0832799150 0 -1
-0.0267632230 -0.0814890830 0 -1
-0.0245232650 -0.0807424180 0 -1
-0.0218730160 -0.0811157170 0 -1
-0.0190864910 -0.0825755660 0 -1
-0.0164441340 -0.0849784960 0 -1
-0.0142097110 -0.0880830040 0 -1
-0.0126095660 -0.0915740410 0 -1
-0.0118137060 -0.0950967690 0 -1
-0.0119196390 -0.0982941540 0 -1
-0.0129414350 -0.1008422390 0 -1
-0.0148063110 -0.1024792380 0 -1
-0.0173591770 -0.1030280310 0 -1
-0.0203740550 -0.1024129290 0 -1
-0.0235721070 -0.1006698810 0 -1
-0.0266469830 -0.0979470260 0 -1
-0.0292964670 -0.0944925510 0 -1
-0.0312558470 -0.0906299770 -1 -1
-0.0323274440 -0.0867243540 -1 -1
-0.0324029300 -0.0831438620 -1 -1
-0.0314761240 -0.0802212050 -1 -1
-0.0296436040 -0.0782195500 0 -1
-0.0270924620 -0.0773074880 0 -1
-0.0240780330 -0.0775454970 0 -1
-0.0208963890 -0.0788841140 0 -1
-0.0178555570 -0.0811722160 0 -1
-0.0152474090 -0.0841727990 0 -1
-0.0133213900 -0.0875838840 0 -1
-0.0122617230 -0.0910637730 0 -1
-0.0121702490 -0.0942609910 0 -1
-0.0130572160 -0.0968480680 0 -1
-0.0148407660 -0.0985554000 0 -1
-0.0173538440 -0.0991995940 0 -1
-0.0203583130 -0.0987021090 0 -1
-0.0235675930 -0.0970967410 0 -1
-0.0266765160 -0.0945260880 0 -1
-0.0293929910 -0.0912280810 0 -1
-0.0314662180 -0.0875140220 -1 -1
-0.0327094490 -0.0837392020 -1 -1
-0.0330163520 -0.0802676720 -1 -1
-0.0323696950 -0.0774345670 -1 -1
-0.0308420140 -0.0755109470 -1 -1
-0.0285889740 -0.0746760560 0 -1
-0.0258356810 -0.0750000260 0 -1
-0.0228563110 -0.0764377500 0 -1
-0.0199484330 -0.0788336450 0 -1
-0.0174040410 -0.0819366440 0 -1
-0.0154802100 -0.0854239640 0 -1
-0.0143734360 -0.0889319690 0 -1
-0.0142003380 -0.0920921230 0 -1
-0.0149852500 -0.0945687100 0 -1
-0.0166552780 -0.0960937930 0 -1
-0.0190445350 -0.0964949830 0 -1
-0.0219087550 -0.0957127720 0 -1
-0.0249494400 -0.0938053760 0 -1
-0.0278446480 -0.0909407430 0 -1
-0.0302831670 -0.0873775610 -1 -1
-0.0319989240 -0.0834386110 -1 -1
-0.0328014110 -0.0794799110 -1 -1
-0.0325972670 -0.0758586340 -1 -1
-0.0314001220 -0.0729017510 -1 -1
-0.0293281990 -0.0708763250 0 -1
-0.0265897290 -0.0699626760 0 -1
-0.0234574320 -0.0702334330 0 -1
-0.0202364090 -0.0716423490 0 -1
-0.0172313630 -0.0740259270 0 -1
-0.0147171560 -0.0771189610 0 -1
-0.0129140560 -0.0805826130 0 -1
-0.0119687370 -0.0840411650 0 -1
-0.0119429210 -0.0871220650 0 -1
-0.0128103740 -0.0894937540 0 -1
-0.0144612700 -0.0908969360 0 -1
-0.0167134920 -0.0911676360 0 -1
-0.0193311580 -0.0902519880 0 -1
-0.0220484330 -0.0882117230 0 -1
-0.0245942710 -0.0852186910 0 -1
-0.0267147820 -0.0815384790 0 -1
-0.0281928460 -0.0775050520 0 -1
-0.0288665390 -0.0734888400 0 -1
-0.0286465660 -0.0698610320 0 -1
-0.0275294520 -0.0669571620 0 -1
-0.0256020780 -0.0650432630 0 -1
-0.0230354010 -0.0642882060 0 -1
-0.0200675990 -0.0647459090 0 -1
-0.0169789810 -0.0663499340 0 -1
-0.0140630550 -0.0689209670 0 -1
-0.0115983220 -0.0721859780 0 -1
-0.0098230720 -0.0758064910 0 -1
-0.0089133280 -0.0794124180 0 -1
-0.0089648750 -0.0826378820 0 -1
-0.0099828000 -0.0851559180 0 -1
-0.0118810550 -0.0867090420 0 -1
-0.0144903850 -0.0871334710 0 -1
-0.0175719190 -0.0863755100 0 -1
-0.0208368250 -0.0844980440 0 -1
-0.0239732230 -0.0816752810 0 -1
-0.0266781010 -0.0781757410 0 -1
-0.0286891040 -0.0743351970 0 -1
-0.0298114850 -0.0705223290 0 -1
-0.0299373980 -0.0671010590 0 -1
-0.0290567680 -0.0643940720 0 -1
-0.0272597680 -0.0626515460 0 -1
-0.0247298250 -0.0620281650 0 -1
-0.0217258530 -0.0625699890 0 -1
-0.0185556550 -0.0642113550 0 -1
-0.0155449760 -0.0667818320 0 -1
-0.0130053150 -0.0700228570 0 -1
-0.0112021930 -0.0736124660 0 -1
-0.0103270530 -0.0771958230 0 -1
-0.0104772820 -0.0804192060 0 -1
-0.0116472440 -0.0829643220 0 -1
-0.0137299510 -0.0845793550 0 -1
-0.0165278130 -0.0851037440 0 -1
-0.0197724240 -0.0844841600 0 -1
-0.0231530920 -0.0827795750 0 -1
-0.0263503530 -0.0801549580 0 -1
-0.0290685390 -0.0768649770 0 -1
-0.0310635060 -0.0732295290 -1 -1
-0.0321646990 -0.0696033010 -1 -1
-0.0322906880 -0.0663422110 -1 -1
-0.0314561430 -0.0637695780 -1 -1
-0.0297693100 -0.0621443730 0 -1
-0.0274207220 -0.0616343320 0 -1
-0.0246643960 -0.0622980810 0 -1
-0.0217928480 -0.0640795780 0 -1
-0.0191077500 -0.0668145260 0 -1
-0.0168896330 -0.0702459640 0 -1
-0.0153706370 -0.0740471380 0 -1
-0.0147121720 -0.0778509810 0 -1
-0.0149883670 -0.0812846910 0 -1
-0.0161775030 -0.0840062750 0 -1
-0.0181641830 -0.0857394110 0 -1
-0.0207529060 -0.0863031400 0 -1
-0.0236905740 -0.0856326720 0 -1
-0.0266940040 -0.0837876780 0 -1
-0.0294784930 -0.0809463210 0 -1
-0.0317837340 -0.0773861740 -1 -1
-0.0333949430 -0.0734549150 -1 -1
-0.0341594770 -0.0695343200 -1 -1
-0.0339995370 -0.0660016700 -1 -1
-0.0329197400 -0.0631927600 -1 -1
-0.0310077630 -0.0613699840 -1 -1
-0.0284274960 -0.0606977980 0 -1
-0.0254051230 -0.0612271560 0 -1
-0.0222094130 -0.0628903730 0 -1
-0.0191286860 -0.0655078330 0 -1
-0.0164464260 -0.0688069860 0 -1
-0.0144156840 -0.0724515230 0 -1
-0.0132324770 -0.0760759710 0 -1
-0.0130113040 -0.0793206130 0 -1
-0.0137687830 -0.0818638290 0 -1
-0.0154206200 -0.0834509830 0 -1
-0.0177926260 -0.0839186540 0 -1
-0.0206426080 -0.0832116990 0 -1
-0.0236884330 -0.0813903560 0 -1
-0.0266372650 -0.0786258010 0 -1
-0.0292128270 -0.0751839390 0 -1
-0.0311801340 -0.0713986400 -1 -1
-0.0323668470 -0.0676374770 -1 -1
-0.0326786280 -0.0642646490 -1 -1
-0.0321064550 -0.0616056800 -1 -1
-0.0307256950 -0.0599170780 -1 -1
-0.0286880730 -0.0593627390 0 -1
-0.0262082490 -0.0599981730 0 -1
-0.0235461240 -0.0617638640 0 -1
-0.0209843830 -0.0644893410 0 -1
-0.0188007600 -0.0679089080 0 -1
-0.0172377800 -0.0716882760 0 -1
-0.0164758720 -0.0754592450 0 -1
-0.0166152310 -0.0788580630 0 -1
-0.0176675820 -0.0815622690 0 -1
-0.0195556990 -0.0833214840 0 -1
-0.0221193350 -0.0839795880 0 -1
-0.0251285130 -0.0834874000 0 -1
-0.0283047880 -0.0819051010 0 -1
-0.0313483260 -0.0793941250 -1 -1
-0.0339669590 -0.0761998530 -1 -1
-0.0359045400 -0.0726281130 -1 -1
-0.0369672520 -0.0690182500 -1 -1
-0.0370451490 -0.0657141250 -1 -1
-0.0361245710 -0.0630337580 -1 -1
-0.0342892880 -0.0612390190 -1 -1
-0.0317114230 -0.0605082280 -1 -1
-0.0286338850 -0.0609157460 0 -1
-0.0253464970 -0.0624220970 0 -1
-0.0221588870 -0.0648760190 0 -1
-0.0193722250 -0.0680282240 0 -1
-0.0172506910 -0.0715558290 0 -1
-0.0159946300 -0.0750954050 0 -1
-0.0157190930 -0.0782812260 0 -1
-0.0164416000 -0.0807836630 0 -1
-0.0180808970 -0.0823420450 0 -1
-0.0204655140 -0.0827883210 0 -1
-0.0233498190 -0.0820613760 0 -1
-0.0264367460 -0.0802131430 0 -1
-0.0294072560 -0.0774059130 0 -1
-0.0319544780 -0.0738991610 -1 -1
-0.0338169720 -0.0700257160 -1 -1
-0.0348047570 -0.0661589110 -1 -1
-0.0348155290 -0.0626736100 -1 -1
-0.0338423490 -0.0599059670 -1 -1
-0.0319736550 -0.0581181490 -1 -1
-0.0293841980 -0.0574727020 0 -1
-0.0263162600 -0.0580177150 0 -1
-0.0230541150 -0.0596826590 0 -1
-0.0198967270 -0.0622858020 0 -1
-0.0171312300 -0.0655537290 0 -1
-0.0150066080 -0.0691508090 0 -1
-0.0137081400 -0.0727139780 0 -1
-0.0133370880 -0.0758879940 0 -1
-0.0139007740 -0.0783579440 0 -1
-0.0153141350 -0.0798769140 0 -1
-0.0174105380 -0.0802872390 0 -1
-0.0199596390 -0.0795345090 0 -1
-0.0226903530 -0.0776738470 0 -1
-0.0253162330 -0.0748673790 0 -1
-0.0275615530 -0.0713718320 0 -1
-0.0291879240 -0.0675160980 0 -1
-0.0300196580 -0.0636696990 -1 -1
-0.0299632730 -0.0602051740 0 -1
-0.0290171040 -0.0574593560 0 -1
-0.0272702530 -0.0556982650 0 -1
-0.0248922650 -0.0550892760 0 -1
-0.0221158160 -0.0556839030 0 -1
-0.0192147910 -0.0574135770 0 -1
-0.0164788880 -0.0600986230 0 -1
-0.0141849940 -0.0634684870 0 -1
-0.0125672910 -0.0671900370 0 -1
-0.0117910960 -0.0709003750 0 -1
-0.0119362030 -0.0742411060 0 -1
-0.0129916400 -0.0768914880 0 -1
-0.0148590060 -0.0785981350 0 -1
-0.0173619030 -0.0791991320 0 -1
-0.0202622870 -0.0786401400 0 -1
-0.0232839410 -0.0769801570 0 -1
-0.0261398490 -0.0743862200 0 -1
-0.0285595870 -0.0711181790 0 -1
-0.0303148280 -0.0675050990 -1 -1
-0.0312413670 -0.0639142650 -1 -1
-0.0312550330 -0.0607148430 -1 -1
-0.0303594070 -0.0582406370 -1 -1
-0.0286448010 -0.0567564960 0 -1
-0.0262786250 -0.0564309850 0 -1
-0.0234877680 -0.0573171050 0 -1
-0.0205352310 -0.0593437060 0 -1
-0.0176947490 -0.0623204970 0 -1
-0.0152265240 -0.0659574350 0 -1
-0.0133551970 -0.0698956340 0 -1
-0.0122499890 -0.0737446880 0 -1
-0.0120078760 -0.0771216270 0 -1
-0.0126424220 -0.0796881900 0 -1
-0.0140813220 -0.0811838100 0 -1
-0.0161739130 -0.0814513780 0 -1
-0.0187073340 -0.0804525220 0 -1
-0.0214282890 -0.0782702360 0 -1
-0.0240671440 -0.0750990730 0 -1
-0.0263625360 -0.0712247660 0 -1
-0.0280860470 -0.0669956740 0 -1
-0.0290653290 -0.0627889430 0 -1
-0.0292021930 -0.0589746340 0 -1
-0.0284828080 -0.0558811080 0 -1
-0.0269790660 -0.0537646210 0 -1
-0.0248413490 -0.0527855150 0 -1
-0.0222835850 -0.0529932090 0 -1
-0.0195617050 -0.0543222410 0 -1
-0.0169478210 -0.0565999630 0 -1
-0.0147039720 -0.0595644210 0 -1
-0.0130579540 -0.0628905500 0 -1
-0.0121810250 -0.0662225140 0 -1
-0.0121686350 -0.0692087350 0 -1
-0.0130286020 -0.0715357840 0 -1
-0.0146796840 -0.0729583780 0 -1
-0.0169599210 -0.0733230510 0 -1
-0.0196438620 -0.0725826420 0 -1
-0.0224672570 -0.0707997310 0 -1
-0.0251549360 -0.0681395780 0 -1
-0.0274472250 -0.0648541660 0 -1
-0.0291231960 -0.0612584720 0 -1
-0.0300209720 -0.0577006200 -1 -1
-0.0300543830 -0.0545286660 -1 -1
-0.0292232960 -0.0520570820 0 -1
-0.0276146210 -0.0505358200 0 -1
-0.0253930930 -0.0501243600 0 -1
-0.0227837830 -0.0508729510 0 -1
-0.0200495350 -0.0527138680 0 -1
-0.0174656750 -0.0554650970 0 -1
-0.0152933050 -0.0588468090 0 -1
-0.0137534400 -0.0625090370 0 -1
-0.0130053410 -0.0660675690 0 -1
-0.0131313000 -0.0691443150 0 -1
-0.0141284910 -0.0714081140 0 -1
-0.0159086120 -0.0726111090 0 -1
-0.0183061670 -0.0726149200 0 -1
-0.0210944890 -0.0714027900 0 -1
-0.0240073920 -0.0690778620 0 -1
-0.0267643640 -0.0658502120 0 -1
-0.0290969510 -0.0620152460 0 -1
-0.0307742050 -0.0579254130 -1 -1
-0.0316261080 -0.0539569580 -1 -1
-0.0315638540 -0.0504742710 -1 -1
-0.0305935170 -0.0477956020 -1 -1
-0.0288178370 -0.0461635150 0 -1
-0.0264237960 -0.0457219000 0 -1
-0.0236597150 -0.0465013660 0 -1
-0.0208076910 -0.0484160520 0 -1
-0.0181553710 -0.0512734280 0 -1
-0.0159696060 -0.0547947690 0 -1
-0.0144731350 -0.0586419270 0 -1
-0.0138236900 -0.0624475010 0 -1
-0.0140959920 -0.0658476530 0 -1
-0.0152705740 -0.0685169710 0 -1
-0.0172339620 -0.0702024220 0 -1
-0.0197915840 -0.0707512880 0 -1
-0.0226910480 -0.0701281950 0 -1
-0.0256507970 -0.0684184570 0 -1
-0.0283885660 -0.0658175100 0 -1
-0.0306463210 -0.0626086300 -1 -1
-0.0322112140 -0.0591328310 -1 -1
-0.0329328800 -0.0557551890 -1 -1
-0.0327369390 -0.0528307050 -1 -1
-0.0316340090 -0.0506713770 -1 -1
-0.0297218740 -0.0495163150 0 -1
-0.0271782680 -0.0495078930 0 -1
-0.0242446270 -0.0506769750 0 -1
-0.0212036450 -0.0529392040 0 -1
-0.0183528990 -0.0561028840 0 -1
-0.0159754450 -0.0598870750 0 -1
-0.0143097090 -0.0639477340 0 -1
-0.0135238160 -0.0679102550 0 -1
-0.0136991250 -0.0714062340 0 -1
-0.0148241240 -0.0741105790 0 -1
-0.0167975740 -0.0757741750 0 -1
-0.0194390990 -0.0762482000 0 -1
-0.0225054740 -0.0754983230 0 -1
-0.0257119200 -0.0736082230 0 -1
-0.0287578910 -0.0707716570 0 -1
-0.0313555760 -0.0672728360 -1 -1
-0.0332584620 -0.0634572440 -1 -1
-0.0342867000 -0.0596971650 -1 -1
-0.0343456420 -0.0563562500 -1 -1
-0.0334351980 -0.0537558260 -1 -1
-0.0316499400 -0.0521444120 -1 -1
-0.0291704140 -0.0516723880 0 -1
-0.0262458890 -0.0523753550 0 -1
-0.0231702230 -0.0541698140 0 -1
-0.0202540530 -0.0568623660 0 -1
-0.0177953180 -0.0601707090 0 -1
-0.0160490480 -0.0637534130 0 -1
-0.0151992310 -0.0672453690 0 -1
-0.0153381310 -0.0702950320 0 -1
-0.0164575880 -0.0725986190 0 -1
-0.0184526660 -0.0739273670 0 -1
-0.0211343870 -0.0741466810 0 -1
-0.0242484260 -0.0732271630 0 -1
-0.0274988230 -0.0712467750 0 -1
-0.0305757800 -0.0683835280 -1 -1
-0.0331846950 -0.0648988780 -1 -1
-0.0350734430 -0.0611126580 -1 -1
-0.0360567540 -0.0573715720 -1 -1
-0.0360363770 -0.0540151010 -1 -1
-0.0350133040 -0.0513431720 -1 -1
-0.0330888910 -0.0495887680 -1 -1
-0.0304548550 -0.0488969400 -1 -1
-0.0273737640 -0.0493109070 0 -1
-0.0241520840 -0.0507664700 0 -1
-0.0211088130 -0.0530966480 0 -1
-0.0185427720 -0.0560475010 0 -1
-0.0167012600 -0.0593036800 0 -1
-0.0157537870 -0.0625205520 0 -1
-0.0157755540 -0.0653593390 0 -1
-0.0167429640 -0.0675212450 0 -1
-0.0185393540 -0.0687765660 0 -1
-0.0209679260 -0.0689865440 0 -1
-0.0237706290 -0.0681172340 0 -1
-0.0266527450 -0.0662440600 0 -1
-0.0293116640 -0.0635451630 0 -1
-0.0314666650 -0.0602833720 -1 -1
-0.0328866760 -0.0567790110 -1 -1
-0.0334141090 -0.0533769730 -1 -1
-0.0329825110 -0.0504117220 -1 -1
-0.0316247320 -0.0481740960 -1 -1
-0.0294690580 -0.0468834060 0 -1
-0.0267233480 -0.0466666820 0 -1
-0.0236503110 -0.0475461590 0 -1
-0.0205387270 -0.0494367740 0 -1
-0.0176748980 -0.0521546530 0 -1
-0.0153174220 -0.0554352420 0 -1
-0.0136771060 -0.0589585870 0 -1
-0.0129020030 -0.0623796000 0 -1
-0.0130660000 -0.0653609650 0 -1
-0.0141602090 -0.0676054940 0 -1
-0.0160894160 -0.0688845170 0 -1
-0.0186768120 -0.0690595930 0 -1
-0.0216778670 -0.0680958070 0 -1
-0.0248017400 -0.0660659230 0 -1
-0.0277386400 -0.0631452570 0 -1
-0.0301919160 -0.0595974540 -1 -1
-0.0319118360 -0.0557515390 -1 -1
-0.0327251950 -0.0519711840 -1 -1
-0.0325550180 -0.0486186570 -1 -1
-0.0314278610 -0.0460174730 -1 -1
-0.0294692590 -0.0444180530 0 -1
-0.0268891220 -0.0439702980 0 -1
-0.0239591560 -0.0447067680 0 -1
-0.0209849830 -0.0465390200 0 -1
-0.0182759300 -0.0492670900 0 -1
-0.0161150920 -0.0526000480 0 -1
-0.0147318310 -0.0561851100 0 -1
-0.0142789930 -0.0596428850 0 -1
-0.0148170570 -0.0626057420 0 -1
-0.0163069190 -0.0647552900 0 -1
-0.0186126000 -0.0658548140 0 -1
-0.0215147420 -0.0657730460 0 -1
-0.0247343700 -0.0644967770 0 -1
-0.0279640950 -0.0621315330 0 -1
-0.0309013680 -0.0588910840 -1 -1
-0.0332782880 -0.0550768580 -1 -1
-0.0348847840 -0.0510485170 -1 -1
-0.0355840330 -0.0471884370 -1 -1
-0.0353200920 -0.0438644050 -1 -1
-0.0341195110 -0.0413947710 -1 -1
-0.0320893750 -0.0400185650 -1 -1
-0.0294117500 -0.0398722690 0 -1
-0.0263318770 -0.0409756580 0 -1
-0.0231380120 -0.0432293340 0 -1
-0.0201339270 -0.0464246830 0 -1
-0.0176076670 -0.0502645070 0 -1
-0.0158008120 -0.0543908940 0 -1
-0.0148824080 -0.0584173960 0 -1
-0.0149312660 -0.0619640210 0 -1
-0.0159289250 -0.0646932960 0 -1
-0.0177634970 -0.0663440570 0 -1
-0.0202428160 -0.0667587850 0 -1
-0.0231146950 -0.0659010010 0 -1
-0.0260919190 -0.0638607670 0 -1
-0.0288796290 -0.0608474680 0 -1
-0.0312028690 -0.0571696790 -1 -1
-0.0328321790 -0.0532033620 -1 -1
-0.0336054680 -0.0493522440 -1 -1
-0.0334445190 -0.0460060770 -1 -1
-0.0323635240 -0.0435020070 -1 -1
-0.0304668850 -0.0420921160 -1 -1
-0.0279366180 -0.0419191040 0 -1
-0.0250129320 -0.0430026680 0 -1
-0.0219711370 -0.0452388750 0 -1
-0.0190956440 -0.0484121290 0 -1
-0.0166518940 -0.0522172040 0 -1
-0.0148595080 -0.0562889570 0 -1
-0.0138708480 -0.0602379540 0 -1
-0.0137574680 -0.0636892350 0 -1
-0.0145046570 -0.0663197080 0 -1
-0.0160137500 -0.0678894630 0 -1
-0.0181126200 -0.0682636910 0 -1
-0.0205738380 -0.0674233690 0 -1
-0.0231378560 -0.0654644500 0 -1
-0.0255386510 -0.0625871240 0 -1
-0.0275299280 -0.0590769790 0 -1
-0.0289088920 -0.0552794270 0 -1
-0.0295345970 -0.0515688380 0 -1
-0.0293397070 -0.0483138950 0 -1
-0.0283354230 -0.0458413210 0 -1
-0.0266101240 -0.0444013850 0 -1
-0.0243223930 -0.0441398540 0 -1
-0.0216877690 -0.0450812910 0 -1
-0.0189585180 -0.0471270910 0 -1
-0.0163985610 -0.0500682540 0 -1
-0.0142575530 -0.0536100990 0 -1
-0.0127465990 -0.0574048910 0 -1
-0.0120165670 -0.0610878690 0 -1
-0.0121408040 -0.0643123290 0 -1
-0.0131051750 -0.0667804310 0 -1
-0.0148078230 -0.0682676860 0 -1
-0.0170697410 -0.0686403500 0 -1
-0.0196552600 -0.0678657570 0 -1
-0.0222992550 -0.0660155060 0 -1
-0.0247366940 -0.0632604850 0 -1
-0.0267307130 -0.0598568680 0 -1
-0.0280965550 -0.0561236780 0 -1
-0.0287194470 -0.0524135180 0 -1
-0.0285647790 -0.0490788910 0 -1
-0.0276789400 -0.0464378320 0 -1
-0.0261800700 -0.0447423440 0 -1
-0.0242411380 -0.0441519780 0 -1
-0.0220707340 -0.0447154040 0 -1
-0.0198956740 -0.0463632920 0 -1
-0.0179454460 -0.0489138870 0 -1
-0.0164359360 -0.0520901330 0 -1
-0.0155510150 -0.0555464290 0 -1
-0.0154234200 -0.0589030740 0 -1
-0.0161176230 -0.0617858340 0 -1
-0.0176171620 -0.0638667600 0 -1
-0.0198196260 -0.0649013890 0 -1
-0.0225423670 -0.0647570010 0 -1
-0.0255393940 -0.0634270850 0 -1
-0.0285269040 -0.0610296150 0 -1
-0.0312136400 -0.0577911170 -1 -1
-0.0333322270 -0.0540212680 -1 -1
-0.0346681290 -0.0500820980 -1 -1
-0.0350829010 -0.0463538550 -1 -1
-0.0345284690 -0.0431990170 -1 -1
-0.0330508270 -0.0409269290 -1 -1
-0.0307837110 -0.0397628840 -1 -1
-0.0279339880 -0.0398250340 0 -1
-0.0247611100 -0.0411110480 0 -1
-0.0215528420 -0.0434963010 0 -1
-0.0185988400 -0.0467454250 0 -1
-0.0161639180 -0.0505368970 0 -1
-0.0144635370 -0.0544971530 0 -1
-0.0136437000 -0.0582389960 0 -1
-0.0137668320 -0.0613997560 0 -1
-0.0148049710 -0.0636761220 0 -1
-0.0166410780 -0.0648532630 0 -1
-0.0190788860 -0.0648258080 0 -1
-0.0218617170 -0.0636078140 0 -1
-0.0246994770 -0.0613298540 0 -1
-0.0272999630 -0.0582238500 0 -1
-0.0293992830 -0.0545981120 0 -1
-0.0307882550 -0.0508055750 -1 -1
-0.0313330130 -0.0472090360 -1 -1
-0.0309872870 -0.0441476590 -1 -1
-0.0297938140 -0.0419073480 0 -1
-0.0278752280 -0.0406955090 0 -1
-0.0254184510 -0.0406215100 0 -1
-0.0226570300 -0.0416860350 0 -1
-0.0198526560 -0.0437816800 0 -1
-0.0172747630 -0.0467042940 0 -1
-0.0151782920 -0.0501730860 0 -1
-0.0137812820 -0.0538576340 0 -1
-0.0132437700 -0.0574094020 0 -1
-0.0136490650 -0.0604938950 0 -1
-0.0149899780 -0.0628198570 0 -1
-0.0171642340 -0.0641642360 0 -1
-0.0199819320 -0.0643929780 0 -1
-0.0231840210 -0.0634763180 0 -1
-0.0264684070 -0.0614956500 0 -1
-0.0295205030 -0.0586388880 0 -1
-0.0320454580 -0.0551830980 -1 -1
-0.0337990750 -0.0514665110 -1 -1
-0.0346139250 -0.0478548280 -1 -1
-0.0344172090 -0.0447066160 -1 -1
-0.0332382810 -0.0423400750 -1 -1
-0.0312049560 -0.0410017350 -1 -1
-0.0285291310 -0.0408392600 0 -1
-0.0254843330 -0.0418829760 0 -1
-0.0223782370 -0.0440401560 0 -1
-0.0195225480 -0.0471035150 0 -1
-0.0172029610 -0.0507730910 0 -1
-0.0156515660 -0.0546886960 0 -1
-0.0150234630 -0.0584684120 0 -1
-0.0153802860 -0.0617478700 0 -1
-0.0166838700 -0.0642155190 0 -1
-0.0188012460 -0.0656409530 0 -1
-0.0215195480 -0.0658949750 0 -1
-0.0245683610 -0.0649603500 0 -1
-0.0276469020 -0.0629321540 0 -1
-0.0304529620 -0.0600077210 -1 -1
-0.0327109940 -0.0564682990 -1 -1
-0.0341980850 -0.0526547630 -1 -1
-0.0347662900 -0.0489377840 -1 -1
-0.0343583670 -0.0456824340 -1 -1
-0.0330140260 -0.0432103590 -1 -1
-0.0308652700 -0.0417653300 -1 -1
-0.0281213830 -0.0414872880 0 -1
-0.0250466560 -0.0423977230 0 -1
-0.0219347770 -0.0443977220 0 -1
-0.0190816150 -0.0472789440 0 -1
-0.0167569970 -0.0507464040 0 -1
-0.0151782790 -0.0544502550 0 -1
-0.0144900160 -0.0580224100 0 -1
-0.0147521350 -0.0611130980 0 -1
-0.0159367070 -0.0634230430 0 -1
-0.0179319410 -0.0647289700 0 -1
-0.0205516030 -0.0649012100 0 -1
-0.0235494540 -0.0639126990 0 -1
-0.0266397670 -0.0618400450 0 -1
-0.0295235090 -0.0588580470 0 -1
-0.0319172840 -0.0552277540 -1 -1
-0.0335820730 -0.0512771550 -1 -1
-0.0343489430 -0.0473739370 -1 -1
-0.0341378730 -0.0438910970 -1 -1
-0.0329665330 -0.0411679780 -1 -1
-0.0309485030 -0.0394715050 -1 -1
-0.0282816400 -0.0389641740 0 -1
-0.0252268770 -0.0396846950 0 -1
-0.0220792910 -0.0415437810 0 -1
-0.0191365200 -0.0443344330 0 -1
-0.0166701080 -0.0477548730 0 -1
-0.0149019620 -0.0514411700 0 -1
-0.0139855630 -0.0550051040 0 -1
-0.0139921140 -0.0580728190 0 -1
-0.0149031300 -0.0603211060 0 -1
-0.0166110340 -0.0615088040 0 -1
-0.0189283100 -0.0615005840 0 -1
-0.0216049040 -0.0602806150 0 -1
-0.0243530220 -0.0579545710 0 -1
-0.0268769460 -0.0547394590 0 -1
-0.0289041180 -0.0509419370 0 -1
-0.0302136060 -0.0469273320 -1 -1
-0.0306588300 -0.0430827330 -1 -1
-0.0301827490 -0.0397780940 -1 -1
-0.0288245970 -0.0373296470 0 -1
-0.0267167930 -0.0359692520 0 -1
-0.0240710980 -0.0358221300 0 -1
-0.0211555040 -0.0368947650 0 -1
-0.0182658340 -0.0390743750 0 -1
-0.0156967220 -0.0421406980 0 -1
-0.0137145240 -0.0457891220 0 -1
-0.0125328520 -0.0496618720 0 -1
-0.0122923960 -0.0533831460 0 -1
-0.0130468330 -0.0565950740 0 -1
-0.0147552540 -0.0589919370 0 -1
-0.0172823080 -0.0603493490 0 -1
-0.0204082830 -0.0605449970 0 -1
-0.0238495740 -0.0595689470 0 -1
-0.0272874550 -0.0575234500 0 -1
-0.0304015310 -0.0546131920 -1 -1
-0.0329031710 -0.0511269150 -1 -1
-0.0345642210 -0.0474113070 -1 -1
-0.0352378650 -0.0438384830 -1 -1
-0.0348707190 -0.0407692890 -1 -1
-0.0335062480 -0.0385162310 -1 -1
-0.0312794100 -0.0373107750 -1 -1
-0.0284029760 -0.0372791650 0 -1
-0.0251472710 -0.0384291840 0 -1
-0.0218152400 -0.0406487050 0 -1
-0.0187145570 -0.0437162760 0 -1
-0.0161291430 -0.0473235740 0 -1
-0.0142928750 -0.0511077590 0 -1
-0.0133680910 -0.0546895900 0 -1
-0.0134311190 -0.0577123700 0 -1
-0.0144658100 -0.0598771170 0 -1
-0.0163650140 -0.0609707260 0 -1
-0.0189398430 -0.0608853370 0 -1
-0.0219364890 -0.0596276090 0 -1
-0.0250595200 -0.0573166960 0 -1
-0.0279996550 -0.0541709870 0 -1
-0.0304638360 -0.0504853940 -1 -1
-0.0322052220 -0.0466019430 -1 -1
-0.0330495010 -0.0428772220 -1 -1
-0.0329139030 -0.0396503970 -1 -1
-0.0318170090 -0.0372141640 -1 -1
-0.0298782370 -0.0357895380 0 -1
-0.0273060680 -0.0355054310 0 -1
-0.0243755010 -0.0363848580 0 -1
-0.0213971690 -0.0383400470 0 -1
-0.0186821830 -0.0411784480 0 -1
-0.0165080470 -0.0446206370 0 -1
-0.0150906850 -0.0483289380 0 -1
-0.0145652690 -0.0519429090 0 -1
-0.0149760710 -0.0551161860 0 -1
-0.0162750690 -0.0575496470 0 -1
-0.0183289420 -0.0590184960 0 -1
-0.0209329800 -0.0593926100 0 -1
-0.0238297930 -0.0586487780 0 -1
-0.0267320330 -0.0568728870 0 -1
-0.0293485780 -0.0542513620 0 -1
-0.0314120780 -0.0510529420 -1 -1
-0.0327049580 -0.0476029840 -1 -1
-0.0330816460 -0.0442529410 -1 -1
-0.0324852870 -0.0413472500 -1 -1
-0.0309565930 -0.0391896130 -1 -1
-0.0286320810 -0.0380114730 0 -1
-0.0257303160 -0.0379465810 0 -1
-0.0225276960 -0.0390158790 0 -1
-0.0193285240 -0.0411255210 0 -1
-0.0164346300 -0.0440774540 0 -1
-0.0141172240 -0.0475895960 0 -1
-0.0125914920 -0.0513235130 0 -1
-0.0119953810 -0.0549184260 0 -1
-0.0123757660 -0.0580286220 0 -1
-0.0136847780 -0.0603591150 0 -1
-0.0157860980 -0.0616947400 0 -1
-0.0184688010 -0.0619197320 0 -1
-0.0214669000 -0.0610265540 0 -1
-0.0244840700 -0.0591145050 0 -1
-0.0272225490 -0.0563796710 0 -1
-0.0294132650 -0.0530971780 0 -1
-0.0308431570 -0.0495960350 -1 -1
-0.0313766660 -0.0462276330 -1 -1
-0.0309696120 -0.0433306440 -1 -1
-0.0296735020 -0.0411964230 0 -1
-0.0276290010 -0.0400395100 0 -1
-0.0250499700 -0.0399771170 0 -1
-0.0222011810 -0.0410193580 0 -1
-0.0193723810 -0.0430697900 0 -1
-0.0168505340 -0.0459348140 0 -1
-0.0148917320 -0.0493406980 0 -1
-0.0136952260 -0.0529577790 0 -1
-0.0133830300 -0.0564310070 0 -1
-0.0139880010 -0.0594142010 0 -1
-0.0154513740 -0.0616041010 0 -1
-0.0176289870 -0.0627708170 0 -1
-0.0203052560 -0.0627821330 0 -1
-0.0232143190 -0.0616191150 0 -1
-0.0260656210 -0.0593801830 0 -1
-0.0285700180 -0.0562717390 0 -1
-0.0304650110 -0.0525861830 -1 -1
-0.0315394430 -0.0486712990 -1 -1
-0.0316562510 -0.0448956070 -1 -1
-0.0307701710 -0.0416127190 -1 -1
-0.0289370590 -0.0391270870 0 -1
-0.0263119870 -0.0376643930 0 -1
-0.0231349640 -0.0373495390 0 -1
-0.0197060420 -0.0381940520 0 -1
-0.0163535530 -0.0400942460 0 -1
-0.0133997220 -0.0428409050 0 -1
-0.0111272570 -0.0461402730 0 -1
-0.0097498820 -0.0496446000 0 -1
-0.0093905010 -0.0529883860 0 -1
-0.0100705030 -0.0558254590 0 -1
-0.0117107410 -0.0578629780 0 -1
-0.0141420620 -0.0588895010 0 -1
-0.0171232770 -0.0587947910 0 -1
-0.0203651580 -0.0575794470 0 -1
-0.0235592440 -0.0553536480 0 -1
-0.0264086380 -0.0523257650 0 -1
-0.0286563530 -0.0487821320 0 -1
-0.0301078120 -0.0450588330 -1 -1
-0.0306461180 -0.0415075080 -1 -1
-0.0302394200 -0.0384596600 -1 -1
-0.0289407270 -0.0361943650 0 -1
-0.0268817730 -0.0349122420 0 -1
-0.0242621520 -0.0347173770 0 -1
-0.0213335450 -0.0356086730 0 -1
-0.0183784050 -0.0374811050 0 -1
-0.0156835350 -0.0401359600 0 -1
-0.0135113450 -0.0432991140 0 -1
-0.0120731500 -0.0466466980 0 -1
-0.0115083750 -0.0498365910 0 -1
-0.0118721020 -0.0525426980 0 -1
-0.0131309720 -0.0544882670 0 -1
-0.0151654910 -0.0554744080 0 -1
-0.0177786760 -0.0554002640 0 -1
-0.0207136670 -0.0542725430 0 -1
-0.0236801750 -0.0522038810 0 -1
-0.0263847150 -0.0494008420 0 -1
-0.0285598230 -0.0461435240 0 -1
-0.0299905910 -0.0427589680 0 -1
-0.0305367890 -0.0395901700 -1 -1
-0.0301473920 -0.0369627800 -1 -1
-0.0288657180 -0.0351530010 0 -1
-0.0268255920 -0.0343603720 0 -1
-0.0242387150 -0.0346876820 0 -1
-0.0213729420 -0.0361297830 0 -1
-0.0185232880 -0.0385731160 0 -1
-0.0159802670 -0.0418062630 0 -1
-0.0140011390 -0.0455400080 0 -1
-0.0127877140 -0.0494345010 0 -1
-0.0124711510 -0.0531306220 0 -1
-0.0131022140 -0.0562830250 0 -1
-0.0146457370 -0.0585929790 0 -1
-0.0169798240 -0.0598384230 0 -1
-0.0199023550 -0.0598976430 0 -1
-0.0231480000 -0.0587636520 0 -1
-0.0264158300 -0.0565471600 0 -1
-0.0294024880 -0.0534667300 0 -1
-0.0318338800 -0.0498269140 -1 -1
-0.0334908850 -0.0459877850 -1 -1
-0.0342276140 -0.0423296120 -1 -1
-0.0339825860 -0.0392158360 -1 -1
-0.0327838880 -0.0369574180 -1 -1
-0.0307479550 -0.0357816040 -1 -1
-0.0280701170 -0.0358077880 0 -1
-0.0250066550 -0.0370329890 0 -1
-0.0218506440 -0.0393295360 0 -1
-0.0189041630 -0.0424569110 0 -1
-0.0164485870 -0.0460874070 0 -1
-0.0147155810 -0.0498424250 0 -1
-0.0138629520 -0.0533340360 0 -1
-0.0139590090 -0.0562053880 0 -1
-0.0149767940 -0.0581649090 0 -1
-0.0167983130 -0.0590124650 0 -1
-0.0192283930 -0.0586570660 0 -1
-0.0220160850 -0.0571250170 0 -1
-0.0248798770 -0.0545567260 0 -1
-0.0275336540 -0.0511917590 0 -1
-0.0297123210 -0.0473446160 0 -1
-0.0311969350 -0.0433750560 -1 -1
-0.0318376910 -0.0396553950 -1 -1
-0.0315707860 -0.0365361090 -1 -1
-0.0304256000 -0.0343123810 -1 -1
-0.0285215290 -0.0331956830 0 -1
-0.0260556070 -0.0332936960 0 -1
-0.0232824820 -0.0345996990 0 -1
-0.0204889250 -0.0369918010 0 -1
-0.0179655150 -0.0402427150 0 -1
-0.0159781660 -0.0440401780 0 -1
-0.0147420780 -0.0480165620 0 -1
-0.0144003730 -0.0517845060 0 -1
-0.0150090280 -0.0549748630 0 -1
-0.0165290320 -0.0572736430 0 -1
-0.0188265950 -0.0584543730 0 -1
-0.0216828890 -0.0584015730 0 -1
-0.0248140950 -0.0571220590 0 -1
-0.0279002560 -0.0547433300 0 -1
-0.0306198760 -0.0514998060 -1 -1
-0.0326861600 -0.0477087410 -1 -1
-0.0338791610 -0.0437389860 -1 -1
-0.0340683970 -0.0399760320 -1 -1
-0.0332238850 -0.0367860210 -1 -1
-0.0314168270 -0.0344814490 -1 -1
-0.0288119920 -0.0332913820 0 -1
-0.0256526280 -0.0333385420 0 -1
-0.0222376520 -0.0346258210 0 -1
-0.0188916430 -0.0370351730 0 -1
-0.0159309220 -0.0403397130 0 -1
-0.0136310450 -0.0442262020 0 -1
-0.0122007100 -0.0483244800 0 -1
-0.0117644690 -0.0522423610 0 -1
-0.0123538720 -0.0556045520 0 -1
-0.0139054960 -0.0580914400 0 -1
-0.0162656700 -0.0594723350 0 -1
-0.0192034160 -0.0596291610 0 -1
-0.0224316890 -0.0585682640 0 -1
-0.0256343570 -0.0564188790 0 -1
-0.0284962590 -0.0534180860 0 -1
-0.0307347040 -0.0498842690 -1 -1
-0.0321296260 -0.0461831190 -1 -1
-0.0325477840 -0.0426907300 -1 -1
-0.0319567860 -0.0397577160 -1 -1
-0.0304274070 -0.0376772170 -1 -1
-0.0281247140 -0.0366582780 0 -1
-0.0252891940 -0.0368058220 0 -1
-0.0222100800 -0.0381094940 0 -1
-0.0191948770 -0.0404435090 0 -1
-0.0165398920 -0.0435779960 0 -1
-0.0145046250 -0.0472012840 0 -1
-0.0132900920 -0.0509514070 0 -1
-0.0130211340 -0.0544531260 0 -1
-0.0137343840 -0.0573556360 0 -1
-0.0153736850 -0.0593669850 0 -1
-0.0177938780 -0.0602824320 0 -1
-0.0207734310 -0.0600043210 0 -1
-0.0240354190 -0.0585511310 0 -1
-0.0272741150 -0.0560543900 0 -1
-0.0301837170 -0.0527444360 -1 -1
-0.0324875120 -0.0489276290 -1 -1
-0.0339659190 -0.0449579020 -1 -1
-0.0344796470 -0.0412048370 -1 -1
-0.0339841470 -0.0380198330 -1 -1
-0.0325338170 -0.0357026150 -1 -1
-0.0302762780 -0.0344715890 -1 -1
-0.0274375500 -0.0344414930 0 -1
-0.0242991150 -0.0356106460 0 -1
-0.0211689280 -0.0378595650 0 -1
-0.0183499520 -0.0409621650 0 -1
-0.0161106120 -0.0446087300 0 -1
-0.0146604740 -0.0484376300 0 -1
-0.0141324460 -0.0520720040 0 -1
-0.0145714750 -0.0551574250 0 -1
-0.0159301620 -0.0573965910 0 -1
-0.0180726370 -0.0585777540 0 -1
-0.0207871480 -0.0585943020 0 -1
-0.0238061720 -0.0574536670 0 -1
-0.0268322460 -0.0552753070 0 -1
-0.0295671590 -0.0522787480 0 -1
-0.0317413910 -0.0487626120 -1 -1
-0.0331408480 -0.0450756500 -1 -1
-0.0336280620 -0.0415820490 -1 -1
-0.0331556580 -0.0386246530 -1 -1
-0.0317714120 -0.0364901860 -1 -1
-0.0296146560 -0.0353806530 0 -1
-0.0269030690 -0.0353945350 0 -1
-0.0239103260 -0.0365189850 0 -1
-0.0209381890 -0.0386322240 0 -1
-0.0182872000 -0.0415154150 0 -1
-0.0162279630 -0.0448735430 0 -1
-0.0149741950 -0.0483642840 0 -1
-0.0146605360 -0.0516326060 0 -1
-0.0153290640 -0.0543467730 0 -1
-0.0169267460 -0.0562305630 0 -1
-0.0193131630 -0.0570882980 0 -1
-0.0222757310 -0.0568215890 0 -1
-0.0255488460 -0.0554377890 0 -1
-0.0288348940 -0.0530501070 0 -1
-0.0318275900 -0.0498688840 -1 -1
-0.0342390160 -0.0461834990 -1 -1
-0.0358296810 -0.0423355510 -1 -1
-0.0364368250 -0.0386859940 -1 -1
-0.0359950250 -0.0355798170 -1 -1
-0.0345456840 -0.0333114800 -1 -1
-0.0322344440 -0.0320944890 -1 -1
-0.0292966900 -0.0320391590 0 -1
-0.0260322160 -0.0331415130 0 -1
-0.0227720670 -0.0352842310 0 -1
-0.0198428710 -0.0382489780 0 -1
-0.0175335730 -0.0417384820 0 -1
-0.0160671410 -0.0454065510 0 -1
-0.0155790440 -0.0488933480 0 -1
-0.0161045500 -0.0518615250 0 -1
-0.0175760010 -0.0540282960 0 -1
-0.0198298550 -0.0551904100 0 -1
-0.0226233770 -0.0552412880 0 -1
-0.0256608570 -0.0541806700 0 -1
-0.0286266360 -0.0521160390 0 -1
-0.0312192450 -0.0492537660 -1 -1
-0.0331820230 -0.0458792890 -1 -1
-0.0343281050 -0.0423288740 -1 -1
-0.0345571090 -0.0389568830 -1 -1
-0.0338606430 -0.0361012070 -1 -1
-0.0323171900 -0.0340489910 -1 -1
-0.0300798390 -0.0330063160 -1 -1
-0.0273601480 -0.0330763930 0 -1
-0.0244100300 -0.0342490890 0 -1
-0.0215016540 -0.0364021830 0 -1
-0.0189045340 -0.0393135080 0 -1
-0.0168608830 -0.0426829390 0 -1
-0.0155621600 -0.0461626130 0 -1
-0.0151293510 -0.0493925510 0 -1
-0.0155990070 -0.0520376780 0 -1
-0.0169174960 -0.0538220720 0 -1
-0.0189455050 -0.0545568120 0 -1
-0.0214728680 -0.0541586830 0 -1
-0.0242410150 -0.0526579130 0 -1
-0.0269690610 -0.0501942290 0 -1
-0.0293808180 -0.0470019360 0 -1
-0.0312313190 -0.0433865120 -1 -1
-0.0323305480 -0.0396955770 -1 -1
-0.0325613700 -0.0362862190 -1 -1
-0.0318900560 -0.0334904930 -1 -1
-0.0303690990 -0.0315825560 -1 -1
-0.0281327060 -0.0307521760 0 -1
-0.0253858080 -0.0310880140 0 -1
-0.0223869120 -0.0325709270 0 -1
-0.0194245710 -0.0350757690 0 -1
-0.0167886580 -0.0383808840 0 -1
-0.0147400550 -0.0421857310 0 -1
-0.0134833710 -0.0461370390 0 -1
-0.0131464930 -0.0498621710 0 -1
-0.0137689120 -0.0530060820 0 -1
-0.0152986000 -0.0552668630 0 -1
-0.0175965040 -0.0564255090 0 -1
-0.0204482840 -0.0563676910 0 -1
-0.0235831050 -0.0550961720 0 -1
-0.0266982200 -0.0527316350 0 -1
-0.0294872910 -0.0495006360 0 -1
-0.0316705580 -0.0457126600 -1 -1
-0.0330243860 -0.0417299870 -1 -1
-0.0334063390 -0.0379330300 -1 -1
-0.0327723620 -0.0346829190 -1 -1
-0.0311838980 -0.0322843170 -1 -1
-0.0288031420 -0.0309530710 0 -1
-0.0258758130 -0.0307936510 0 -1
-0.0227038610 -0.0317901330 0 -1
-0.0196132680 -0.0338116780 0 -1
-0.0169220490 -0.0366300950 0 -1
-0.0149110190 -0.0399456330 0 -1
-0.0137979420 -0.0434174720 0 -1
-0.0137158310 -0.0466958160 0 -1
-0.0146974520 -0.0494534960 0 -1
-0.0166694390 -0.0514164160 0 -1
-0.0194589330 -0.0523915300 0 -1
-0.0228121480 -0.0522882360 0 -1
-0.0264208250 -0.0511284720 0 -1
-0.0299519430 -0.0490436230 0 -1
-0.0330779130 -0.0462592890 -1 -1
-0.0355065380 -0.0430702730 -1 -1
-0.0370099930 -0.0398092900 -1 -1
-0.0374497150 -0.0368134640 -1 -1
-0.0367924640 -0.0343921430 -1 -1
-0.0351145420 -0.0327984350 -1 -1
-0.0325940420 -0.0322061180 -1 -1
-0.0294919320 -0.0326934130 0 -1
-0.0261232140 -0.0342350520 0 -1
-0.0228221670 -0.0367032670 0 -1
-0.0199075080 -0.0398777160 0 -1
-0.0176518320 -0.0434642590 0 -1
-0.0162575940 -0.0471221050 0 -1
-0.0158411730 -0.0504970860 0 -1
-0.0164256920 -0.0532567580 0 -1
-0.0179415160 -0.0551228470 0 -1
-0.0202331240 -0.0558986440 0 -1
-0.0230728680 -0.0554899600 0 -1
-0.0261822170 -0.0539171160 0 -1
-0.0292589090 -0.0513150090 0 -1
-0.0320069880 -0.0479206810 -1 -1
-0.0341664390 -0.0440507720 -1 -1
-0.0355388530 -0.0400719830 -1 -1
-0.0360057840 -0.0363666330 -1 -1
-0.0355378790 -0.0332950180 -1 -1
-0.0341950300 -0.0311579020 -1 -1
-0.0321191880 -0.0301641400 -1 -1
-0.0295213390 -0.0304079210 0 -1
-0.0266633650 -0.0318583610 0 -1
-0.0238346960 -0.0343625620 0 -1
-0.0213236810 -0.0376619440 0 -1
-0.0193860330 -0.0414200950 0 -1
-0.0182162520 -0.0452583910 0 -1
-0.0179280480 -0.0487940750 0 -1
-0.0185459320 -0.0516764540 0 -1
-0.0200065100 -0.0536191670 0 -1
-0.0221668290 -0.0544273680 0 -1
-0.0248181820 -0.0540174620 0 -1
-0.0277047280 -0.0524259110 0 -1
-0.0305458370 -0.0498043550 -1 -1
-0.0330605420 -0.0464016120 -1 -1
-0.0349931620 -0.0425364940 -1 -1
-0.0361391450 -0.0385660970 -1 -1
-0.0363683470 -0.0348532270 -1 -1
-0.0356413250 -0.0317355540 -1 -1
-0.0340149340 -0.0294976210 -1 0
-0.0316364950 -0.0283455000 -1 0
-0.0287285940 -0.0283851340 0 0
-0.0255665960 -0.0296082690 0 0
-0.0224503390 -0.0318901500 0 -1
-0.0196734490 -0.0350007790 0 -1
-0.0174948400 -0.0386285420 0 -1
-0.0161146510 -0.0424122040 0 -1
-0.0156554730 -0.0459763170 0 -1
-0.0161507330 -0.0489667020 0 -1
-0.0175422210 -0.0510844290 0 -1
-0.0196871880 -0.0521161680 0 -1
-0.0223737310 -0.0519570720 0 -1
-0.0253414710 -0.0506227110 0 -1
-0.0283045520 -0.0482488470 0 -1
-0.0309764070 -0.0450791620 -1 -1
-0.0330961630 -0.0414413670 -1 -1
-0.0344540650 -0.0377130690 -1 -1
-0.0349121740 -0.0342807790 -1 -1
-0.0344182850 -0.0314977190 -1 -1
-0.0330121510 -0.0296466110 -1 0
-0.0308234450 -0.0289119780 -1 0
-0.0280610420 -0.0293644120 0 0
-0.0249933480 -0.0309573230 0 -1
-0.0219208420 -0.0335348220 0 -1
-0.0191448600 -0.0368487220 0 -1
-0.0169371680 -0.0405835230 0 -1
-0.0155130270 -0.0443878580 0 -1
-0.0150094860 -0.0479087460 0 -1
-0.0154710480 -0.0508242010 0 -1
-0.0168450250 -0.0528713250 0 -1
-0.0189879050 -0.0538684550 0 -1
-0.0216817080 -0.0537306280 0 -1
-0.0246573530 -0.0524776540 0 -1
-0.0276218560 -0.0502336230 0 -1
-0.0302864710 -0.0472166060 -1 -1
-0.0323930180 -0.0437187930 -1 -1
-0.0337367590 -0.0400791430 -1 -1
-0.0341854320 -0.0366514050 -1 -1
-0.0336934270 -0.0337701710 -1 -1
-0.0323088380 -0.0317175230 -1 -1
-0.0301715620 -0.0306935520 -1 -1
-0.0275021580 -0.0307951790 0 -1
-0.0245816070 -0.0320062770 0 -1
-0.0217227180 -0.0341988700 0 -1
-0.0192367390 -0.0371446710 0 -1
-0.0174008370 -0.0405372270 0 -1
-0.0164300350 -0.0440234390 0 -1
-0.0164546170 -0.0472404920 0 -1
-0.0175047420 -0.0498530500 0 -1
-0.0195056190 -0.0515864310 0 -1
-0.0222848330 -0.0522528090 0 -1
-0.0255897960 -0.0517685380 0 -1
-0.0291122890 -0.0501619870 0 -1
-0.0325181200 -0.0475721440 -1 -1
-0.0354804270 -0.0442375960 -1 -1
-0.0377141610 -0.0404752910 -1 -1
-0.0390074370 -0.0366502100 -1 -1
-0.0392443400 -0.0331388570 -1 -1
-0.0384152260 -0.0302903590 -1 -1
-0.0366139130 -0.0283896960 -1 0
-0.0340238500 -0.0276277670 -1 0
-0.0308967410 -0.0280817710 -1 0
-0.0275272260 -0.0297078600 0 0
-0.0242263610 -0.0323465830 0 -1
-0.0212950740 -0.0357400520 0 -1
-0.0189978710 -0.0395584440 0 -1
-0.0175383050 -0.0434328080 0 -1
-0.0170392870 -0.0469908770 0 -1
-0.0175312490 -0.0498926750 0 -1
-0.0189499200 -0.0518624990 0 -1
-0.0211432960 -0.0527140350 0 -1
-0.0238857290 -0.0523672060 0 -1
-0.0268980410 -0.0508563380 0 -1
-0.0298736520 -0.0483281290 0 -1
-0.0325088360 -0.0450279180 -1 -1
-0.0345329960 -0.0412752790 -1 -1
-0.0357350890 -0.0374325300 -1 -1
-0.0359837830 -0.0338700780 -1 -1
-0.0352402000 -0.0309314310 -1 -1
-0.0335624390 -0.0289002970 -1 0
-0.0311010410 -0.0279728750 -1 0
-0.0280851810 -0.0282386110 0 0
-0.0248008390 -0.0296715990 0 0
-0.0215638870 -0.0321332130 0 -1
-0.0186907980 -0.0353859540 0 -1
-0.0164680330 -0.0391174620 0 -1
-0.0151212140 -0.0429713370 0 -1
-0.0147878260 -0.0465804580 0 -1
-0.0154996410 -0.0496003550 0 -1
-0.0171804190 -0.0517418760 0 -1
-0.0196592270 -0.0528012280 0 -1
-0.0226936220 -0.0526829520 0 -1
-0.0259959810 -0.0514108590 0 -1
-0.0292600310 -0.0491247630 0 -1
-0.0321877130 -0.0460643590 -1 -1
-0.0345161020 -0.0425435180 -1 -1
-0.0360424230 -0.0389186720 -1 -1
-0.0366441350 -0.0355545870 -1 -1
-0.0362911060 -0.0327904320 -1 -1
-0.0350482690 -0.0309083670 -1 -1
-0.0330688440 -0.0301064330 -1 -1
-0.0305782020 -0.0304778980 -1 -1
-0.0278491260 -0.0319999170 0 -1
-0.0251719590 -0.0345343430 0 -1
-0.0228245050 -0.0378412960 0 -1
-0.0210452160 -0.0416032070 0 -1
-0.0200116350 -0.0454564500 0 -1
-0.0198251770 -0.0490278450 0 -1
-0.0205030750 -0.0519720780 0 -1
-0.0219777750 -0.0540053900 0 -1
-0.0241029390 -0.0549324470 0 -1
-0.0266652760 -0.0546645400 0 -1
-0.0294025930 -0.0532274430 0 -1
-0.0320284330 -0.0507584240 -1 -1
-0.0342615110 -0.0474934170 -1 -1
-0.0358560790 -0.0437453190 -1 -1
-0.0366287810 -0.0398741160 -1 -1
-0.0364781190 -0.0362509690 -1 -1
-0.0353941020 -0.0332205920 -1 -1
-0.0334579770 -0.0310671090 -1 -1
-0.0308340610 -0.0299869660 -1 0
-0.0277555020 -0.0300704240 0 -1
-0.0245039030 -0.0312929580 0 -1
-0.0213827640 -0.0335177920 0 -1
-0.0186874440 -0.0365095010 0 -1
-0.0166754120 -0.0399574180 0 -1
-0.0155393310 -0.0435070540 0 -1
-0.0153857880 -0.0467966350 0 -1
-0.0162235790 -0.0494942220 0 -1
-0.0179637210 -0.0513308090 0 -1
-0.0204298460 -0.0521263580 0 -1
-0.0233761620 -0.0518067020 0 -1
-0.0265106960 -0.0504095110 0 -1
-0.0295223860 -0.0480787170 0 -1
-0.0321107660 -0.0450488340 -1 -1
-0.0340163830 -0.0416211420 -1 -1
-0.0350489140 -0.0381335140 -1 -1
-0.0351084390 -0.0349269950 -1 -1
-0.0341956200 -0.0323135950 -1 -1
-0.0324096120 -0.0305482520 -1 -1
-0.0299357020 -0.0298056690 0 0
-0.0270252550 -0.0301629540 0 -1
-0.0239700530 -0.0315900510 0 -1
-0.0210735600 -0.0339493870 0 -1
-0.0186221270 -0.0370057140 0 -1
-0.0168579830 -0.0404470110 0 -1
-0.0159550800 -0.0439155080 0 -1
-0.0160006150 -0.0470451400 0 -1
-0.0169861220 -0.0495008760 0 -1
-0.0188099270 -0.0510157790 0 -1
-0.0212899660 -0.0514211330 0 -1
-0.0241841860 -0.0506650110 0 -1
-0.0272149650 -0.0488169140 0 -1
-0.0300950030 -0.0460585380 -1 -1
-0.0325534700 -0.0426620320 -1 -1
-0.0343605920 -0.0389592020 -1 -1
-0.0353479030 -0.0353073400 -1 -1
-0.0354225740 -0.0320560270 -1 -1
-0.0345755900 -0.0295162400 -1 0
-0.0328829500 -0.0279325250 -1 0
-0.0304988520 -0.0274600250 -1 0
-0.0276410360 -0.0281487680 0 0
-0.0245694850 -0.0299374690 0 0
-0.0215616450 -0.0326580210 0 -1
-0.0188880810 -0.0360508700 0 -1
-0.0167897930 -0.0397904160 0 -1
-0.0154570000 -0.0435176450 0 -1
-0.0150116590 -0.0468758660 0 -1
-0.0154965570 -0.0495457510 0 -1
-0.0168706860 -0.0512759600 0 -1
-0.0190096100 -0.0519058950 0 -1
-0.0217119420 -0.0513793540 0 -1
-0.0247142960 -0.0497495350 0 -1
-0.0277156350 -0.0471750450 0 -1
-0.0304096730 -0.0439058090 -1 -1
-0.0325209810 -0.0402590180 -1 -1
-0.0338378180 -0.0365877550 -1 -1
-0.0342356060 -0.0332462570 -1 -1
-0.0336889720 -0.0305555970 -1 -1
-0.0322727680 -0.0287728420 -1 0
-0.0301526010 -0.0280668410 -1 0
-0.0275655850 -0.0285037710 0 0
-0.0247935690 -0.0300434660 0 -1
-0.0221330410 -0.0325446590 0 -1
-0.0198662070 -0.0357766530 0 -1
-0.0182355900 -0.0394374420 0 -1
-0.0174221480 -0.0431800950 0 -1
-0.0175270400 -0.0466471700 0 -1
-0.0185592760 -0.0495089480 0 -1
-0.0204320760 -0.0514987120 0 -1
-0.0229692190 -0.0524389720 0 -1
-0.0259214260 -0.0522558800 0 -1
-0.0289921320 -0.0509826150 0 -1
-0.0318698720 -0.0487536580 -1 -1
-0.0342613530 -0.0457915070 -1 -1
-0.0359198000 -0.0423867220 -1 -1
-0.0366671420 -0.0388723130 -1 -1
-0.0364104850 -0.0355939190 -1 -1
-0.0351523690 -0.0328773980 -1 -1
-0.0329932690 -0.0309961830 -1 -1
-0.0301241440 -0.0301424360 -1 -1
-0.0268076390 -0.0304061840 0 -1
-0.0233500230 -0.0317647410 0 -1
-0.0200690140 -0.0340833300 0 -1
-0.0172621840 -0.0371272170 0 -1
-0.0151783430 -0.0405844720 0 -1
-0.0139935150 -0.0440967840 0 -1
-0.0137945070 -0.0472950180 0 -1
-0.0145728870 -0.0498364300 0 -1
-0.0162291160 -0.0514403570 0 -1
-0.0185839730 -0.0519185590 0 -1
-0.0213951350 -0.0511963480 0 -1
-0.0243787550 -0.0493212240 0 -1
-0.0272352830 -0.0464569580 0 -1
-0.0296768520 -0.0428641510 0 -1
-0.0314540810 -0.0388718390 -1 -1
-0.0323808700 -0.0348452260 -1 -1
-0.0323542280 -0.0311523090 -1 -1
-0.0313661070 -0.0281302700 -1 0
-0.0295063050 -0.0260529440 0 0
-0.0269559810 -0.0251027150 0 0
-0.0239708320 -0.0253511820 0 0
-0.0208545690 -0.0267517620 0 0
-0.0179263050 -0.0291450740 0 0
-0.0154870610 -0.0322760540 0 -1
-0.0137901060 -0.0358204730 0 -1
-0.0130172900 -0.0394175610 0 -1
-0.0132620660 -0.0427054450 0 -1
-0.0145209190 -0.0453560820 0 -1
-0.0166951850 -0.0471059320 0 -1
-0.0196027160 -0.0477794340 0 -1
-0.0229964010 -0.0473042910 0 -1
-0.0265862830 -0.0457183450 0 -1
-0.0300639630 -0.0431672890 -1 -1
-0.0331291740 -0.0398924490 -1 -1
-0.0355171650 -0.0362086920 -1 -1
-0.0370241790 -0.0324740650 -1 -1
-0.0375282010 -0.0290548650 -1 0
-0.0370020280 -0.0262903570 -1 0
-0.0355159770 -0.0244599320 -1 0
-0.0332296500 -0.0237549000 -1 0
-0.0303743640 -0.0242580100 -1 0
-0.0272288250 -0.0259336340 0 0
-0.0240913810 -0.0286299260 0 0
-0.0212520840 -0.0320928820 0 -1
-0.0189665530 -0.0359913450 0 -1
-0.0174335390 -0.0399506930 0 -1
-0.0167782580 -0.0435911890 0 -1
-0.0170421940 -0.0465658800 0 -1
-0.0181796160 -0.0485938530 0 -1
-0.0200624530 -0.0494868180 0 -1
-0.0224938330 -0.0491674040 0 -1
-0.0252271780 -0.0476765630 0 -1
-0.0279879790 -0.0451687540 0 -1
-0.0304974670 -0.0418964300 -1 -1
-0.0324971770 -0.0381862630 -1 -1
-0.0337734950 -0.0344087070 -1 -1
-0.0341813870 -0.0309422560 -1 -1
-0.0336643090 -0.0281352220 -1 0
-0.0322658910 -0.0262697900 -1 0
-0.0301296240 -0.0255331220 -1 0
-0.0274841330 -0.0259987040 0 0
-0.0246151630 -0.0276193950 0 0
-0.0218302030 -0.0302321550 0 -1
-0.0194231000 -0.0335736170 0 -1
-0.0176440890 -0.0373057280 0 -1
-0.0166778390 -0.0410501560 0 -1
-0.0166290840 -0.0444281040 0 -1
-0.0175143310 -0.0471001220 0 -1
-0.0192595690 -0.0488005420 0 -1
-0.0217055090 -0.0493626470 0 -1
-0.0246214420 -0.0487325260 0 -1
-0.0277271710 -0.0469712890 0 -1
-0.0307208370 -0.0442469750 -1 -1
-0.0333089960 -0.0408181770 -1 -1
-0.0352350950 -0.0370105590 -1 -1
-0.0363042950 -0.0331868770 -1 -1
-0.0364034270 -0.0297122440 -1 0
-0.0355133850 -0.0269182190 -1 0
-0.0337114460 -0.0250696920 -1 0
-0.0311633840 -0.0243376690 -1 0
-0.0281065550 -0.0247810150 0 0
-0.0248260900 -0.0263408400 0 0
-0.0216277200 -0.0288491960 0 0
-0.0188096380 -0.0320498440 0 -1
-0.0166340230 -0.0356266580 0 -1
-0.0153004130 -0.0392355100 0 -1
-0.0149247710 -0.0425362680 0 -1
-0.0155269360 -0.0452222720 0 -1
-0.0170279790 -0.0470457700 0 -1
-0.0192583570 -0.0478388820 0 -1
-0.0219762990 -0.0475296670 0 -1
-0.0248942910 -0.0461517570 0 -1
-0.0277106670 -0.0438450120 0 -1
-0.0301423140 -0.0408450470 -1 -1
-0.0319536470 -0.0374611000 -1 -1
-0.0329780440 -0.0340439810 -1 -1
-0.0331303140 -0.0309485140 -1 -1
-0.0324108280 -0.0284964800 -1 0
-0.0309025510 -0.0269449940 -1 0
-0.0287619820 -0.0264622220 0 0
-0.0262046840 -0.0271108850 0 0
-0.0234864530 -0.0288412180 0 0
-0.0208815180 -0.0314953140 0 -1
-0.0186582750 -0.0348224520 0 -1
-0.0170529410 -0.0385035350 0 -1
-0.0162439070 -0.0421825250 0 -1
-0.0163314090 -0.0455016740 0 -1
-0.0173259590 -0.0481368490 0 -1
-0.0191465730 -0.0498299260 0 -1
-0.0216284970 -0.0504152880 0 -1
-0.0245389870 -0.0498371140 0 -1
-0.0275992020 -0.0481550010 0 -1
-0.0305107180 -0.0455373970 -1 -1
-0.0329851030 -0.0422441860 -1 -1
-0.0347737260 -0.0386009120 -1 -1
-0.0356941210 -0.0349668560 -1 -1
-0.0356490010 -0.0316990380 -1 -1
-0.0346355970 -0.0291157280 -1 0
-0.0327456210 -0.0274646650 -1 0
-0.0301567820 -0.0269003200 -1 0
-0.0271161730 -0.0274720920 0 0
-0.0239163650 -0.0291227470 0 0
-0.0208662900 -0.0316951670 0 -1
-0.0182601420 -0.0349463010 0 -1
-0.0163481880 -0.0385685600 0 -1
-0.0153128270 -0.0422179950 0 -1
-0.0152519950 -0.0455466090 0 -1
-0.0161708380 -0.0482354010 0 -1
-0.0179818990 -0.0500251860 0 -1
-0.0205139050 -0.0507423850 0 -1
-0.0235285930 -0.0503170380 0 -1
-0.0267434950 -0.0487908620 0 -1
-0.0298578690 -0.0463141970 0 -1
-0.0325798560 -0.0431316990 -1 -1
-0.0346536540 -0.0395580550 -1 -1
-0.0358842810 -0.0359461540 -1 -1
-0.0361565270 -0.0326510570 -1 -1
-0.0354463200 -0.0299939380 -1 0
-0.0338245820 -0.0282302950 -1 0
-0.0314530860 -0.0275253500 -1 0
-0.0285707830 -0.0279381860 0 0
-0.0254702800 -0.0294160340 0 0
-0.0224672390 -0.0317999630 0 -1
-0.0198674350 -0.0348418250 0 -1
-0.0179358090 -0.0382301660 0 -1
-0.0168701340 -0.0416216400 0 -1
-0.0167808910 -0.0446747650 0 -1
-0.0176794810 -0.0470833380 0 -1
-0.0194772780 -0.0486063300 0 -1
-0.0219959740 -0.0490908040 0 -1
-0.0249866290 -0.0484856190 0 -1
-0.0281543390 -0.0468454420 0 -1
-0.0311868630 -0.0443254760 -1 -1
-0.0337857290 -0.0411675580 -1 -1
-0.0356965410 -0.0376783430 -1 -1
-0.0367339260 -0.0342007010 -1 -1
-0.0367978700 -0.0310807280 -1 -1
-0.0358806470 -0.0286334520 -1 0
-0.0340652840 -0.0271103650 -1 0
-0.0315173660 -0.0266725950 -1 0
-0.0284712500 -0.0273738070 0 0
-0.0252104240 -0.0291551880 0 0
-0.0220422560 -0.0318522700 0 -1
-0.0192692960 -0.0352118040 0 -1
-0.0171596970 -0.0389165110 0 -1
-0.0159190930 -0.0426156710 0 -1
-0.0156669320 -0.0459591630 0 -1
-0.0164207340 -0.0486313880 0 -1
-0.0180915380 -0.0503812420 0 -1
-0.0204923630 -0.0510456250 0 -1
-0.0233589100 -0.0505646100 0 -1
-0.0263794590 -0.0489866670 0 -1
-0.0292296920 -0.0464638960 0 -1
-0.0316072980 -0.0432389860 -1 -1
-0.0332617000 -0.0396250340 -1 -1
-0.0340166240 -0.0359777450 -1 -1
-0.0337851820 -0.0326607170 -1 -1
-0.0325773260 -0.0300077890 -1 -1
-0.0304990760 -0.0282880250 -1 0
-0.0277428830 -0.0276777020 0 0
-0.0245693800 -0.0282421040 0 0
-0.0212818950 -0.0299286270 0 0
-0.0181961430 -0.0325719110 0 -1
-0.0156086540 -0.0359108600 0 -1
-0.0137678140 -0.0396158370 0 -1
-0.0128503860 -0.0433222980 0 -1
-0.0129451040 -0.0466667470 0 -1
-0.0140441200 -0.0493217290 0 -1
-0.0160427290 -0.0510271960 0 -1
-0.0187480760 -0.0516156070 0 -1
-0.0218973340 -0.0510284900 0 -1
-0.0251838350 -0.0493223370 0 -1
-0.0282878680 -0.0466622030 0 -1
-0.0309087020 -0.0433034670 -1 -1
-0.0327948180 -0.0395649460 -1 -1
-0.0337692640 -0.0357972170 -1 -1
-0.0337473040 -0.0323490880 -1 -1
-0.0327448810 -0.0295349380 -1 0
-0.0308771490 -0.0276059480 -1 0
-0.0283461310 -0.0267278090 0 0
-0.0254178800 -0.0269663810 0 0
-0.0223925730 -0.0282819610 0 0
-0.0195725010 -0.0305327350 0 -1
-0.0172318200 -0.0334874400 0 -1
-0.0155913120 -0.0368461840 0 -1
-0.0148011330 -0.0402677730 0 -1
-0.0149319240 -0.0434020170 0 -1
-0.0159722940 -0.0459245580 0 -1
-0.0178312120 -0.0475701220 0 -1
-0.0203453510 -0.0481599890 0 -1
-0.0232920110 -0.0476207240 0 -1
-0.0264074400 -0.0459922730 0 -1
-0.0294090810 -0.0434248640 0 -1
-0.0320203730 -0.0401653630 -1 -1
-0.0339969400 -0.0365339610 -1 -1
-0.0351518740 -0.0328923870 -1 -1
-0.0353765730 -0.0296064520 -1 0
-0.0346536770 -0.0270074200 -1 0
-0.0330601690 -0.0253574120 -1 0
-0.0307605640 -0.0248232590 -1 0
-0.0279911360 -0.0254611150 0 0
-0.0250367500 -0.0272120830 0 0
-0.0222031880 -0.0299082320 0 0
-0.0197876820 -0.0332886240 0 -1
-0.0180490920 -0.0370248130 0 -1
-0.0171799840 -0.0407537020 0 -1
-0.0172846710 -0.0441135880 0 -1
-0.0183670880 -0.0467788750 0 -1
-0.0203305730 -0.0484904300 0 -1
-0.0229893000 -0.0490802680 0 -1
-0.0260891970 -0.0484893830 0 -1
-0.0293349890 -0.0467760980 0 -1
-0.0324194510 -0.0441117340 -1 -1
-0.0350514440 -0.0407632400 -1 -1
-0.0369810860 -0.0370661320 -1 -1
-0.0380213440 -0.0333916290 -1 -1
-0.0380649720 -0.0301106150 -1 -1
-0.0370960520 -0.0275571420 -1 0
-0.0351956830 -0.0259948890 -1 0
-0.0325400540 -0.0255900240 -1 0
-0.0293878700 -0.0263935540 0 0
-0.0260557430 -0.0283352530 0 0
-0.0228843080 -0.0312300590 0 -1
-0.0202008070 -0.0347968100 0 -1
-0.0182834130 -0.0386876190 0 -1
-0.0173310720 -0.0425240880 0 -1
-0.0174423550 -0.0459354350 0 -1
-0.0186062900 -0.0485942920 0 -1
-0.0207056720 -0.0502471670 0 -1
-0.0235309810 -0.0507374260 0 -1
-0.0268033650 -0.0500194280 0 -1
-0.0302051240 -0.0481631620 -1 -1
-0.0334137380 -0.0453488160 -1 -1
-0.0361344310 -0.0418506280 -1 -1
-0.0381277750 -0.0380104900 -1 -1
-0.0392301390 -0.0342039420 -1 -1
-0.0393661480 -0.0308025700 -1 -1
-0.0385535000 -0.0281371040 -1 0
-0.0369000590 -0.0264650410 -1 0
-0.0345923780 -0.0259458940 -1 0
-0.0318761540 -0.0266260210 -1 0
-0.0290316340 -0.0284341460 0 0
-0.0263472850 -0.0311885330 0 -1
-0.0240933380 -0.0346159280 0 -1
-0.0224962220 -0.0383802450 0 -1
-0.0217159390 -0.0421170470 0 -1
-0.0218289310 -0.0454691840 0 -1
-0.0228192290 -0.0481197600 0 -1
-0.0245800420 -0.0498202020 0 -1
-0.0269259760 -0.0504125800 0 -1
-0.0296139070 -0.0498455710 0 -1
-0.0323691820 -0.0481824770 -1 -1
-0.0349126650 -0.0455985440 -1 -1
-0.0369852300 -0.0423654710 -1 -1
-0.0383694360 -0.0388239950 -1 -1
-0.0389092930 -0.0353484980 -1 -1
-0.0385265690 -0.0323085750 -1 -1
-0.0372303430 -0.0300317350 -1 -1
-0.0351184060 -0.0287705610 -1 0
-0.0323709580 -0.0286774250 -1 0
-0.0292364300 -0.0297894020 0 0
-0.0260091310 -0.0320249660 0 -1
-0.0230003300 -0.0351928210 0 -1
-0.0205060240 -0.0390115180 0 -1
-0.0187755300 -0.0431370850 0 -1
-0.0179851570 -0.0471956340 0 -1
-0.0182197740 -0.0508185430 0 -1
-0.0194636600 -0.0536778370 0 -1
-0.0216021210 -0.0555185140 0 -1
-0.0244343080 -0.0561839060 0 -1
-0.0276947980 -0.0556304560 0 -1
-0.0310798450 -0.0539299020 -1 -1
-0.0342751060 -0.0512594860 -1 -1
-0.0369836250 -0.0478828980 -1 -1
-0.0389535860 -0.0441251060 -1 -1
-0.0400035480 -0.0403432440 -1 -1
-0.0400413240 -0.0368948710 -1 -1
-0.0390733370 -0.0341050900 -1 -1
-0.0372031660 -0.0322348010 -1 -1
-0.0346201230 -0.0314535840 -1 -1
-0.0315803030 -0.0318216030 -1 -1
-0.0283823070 -0.0332840380 0 -1
-0.0253392620 -0.0356782770 0 -1
-0.0227495520 -0.0387514110 0 -1
-0.0208682450 -0.0421858350 0 -1
-0.0198805390 -0.0456314160 0 -1
-0.0198804260 -0.0487411130 0 -1
-0.0208590980 -0.0512050850 0 -1
-0.0227059070 -0.0527793530 0 -1
-0.0252217350 -0.0533072900 0 -1
-0.0281420830 -0.0527334120 0 -1
-0.0311654940 -0.0511089160 -1 -1
-0.0339833470 -0.0485882670 -1 -1
-0.0363088350 -0.0454166060 -1 -1
-0.0379034980 -0.0419085680 -1 -1
-0.0385992410 -0.0384190670 -1 -1
-0.0383140790 -0.0353072170 -1 -1
-0.0370604820 -0.0328971840 -1 -1
-0.0349455310 -0.0314421550 -1 -1
-0.0321622180 -0.0310972320 -1 -1
-0.0289715150 -0.0319041170 0 -1
-0.0256763720 -0.0337872870 0 -1
-0.0225905940 -0.0365606300 0 -1
-0.0200059940 -0.0399448810 0 -1
-0.0181616690 -0.0435963230 0 -1
-0.0172202950 -0.0471441870 0 -1
-0.0172551550 -0.0502312990 0 -1
-0.0182473460 -0.0525520630 0 -1
-0.0200900860 -0.0538828830 0 -1
-0.0225991140 -0.0541020240 0 -1
-0.0255302670 -0.0531982720 0 -1
-0.0286030190 -0.0512692970 0 -1
-0.0315260520 -0.0485109640 -1 -1
-0.0340225180 -0.0451988980 -1 -1
-0.0358547210 -0.0416632940 -1 -1
-0.0368463800 -0.0382580490 -1 -1
-0.0368995300 -0.0353267190 -1 -1
-0.0360047030 -0.0331695130 -1 -1
-0.0342439910 -0.0320152750 -1 -1
-0.0317859790 -0.0320001100 -1 -1
-0.0288708210 -0.0331532940 0 -1
-0.0257852410 -0.0353919250 0 -1
-0.0228320700 -0.0385261330 0 -1
-0.0203010100 -0.0422752370 0 -1
-0.0184430190 -0.0462934850 0 -1
-0.0174472370 -0.0502032580 0 -1
-0.0174214560 -0.0536327660 0 -1
-0.0183795850 -0.0562540280 0 -1
-0.0202383740 -0.0578164910 0 -1
-0.0228235120 -0.0581724150 0 -1
-0.0258847620 -0.0572912660 0 -1
-0.0291195410 -0.0552616010 0 -1
-0.0322032980 -0.0522806340 -1 -1
-0.0348235990 -0.0486335950 -1 -1
-0.0367135910 -0.0446657850 -1 -1
-0.0376803030 -0.0407499100 -1 -1
-0.0376245980 -0.0372515690 -1 -1
-0.0365508740 -0.0344958770 -1 -1
-0.0345659450 -0.0327371410 -1 -1
-0.0318680450 -0.0321334200 -1 -1
-0.0287270660 -0.0327295970 0 -1
-0.0254565330 -0.0344525060 0 -1
-0.0223799550 -0.0371188140 0 -1
-0.0197972550 -0.0404541770 0 -1
-0.0179566110 -0.0441217520 0 -1
-0.0170336020 -0.0477571040 0 -1
-0.0171168620 -0.0510048630 0 -1
-0.0182000440 -0.0535525060 0 -1
-0.0201822950 -0.0551586810 0 -1
-0.0228788050 -0.0556749980 0 -1
-0.0260396840 -0.0550597650 0 -1
-0.0293735250 -0.0533814210 0 -1
-0.0325729770 -0.0508107610 -1 -1
-0.0353416840 -0.0476034800 -1 -1
-0.0374222970 -0.0440753520 -1 -1
-0.0386228000 -0.0405723960 -1 -1
-0.0388365550 -0.0374390100 -1 -1
-0.0380535590 -0.0349866540 -1 -1
-0.0363625570 -0.0334644670 -1 -1
-0.0339428480 -0.0330336140 -1 -1
-0.0310449120 -0.0337492690 -1 -1
-0.0279626960 -0.0355541560 0 -1
-0.0250026340 -0.0382839810 0 -1
-0.0224539240 -0.0416825250 0 -1
-0.0205626240 -0.0454249090 0 -1
-0.0195101530 -0.0491483040 0 -1
-0.0193967750 -0.0524879460 0 -1
-0.0202315560 -0.0551146960 0 -1
-0.0219301730 -0.0567695670 0 -1
-0.0243217060 -0.0572910280 0 -1
-0.0271645870 -0.0566321570 0 -1
-0.0301695870 -0.0548660100 -1 -1
-0.0330272260 -0.0521787350 -1 -1
-0.0354379620 -0.0488512890 -1 -1
-0.0371430820 -0.0452311730 -1 -1
-0.0379528620 -0.0416958970 -1 -1
-0.0377681430 -0.0386118560 -1 -1
-0.0365924710 -0.0362949260 -1 -1
-0.0345334510 -0.0349789840 -1 -1
-0.0317926480 -0.0347956730 -1 -1
-0.0286441550 -0.0357654220 0 -1
-0.0254041520 -0.0377979870 0 -1
-0.0223961960 -0.0407009260 0 -1
-0.0199175110 -0.0441953800 0 -1
-0.0182100350 -0.0479390890 0 -1
-0.0174378810 -0.0515571020 0 -1
-0.0176720950 -0.0546793150 0 -1
-0.0188842270 -0.0569805380 0 -1
-0.0209502750 -0.0582163110 0 -1
-0.0236646750 -0.0582487920 0 -1
-0.0267619300 -0.0570599430 0 -1
-0.0299428170 -0.0547516530 0 -1
-0.0329024700 -0.0515341380 -1 -1
-0.0353580590 -0.0477049150 -1 -1
-0.0370742910 -0.0436205400 -1 -1
-0.0378855990 -0.0396629750 -1 -1
-0.0377133000 -0.0362035180 -1 -1
-0.0365749160 -0.0335681270 -1 -1
-0.0345833940 -0.0320069670 -1 -1
-0.0319358780 -0.0316700530 -1 -1
-0.0288934350 -0.0325911260 0 -1
-0.0257542390 -0.0346819700 0 -1
-0.0228234520 -0.0377385500 0 -1
-0.0203831590 -0.0414587400 0 -1
-0.0186648810 -0.0454706780 0 -1
-0.0178267560 -0.0493706600 0 -1
-0.0179383150 -0.0527678540 0 -1
-0.0189756910 -0.0553298530 0 -1
-0.0208276790 -0.0568206710 0 -1
-0.0233097180 -0.0571238490 0 -1
-0.0261818650 -0.0562483200 0 -1
-0.0291688120 -0.0543201730 0 -1
-0.0319823750 -0.0515647560 -1 -1
-0.0343470580 -0.0482813970 -1 -1
-0.0360271770 -0.0448118060 -1 -1
-0.0368516900 -0.0415046460 -1 -1
-0.0367327450 -0.0386813080 -1 -1
-0.0356753370 -0.0366082590 -1 -1
-0.0337775610 -0.0354775480 -1 -1
-0.0312220220 -0.0353931050 -1 -1
-0.0282582790 -0.0363612540 0 -1
-0.0251770180 -0.0382875560 0 -1
-0.0222799570 -0.0409835570 0 -1
-0.0198504560 -0.0441847370 0 -1
-0.0181269940 -0.0475776980 0 -1
-0.0172800370 -0.0508328590 0 -1
-0.0173942050 -0.0536383820 0 -1
-0.0184584970 -0.0557308840 0 -1
-0.0203657950 -0.0569190940 0 -1
-0.0229214960 -0.0570980990 0 -1
-0.0258616010 -0.0562540680 0 -1
-0.0288800920 -0.0544615270 0 -1
-0.0316627940 -0.0518755570 -1 -1
-0.0339228360 -0.0487194420 -1 -1
-0.0354320980 -0.0452669290 -1 -1
-0.0360435110 -0.0418194790 -1 -1
-0.0357018290 -0.0386806720 -1 -1
-0.0344445130 -0.0361299600 -1 -1
-0.0323956370 -0.0343973120 -1 -1
-0.0297535410 -0.0336402420 0 -1
-0.0267718370 -0.0339254240 0 -1
-0.0237347990 -0.0352179670 0 -1
-0.0209300370 -0.0373810610 0 -1
-0.0186221870 -0.0401868580 0 -1
-0.0170307080 -0.0433379260 0 -1
-0.0163124610 -0.0464978060 0 -1
-0.0165478140 -0.0493275460 0 -1
-0.0177301160 -0.0515231450 0 -1
-0.0197615750 -0.0528487170 0 -1
-0.0224594470 -0.0531613080 0 -1
-0.0255735700 -0.0524245100 0 -1
-0.0288123800 -0.0507100740 0 -1
-0.0318722870 -0.0481894230 -1 -1
-0.0344663070 -0.0451172470 -1 -1
-0.0363503690 -0.0418074340 -1 -1
-0.0373464770 -0.0386014970 -1 -1
-0.0373601810 -0.0358325490 -1 -1
-0.0363891800 -0.0337897390 -1 -1
-0.0345229360 -0.0326877290 -1 -1
-0.0319358090 -0.0326447310 -1 -1
-0.0288739190 -0.0336713010 0 -1
-0.0256332240 -0.0356707950 0 -1
-0.0225290720 -0.0384510310 0 -1
-0.0198620370 -0.0417450140 0 -1
-0.0178855090 -0.0452376000 0 -1
-0.0167790340 -0.0485952490 0 -1
-0.0166305880 -0.0514970410 0 -1
-0.0174293490 -0.0536650740 0 -1
-0.0190684650 -0.0548914420 0 -1
-0.0213569000 -0.0550589410 0 -1
-0.0240398290 -0.0541534130 0 -1
-0.0268259170 -0.0522659680 0 -1
-0.0294180430 -0.0495839910 0 -1
-0.0315432480 -0.0463717800 -1 -1
-0.0329783230 -0.0429437730 -1 -1
-0.0335690280 -0.0396340250 -1 -1
-0.0332423070 -0.0367651390 -1 -1
-0.0320111250 -0.0346189940 -1 -1
-0.0299720520 -0.0334108350 0 -1
-0.0272964190 -0.0332679420 0 -1
-0.0242155650 -0.0342152310 0 -1
-0.0210007140 -0.0361711960 0 -1
-0.0179391920 -0.0389556700 0 -1
-0.0153089900 -0.0423075200 0 -1
-0.0133526730 -0.0459092610 0 -1
-0.0122519000 -0.0494164920 0 -1
-0.0121060490 -0.0524905380 0 -1
-0.0129197750 -0.0548317120 0 -1
-0.0146023090 -0.0562096660 0 -1
-0.0169779270 -0.0564874130 0 -1
-0.0198048770 -0.0556360770 0 -1
-0.0227992170 -0.0537385450 0 -1
-0.0256605060 -0.0509820790 0 -1
-0.0280988620 -0.0476413780 0 -1
-0.0298640220 -0.0440531620 0 -1
-0.0307736230 -0.0405832970 -1 -1
-0.0307347420 -0.0375895440 -1 -1
-0.0297544570 -0.0353849370 0 -1
-0.0279388440 -0.0342059670 0 -1
-0.0254814390 -0.0341881550 0 -1
-0.0226425630 -0.0353511460 0 -1
-0.0197217380 -0.0375951540 0 -1
-0.0170266230 -0.0407095370 0 -1
-0.0148422500 -0.0443932610 0 -1
-0.0134034060 -0.0482861080 0 -1
-0.0128720510 -0.0520074410 0 -1
-0.0133218300 -0.0551969740 0 -1
-0.0147315300 -0.0575514140 0 -1
-0.0169873980 -0.0588525450 0 -1
-0.0198932220 -0.0589851610 0 -1
-0.0231879600 -0.0579449560 0 -1
-0.0265703670 -0.0558366110 0 -1
-0.0297283800 -0.0528627690 0 -1
-0.0323702490 -0.0493054490 -1 -1
-0.0342543460 -0.0455012700 -1 -1
-0.0352141080 -0.0418115250 -1 -1
-0.0351744490 -0.0385888510 -1 -1
-0.0341577270 -0.0361430080 -1 -1
-0.0322804140 -0.0347092120 -1 -1
-0.0297422670 -0.0344239410 0 -1
-0.0268077790 -0.0353116910 0 -1
-0.0237795680 -0.0372828450 0 -1
-0.0209668670 -0.0401421160 0 -1
-0.0186541800 -0.0436078030 0 -1
-0.0170729730 -0.0473405220 0 -1
-0.0163777710 -0.0509776130 0 -1
-0.0166297670 -0.0541684920 0 -1
-0.0177915140 -0.0566071540 0 -1
-0.0197333170 -0.0580598680 0 -1
-0.0222492010 -0.0583871730 0 -1
-0.0250797400 -0.0575586580 0 -1
-0.0279388040 -0.0556579510 0 -1
-0.0305409430 -0.0528759770 -1 -1
-0.0326271980 -0.0494925430 -1 -1
-0.0339888520 -0.0458479950 -1 -1
-0.0344881610 -0.0423079290 -1 -1
-0.0340731090 -0.0392252910 -1 -1
-0.0327826960 -0.0369048770 -1 -1
-0.0307416520 -0.0355741870 -1 -1
-0.0281466400 -0.0353626650 0 -1
-0.0252467920 -0.0362902870 0 -1
-0.0223204020 -0.0382661540 0 -1
-0.0196496840 -0.0410972200 0 -1
-0.0174955000 -0.0445064250 0 -1
-0.0160733570 -0.0481589670 0 -1
-0.0155324170 -0.0516950630 0 -1
-0.0159400990 -0.0547662350 0 -1
-0.0172739670 -0.0570707710 0 -1
-0.0194217870 -0.0583842190 0 -1
-0.0221908120 -0.0585814910 0 -1
-0.0253264310 -0.0576478830 0 -1
-0.0285379890 -0.0556783750 0 -1
-0.0315283770 -0.0528669410 -1 -1
-0.0340240490 -0.0494879890 -1 -1
-0.0358019910 -0.0458710830 -1 -1
-0.0367102800 -0.0423700040 -1 -1
-0.0366803750 -0.0393287220 -1 -1
-0.0357315220 -0.0370475380 -1 -1
-0.0339689360 -0.0357524700 -1 -1
-0.0315760330 -0.0355715220 -1 -1
-0.0287989360 -0.0365218150 0 -1
-0.0259227890 -0.0385093680 0 -1
-0.0232434490 -0.0413398910 0 -1
-0.0210390680 -0.0447376240 0 -1
-0.0195434520 -0.0483705060 0 -1
-0.0189224210 -0.0518809980 0 -1
-0.0192562030 -0.0549205750 0 -1
-0.0205309060 -0.0571841240 0 -1
-0.0226403770 -0.0584403970 0 -1
-0.0253981480 -0.0585558060 0 -1
-0.0285572220 -0.0575097980 0 -1
-0.0318340640 -0.0554000320 -1 -1
-0.0349336600 -0.0524352630 -1 -1
-0.0375745580 -0.0489150030 -1 -1
-0.0395142700 -0.0451982170 -1 -1
-0.0405745760 -0.0416659150 -1 -1
-0.0406630080 -0.0386821690 -1 -1
-0.0397849450 -0.0365569440 -1 -1
-0.0380435210 -0.0355139730 -1 -1
-0.0356284790 -0.0356670130 -1 -1
-0.0327954650 -0.0370073720 -1 -1
-0.0298373700 -0.0394047870 0 -1
-0.0270521490 -0.0426220630 0 -1
-0.0247122810 -0.0463412540 0 -1
-0.0230382340 -0.0501971440 0 -1
-0.0221767520 -0.0538136900 0 -1
-0.0221863960 -0.0568400470 0 -1
-0.0230334770 -0.0589832180 0 -1
-0.0245989500 -0.0600341680 0 -1
-0.0266937830 -0.0598849250 0 -1
-0.0290800100 -0.0585361350 0 -1
-0.0314953920 -0.0560963320 -1 -1
-0.0336791520 -0.0527741690 -1 -1
-0.0353958700 -0.0488631110 -1 -1
-0.0364558300 -0.0447168870 -1 -1
-0.0367314010 -0.0407160420 -1 -1
-0.0361693160 -0.0372295920 -1 -1
-0.0347982390 -0.0345776320 -1 -1
-0.0327300750 -0.0329999550 -1 -1
-0.0301524400 -0.0326339200 -1 -1
-0.0273105060 -0.0335028680 0 -1
-0.0244805650 -0.0355146640 0 -1
-0.0219410800 -0.0384695110 0 -1
-0.0199455570 -0.0420772130 0 -1
-0.0186976870 -0.0459842040 0 -1
-0.0183292740 -0.0498082270 0 -1
-0.0188846360 -0.0531760360 0 -1
-0.0203151680 -0.0557591720 0 -1
-0.0224845250 -0.0573048210 0 -1
-0.0251832600 -0.0576601610 0 -1
-0.0281514400 -0.0567882220 0 -1
-0.0311053700 -0.0547727390 -1 -1
-0.0337632460 -0.0518109640 -1 -1
-0.0358679170 -0.0481951830 -1 -1
-0.0372088800 -0.0442843500 -1 -1
-0.0376438180 -0.0404676940 -1 -1
-0.0371153390 -0.0371240170 -1 -1
-0.0356585360 -0.0345821280 -1 -1
-0.0333989550 -0.0330878360 -1 -1
-0.0305418190 -0.0327809260 -1 -1
-0.0273523870 -0.0336832210 0 -1
-0.0241286010 -0.0356978160 0 -1
-0.0211697700 -0.0386193900 0 -1
-0.0187457050 -0.0421549140 0 -1
-0.0170701530 -0.0459527850 0 -1
-0.0162814960 -0.0496376380 0 -1
-0.0164316930 -0.0528478340 0 -1
-0.0174824960 -0.0552717660 0 -1
-0.0193084050 -0.0566784440 0 -1
-0.0217070790 -0.0569390370 0 -1
-0.0244177480 -0.0560382320 0 -1
-0.0271463110 -0.0540753360 0 -1
-0.0295940490 -0.0512549040 0 -1
-0.0314872190 -0.0478666400 -1 -1
-0.0326059530 -0.0442555730 -1 -1
-0.0328095180 -0.0407860640 -1 -1
-0.0320526470 -0.0378047600 -1 -1
-0.0303892760 -0.0356065500 -1 -1
-0.0279648190 -0.0344058470 0 -1
-0.0250003520 -0.0343157430 0 -1
-0.0217710000 -0.0353378660 0 -1
-0.0185805520 -0.0373639480 0 -1
-0.0157346090 -0.0401876930 0 -1
-0.0135132500 -0.0435244940 0 -1
-0.0121433970 -0.0470374280 0 -1
-0.0117731000 -0.0503690790 0 -1
-0.0124530270 -0.0531772970 0 -1
-0.0141305630 -0.0551704210 0 -1
-0.0166579370 -0.0561373850 0 -1
-0.0198104280 -0.0559694880 0 -1
-0.0233091380 -0.0546714220 0 -1
-0.0268453510 -0.0523600340 0 -1
-0.0301065120 -0.0492517310 -1 -1
-0.0328043140 -0.0456415640 -1 -1
-0.0347029790 -0.0418764420 -1 -1
-0.0356430820 -0.0383232060 -1 -1
-0.0355566260 -0.0353328910 -1 -1
-0.0344723550 -0.0332046880 -1 -1
-0.0325130790 -0.0321541940 -1 -1
-0.0298859290 -0.0322903430 0 -1
-0.0268636430 -0.0336040800 0 -1
-0.0237560280 -0.0359700930 0 -1
-0.0208757590 -0.0391613200 0 -1
-0.0185051710 -0.0428740990 0 -1
-0.0168687080 -0.0467596440 0 -1
-0.0161132620 -0.0504572790 0 -1
-0.0162969900 -0.0536267570 0 -1
-0.0173858150 -0.0559783360 0 -1
-0.0192569480 -0.0572985820 0 -1
-0.0217095490 -0.0574695740 0 -1
-0.0244822590 -0.0564797860 0 -1
-0.0272768090 -0.0544253750 0 -1
-0.0297867380 -0.0515015510 0 -1
-0.0317290890 -0.0479854520 -1 -1
-0.0328751130 -0.0442122970 -1 -1
-0.0330753250 -0.0405458080 -1 -1
-0.0322756790 -0.0373440030 -1 -1
-0.0305236700 -0.0349228430 -1 -1
-0.0279642700 -0.0335219020 0 -1
-0.0248257120 -0.0332774190 0 -1
-0.0213958360 -0.0342071500 0 -1
-0.0179920430 -0.0362090100 0 -1
-0.0149293370 -0.0390730600 0 -1
-0.0124896260 -0.0425043900 0 -1
-0.0108943310 -0.0461535940 0 -1
-0.0102831390 -0.0496516880 0 -1
-0.0107017000 -0.0526460900 0 -1
-0.0120991410 -0.0548342330 0 -1
-0.0143344180 -0.0559924090 0 -1
-0.0171906270 -0.0559979720 0 -1
-0.0203966010 -0.0548420960 0 -1
-0.0236534690 -0.0526303610 0 -1
-0.0266624270 -0.0495710280 0 -1
-0.0291511140 -0.0459535090 0 -1
-0.0308976930 -0.0421200660 -1 -1
-0.0317517890 -0.0384335460 -1 -1
-0.0316500370 -0.0352434940 -1 -1
-0.0306236430 -0.0328527370 -1 -1
-0.0287967490 -0.0314872120 0 -1
-0.0263752240 -0.0312727920 0 -1
-0.0236254270 -0.0322226020 0 -1
-0.0208446280 -0.0342365650 0 -1
-0.0183282920 -0.0371125410 0 -1
-0.0163398520 -0.0405666300 0 -1
-0.0150863920 -0.0442600180 0 -1
-0.0147014520 -0.0478306780 0 -1
-0.0152345370 -0.0509281260 0 -1
-0.0166464670 -0.0532479830 0 -1
-0.0188116320 -0.0545623860 0 -1
-0.0215292150 -0.0547429090 0 -1
-0.0245431480 -0.0537738490 0 -1
-0.0275676090 -0.0517548310 0 -1
-0.0303142820 -0.0488920070 -1 -1
-0.0325193890 -0.0454775680 -1 -1
-0.0339695780 -0.0418592430 -1 -1
-0.0345239820 -0.0384038500 -1 -1
-0.0341285200 -0.0354598160 -1 -1
-0.0328204710 -0.0333229710 -1 -1
-0.0307243570 -0.0322084800 -1 -1
-0.0280408270 -0.0322305230 0 -1
-0.0250288590 -0.0333910420 0 -1
-0.0219812620 -0.0355794170 0 -1
-0.0191950240 -0.0385840780 0 -1
-0.0169399090 -0.0421143140 0 -1
-0.0154296800 -0.0458284660 0 -1
-0.0148005450 -0.0493654240 0 -1
-0.0150993100 -0.0523780800 0 -1
-0.0162811260 -0.0545672140 0 -1
-0.0182158800 -0.0557124420 0 -1
-0.0207022090 -0.0556955800 0 -1
-0.0234873720 -0.0545128830 0 -1
-0.0262908640 -0.0522751080 0 -1
-0.0288303140 -0.0491962560 0 -1
-0.0308487730 -0.0455722120 -1 -1
-0.0321408140 -0.0417507570 -1 -1
-0.0325729250 -0.0380960500 -1 -1
-0.0320952020 -0.0349524090 -1 -1
-0.0307447020 -0.0326115370 -1 -1
-0.0286416720 -0.0312855300 0 -1
-0.0259785340 -0.0310875410 0 -1
-0.0230013980 -0.0320223040 0 -1
-0.0199861790 -0.0339876420 0 -1
-0.0172127900 -0.0367861030 0 -1
-0.0149393600 -0.0401448030 0 -1
-0.0133778120 -0.0437411890 0 -1
-0.0126734220 -0.0472322750 0 -1
-0.0128908900 -0.0502854290 0 -1
-0.0140076310 -0.0526091220 0 -1
-0.0159143540 -0.0539809990 0 -1
-0.0184236180 -0.0542698520 0 -1
-0.0212866200 -0.0534489700 0 -1
-0.0242163860 -0.0515998670 0 -1
-0.0269150860 -0.0489061340 0 -1
-0.0291041270 -0.0456374190 0 -1
-0.0305545860 -0.0421241130 -1 -1
-0.0311128710 -0.0387243640 -1 -1
-0.0307170920 -0.0357868050 -1 -1
-0.0294029380 -0.0336139570 0 -1
-0.0272997170 -0.0324310830 0 -1
-0.0246170920 -0.0323637510 0 -1
-0.0216233110 -0.0334261540 0 -1
-0.0186165330 -0.0355209520 0 -1
-0.0158926490 -0.0384497710 0 -1
-0.0137146870 -0.0419320440 0 -1
-0.0122881670 -0.0456301220 0 -1
-0.0117439520 -0.0491799790 0 -1
-0.0121282790 -0.0522265420 0 -1
-0.0133996110 -0.0544603590 0 -1
-0.0154327770 -0.0556509160 0 -1
-0.0180310310 -0.0556723550 0 -1
-0.0209450880 -0.0545179560 0 -1
-0.0238963740 -0.0523010690 0 -1
-0.0266014570 -0.0492424590 0 -1
-0.0287962380 -0.0456464440 0 -1
-0.0302599250 -0.0418695000 -1 -1
-0.0308378610 -0.0382852890 -1 -1
-0.0304594590 -0.0352491260 -1 -1
-0.0291476140 -0.0330638320 0 -1
-0.0270188410 -0.0319494530 0 -1
-0.0242740010 -0.0320207580 0 -1
-0.0211787500 -0.0332758750 0 -1
-0.0180351060 -0.0355973880 0 -1
-0.0151488710 -0.0387649670 0 -1
-0.0127978840 -0.0424768540 0 -1
-0.0112046380 -0.0463773200 0 -1
-0.0105155290 -0.0500887250 0 -1
-0.0107875150 -0.0532473880 0 -1
-0.0119825250 -0.0555404760 0 -1
-0.0139718000 -0.0567389540 0 -1
-0.0165516000 -0.0567218340 0 -1
-0.0194667740 -0.0554886190 0 -1
-0.0224359980 -0.0531588110 0 -1
-0.0251750960 -0.0499593310 0 -1
-0.0274191410 -0.0462019700 0 -1
-0.0289455040 -0.0422531160 0 -1
-0.0295971510 -0.0384975780 0 -1
-0.0293014950 -0.0352992230 0 -1
-0.0280799790 -0.0329633730 0 -1
-0.0260467570 -0.0317064560 0 -1
-0.0233972640 -0.0316365060 0 -1
-0.0203882170 -0.0327451410 0 -1
-0.0173116940 -0.0349098020 0 -1
-0.0144663720 -0.0379051710 0 -1
-0.0121277650 -0.0414235630 0 -1
-0.0105195400 -0.0451040890 0 -1
-0.0097905410 -0.0485689250 0 -1
-0.0100020500 -0.0514627990 0 -1
-0.0111253950 -0.0534904620 0 -1
-0.0130471980 -0.0544474180 0 -1
-0.0155801710 -0.0542401060 0 -1
-0.0184784990 -0.0528932460 0 -1
-0.0214579900 -0.0505442920 0 -1
-0.0242220130 -0.0474268460 0 -1
-0.0264921320 -0.0438458250 0 -1
-0.0280387900 -0.0401470080 0 -1
-0.0287065390 -0.0366831130 0 -1
-0.0284298030 -0.0337792880 0 -1
-0.0272372570 -0.0317023010 0 -1
-0.0252460630 -0.0306371990 0 -1
-0.0226491110 -0.0306723560 0 -1
-0.0196965260 -0.0317920280 0 -1
-0.0166712860 -0.0338765670 0 -1
-0.0138605250 -0.0367120100 0 -1
-0.0115258530 -0.0400096980 0 -1
-0.0098766950 -0.0434337340 0 -1
-0.0090506540 -0.0466324670 0 -1
-0.0091033120 -0.0492708070 0 -1
-0.0100066210 -0.0510615800 0 -1
-0.0116533020 -0.0517939830 0 -1
-0.0138662370 -0.0513560310 0 -1
-0.0164133050 -0.0497481970 0 -1
-0.0190275480 -0.0470863300 0 -1
-0.0214319030 -0.0435925690 0 -1
-0.0233671060 -0.0395742800 0 -1
-0.0246200750 -0.0353932670 0 -1
-0.0250488610 -0.0314295520 0 -1
-0.0245995270 -0.0280443980 0 0
-0.0233116490 -0.0255456740 0 0
-0.0213129530 -0.0241578170 0 0
-0.0188053590 -0.0239994010 0 0
-0.0160437360 -0.0250713340 0 0
-0.0133094240 -0.0272569150 0 0
-0.0108821610 -0.0303332830 0 -1
-0.0090128260 -0.0339931000 0 -1
-0.0078982170 -0.0378751180 0 -1
-0.0076607100 -0.0416010240 0 -1
-0.0083362330 -0.0448136830 0 -1
-0.0098714980 -0.0472114480 0 -1
-0.0121294560 -0.0485755570 0 -1
-0.0149024090 -0.0487898440 0 -1
-0.0179322790 -0.0478518720 0 -1
-0.0209358180 -0.0458739330 0 -1
-0.0236318030 -0.0430728180 0 -1
-0.0257680530 -0.0397485420 0 -1
-0.0271464710 -0.0362538950 0 -1
-0.0276435620 -0.0329582570 0 -1
-0.0272235400 -0.0302098100 0 -1
-0.0259422580 -0.0283002740 0 0
-0.0239419420 -0.0274362300 0 0
-0.0214373790 -0.0277201260 0 0
-0.0186943170 -0.0291417460 0 0
-0.0160022230 -0.0315793940 0 -1
-0.0136453620 -0.0348103770 0 -1
-0.0118761160 -0.0385309430 0 -1
-0.0108917150 -0.0423853780 0 -1
-0.0108143670 -0.0460023400 0 -1
-0.0116776390 -0.0490342800 0 -1
-0.0134227160 -0.0511941610 0 -1
-0.0159047910 -0.0522842120 0 -1
-0.0189074570 -0.0522138310 0 -1
-0.0221628810 -0.0510060600 0 -1
-0.0253759100 -0.0487931100 0 -1
-0.0282510660 -0.0458020280 0 -1
-0.0305211650 -0.0423318750 -1 -1
-0.0319748800 -0.0387240960 -1 -1
-0.0324795230 -0.0353288950 -1 -1
-0.0319953610 -0.0324719870 -1 -1
-0.0305793510 -0.0304255580 -1 -1
-0.0283788870 -0.0293848690 0 0
-0.0256168360 -0.0294509420 0 0
-0.0225681400 -0.0306207020 0 -1
-0.0195296410 -0.0327860820 0 -1
-0.0167881840 -0.0357423130 0 -1
-0.0145926660 -0.0392053500 0 -1
-0.0131323370 -0.0428383190 0 -1
-0.0125209090 -0.0462850010 0 -1
-0.0127871560 -0.0492062700 0 -1
-0.0138740940 -0.0513149090 0 -1
-0.0156469520 -0.0524050920 0 -1
-0.0179076450 -0.0523734590 0 -1
-0.0204138460 -0.0512291810 0 -1
-0.0229016480 -0.0490919900 0 -1
-0.0251102950 -0.0461794170 0 -1
-0.0268069240 -0.0427852160 0 -1
-0.0278090810 -0.0392506750 0 -1
-0.0280025670 -0.0359309860 0 -1
-0.0273520940 -0.0331597250 0 -1
-0.0259040210 -0.0312149940 0 -1
-0.0237825050 -0.0302910470 0 -1
-0.0211800260 -0.0304790030 0 -1
-0.0183413990 -0.0317587710 0 -1
-0.0155407920 -0.0340022160 0 -1
-0.0130541760 -0.0369864390 0 -1
-0.0111318260 -0.0404160040 0 -1
-0.0099739460 -0.0439522060 0 -1
-0.0097105350 -0.0472461470 0 -1
-0.0103875400 -0.0499721460 0 -1
-0.0119615600 -0.0518585470 0 -1
-0.0143031800 -0.0527136540 0 -1
-0.0172085920 -0.0524451270 0 -1
-0.0204197480 -0.0510712660 0 -1
-0.0236506300 -0.0487219450 0 -1
-0.0266144680 -0.0456274910 0 -1
-0.0290488990 -0.0420956090 0 -1
-0.0307394390 -0.0384787510 -1 -1
-0.0315406770 -0.0351366140 -1 -1
-0.0313922640 -0.0323996970 -1 -1
-0.0303272210 -0.0305382950 -1 -1
-0.0284711190 -0.0297382450 0 0
-0.0260308650 -0.0300838930 0 -1
-0.0232737940 -0.0315500480 0 -1
-0.0205005130 -0.0340045320 0 -1
-0.0180147050 -0.0372208380 0 -1
-0.0160914790 -0.0408993680 0 -1
-0.0149472060 -0.0446957490 0 -1
-0.0147158330 -0.0482538730 0 -1
-0.0154352110 -0.0512400720 0 -1
-0.0170442090 -0.0533745710 0 -1
-0.0193902400 -0.0544572590 0 -1
-0.0222461320 -0.0543858400 0 -1
-0.0253341150 -0.0531652530 0 -1
-0.0283543950 -0.0509078670 0 -1
-0.0310159470 -0.0478246470 -1 -1
-0.0330658280 -0.0442077400 -1 -1
-0.0343124130 -0.0404045880 -1 -1
-0.0346402310 -0.0367840460 -1 -1
-0.0340171760 -0.0336974070 -1 -1
-0.0324958880 -0.0314399060 -1 -1
-0.0302102190 -0.0302189960 -1 -1
-0.0273657970 -0.0301341370 0 -1
-0.0242229430 -0.0311698320 0 -1
-0.0210723780 -0.0332010170 0 -1
-0.0182073860 -0.0360086130 0 -1
-0.0158963240 -0.0393026350 0 -1
-0.0143574170 -0.0427504660 0 -1
-0.0137373650 -0.0460083280 0 -1
-0.0140963970 -0.0487536220 0 -1
-0.0154020030 -0.0507149530 0 -1
-0.0175318780 -0.0516971080 0 -1
-0.0202853850 -0.0515992430 0 -1
-0.0234024020 -0.0504248020 0 -1
-0.0265875080 -0.0482822960 0 -1
-0.0295368510 -0.0453770040 0 -1
-0.0319662110 -0.0419936390 -1 -1
-0.0336394690 -0.0384701560 -1 -1
-0.0343954760 -0.0351647090 -1 -1
-0.0341693670 -0.0324197190 -1 -1
-0.0330029930 -0.0305272710 -1 -1
-0.0310404440 -0.0296989680 -1 0
-0.0285097070 -0.0300428910 0 -1
-0.0256955520 -0.0315503960 0 -1
-0.0229082570 -0.0340949680 0 -1
-0.0204511740 -0.0374440160 0 -1
-0.0185898480 -0.0412825190 0 -1
-0.0175254570 -0.0452455500 0 -1
-0.0173753910 -0.0489558190 0 -1
-0.0181635650 -0.0520618670 0 -1
-0.0198211200 -0.0542724460 0 -1
-0.0221952390 -0.0553836200 0 -1
-0.0250632780 -0.0552966210 0 -1
-0.0281514690 -0.0540258370 0 -1
-0.0311580770 -0.0516971310 -1 -1
-0.0337797130 -0.0485369350 -1 -1
-0.0357394630 -0.0448520630 -1 -1
-0.0368159310 -0.0410007220 -1 -1
-0.0368702870 -0.0373574060 -1 -1
-0.0358655960 -0.0342759890 -1 -1
-0.0338737550 -0.0320548100 -1 -1
-0.0310685200 -0.0309064380 -1 -1
-0.0277051230 -0.0309350400 0 -1
-0.0240899250 -0.0321247480 0 -1
-0.0205467460 -0.0343414620 0 -1
-0.0173856730 -0.0373482460 0 -1
-0.0148763020 -0.0408319570 0 -1
-0.0132249290 -0.0444367430 0 -1
-0.0125559670 -0.0477995770 0 -1
-0.0128994780 -0.0505843120 0 -1
-0.0141869420 -0.0525124310 0 -1
-0.0162571310 -0.0533890010 0 -1
-0.0188726570 -0.0531217930 0 -1
-0.0217451480 -0.0517315130 0 -1
-0.0245649820 -0.0493513670 0 -1
-0.0270319130 -0.0462148750 0 -1
-0.0288842660 -0.0426326360 0 -1
-0.0299246930 -0.0389609630 0 -1
-0.0300397970 -0.0355664870 -1 -1
-0.0292110410 -0.0327906550 0 -1
-0.0275155530 -0.0309171110 0 -1
-0.0251166400 -0.0301442670 0 -1
-0.0222451680 -0.0305657040 0 -1
-0.0191748320 -0.0321611440 0 -1
-0.0161953760 -0.0347989210 0 -1
-0.0135866640 -0.0382487910 0 -1
-0.0115947350 -0.0422034970 0 -1
-0.0104103390 -0.0463071280 0 -1
-0.0101510910 -0.0501874580 0 -1
-0.0108492820 -0.0534898540 0 -1
-0.0124469950 -0.0559112090 0 -1
-0.0147990040 -0.0572314380 0 -1
-0.0176840440 -0.0573377780 0 -1
-0.0208247370 -0.0562369440 0 -1
-0.0239141800 -0.0540534700 0 -1
-0.0266460490 -0.0510158640 0 -1
-0.0287455760 -0.0474333120 0 -1
-0.0299981870 -0.0436653440 0 -1
-0.0302721850 -0.0400868560 -1 -1
-0.0295331890 -0.0370517140 0 -1
-0.0278489990 -0.0348586260 0 -1
-0.0253834670 -0.0337224100 0 -1
-0.0223795960 -0.0337531930 0 -1
-0.0191342890 -0.0349451440 0 -1
-0.0159676080 -0.0371757910 0 -1
-0.0131893860 -0.0402173890 0 -1
-0.0110667330 -0.0437604920 0 -1
-0.0097963800 -0.0474467090 0 -1
-0.0094856760 -0.0509057920 0 -1
-0.0101450140 -0.0537930200 0 -1
-0.0116913900 -0.0558234290 0 -1
-0.0139598900 -0.0567992400 0 -1
-0.0167199600 -0.0566278480 0 -1
-0.0196950800 -0.0553299910 0 -1
-0.0225862260 -0.0530384260 0 -1
-0.0250995120 -0.0499864740 0 -1
-0.0269754330 -0.0464860740 0 -1
-0.0280147850 -0.0428968390 0 -1
-0.0280978540 -0.0395895340 0 -1
-0.0271958300 -0.0369078960 0 -1
-0.0253746110 -0.0351325070 0 -1
-0.0227912200 -0.0344508220 0 -1
-0.0196818370 -0.0349379310 0 -1
-0.0163400110 -0.0365511990 0 -1
-0.0130864050 -0.0391383240 0 -1
-0.0102345740 -0.0424557270 0 -1
-0.0080575430 -0.0461944530 0 -1
-0.0067587650 -0.0500111420 0 -1
-0.0064510880 -0.0535603960 0 -1
-0.0071469300 -0.0565250240 0 -1
-0.0087606780 -0.0586428500 0 -1
-0.0111218280 -0.0597296590 0 -1
-0.0139958160 -0.0596967000 0 -1
-0.0171089110 -0.0585604410 0 -1
-0.0201738020 -0.0564426130 0 -1
-0.0229135220 -0.0535596800 0 -1
-0.0250835430 -0.0502025540 0 -1
-0.0264928680 -0.0467085710 0 -1
-0.0270228130 -0.0434282220 0 -1
-0.0266403520 -0.0406897410 0 -1
-0.0254033990 -0.0387656380 0 -1
-0.0234566670 -0.0378451240 0 -1
-0.0210180200 -0.0380151420 0 -1
-0.0183560600 -0.0392520930 0 -1
-0.0157612210 -0.0414254990 0 -1
-0.0135150560 -0.0443122610 0 -1
-0.0118624140 -0.0476186580 0 -1
-0.0109888130 -0.0510086580 0 -1
-0.0110040680 -0.0541374190 0 -1
-0.0119327300 -0.0566864060 0 -1
-0.0137109530 -0.0583949350 0 -1
-0.0161898860 -0.0590844180 0 -1
-0.0191469120 -0.0586735680 0 -1
-0.0223051400 -0.0571845160 0 -1
-0.0253595290 -0.0547411030 0 -1
-0.0280075590 -0.0515597050 0 -1
-0.0299816720 -0.0479311670 0 -1
-0.0310787610 -0.0441936510 -1 -1
-0.0311819550 -0.0406995050 -1 -1
-0.0302717210 -0.0377805200 -1 -1
-0.0284256190 -0.0357153860 0 -1
-0.0258085660 -0.0347024040 0 -1
-0.0226562500 -0.0348397250 0 -1
-0.0192533830 -0.0361147650 0 -1
-0.0159080810 -0.0384039960 0 -1
-0.0129243100 -0.0414839560 0 -1
-0.0105744760 -0.0450529880 0 -1
-0.0090740470 -0.0487609350 0 -1
-0.0085600960 -0.0522429320 0 -1
-0.0090762700 -0.0551542240 0 -1
-0.0105670070 -0.0572036750 0 -1
-0.0128825160 -0.0581831080 0 -1
-0.0157940790 -0.0579892270 0 -1
-0.0190179080 -0.0566352420 0 -1
-0.0222444630 -0.0542499000 0 -1
-0.0251691040 -0.0510629440 0 -1
-0.0275207920 -0.0473792900 0 -1
-0.0290872090 -0.0435469110 0 -1
-0.0297348840 -0.0399233280 0 -1
-0.0294221340 -0.0368436650 0 -1
-0.0282029560 -0.0345912930 0 -1
-0.0262210380 -0.0333715490 0 -1
-0.0236939460 -0.0332904140 0 -1
-0.0208891080 -0.0343417330 0 -1
-0.0180954600 -0.0364060980 0 -1
-0.0155950480 -0.0392620510 0 -1
-0.0136371590 -0.0426083850 0 -1
-0.0124160950 -0.0460950070 0 -1
-0.0120537990 -0.0493585230 0 -1
-0.0125887190 -0.0520584660 0 -1
-0.0139714410 -0.0539109130 0 -1
-0.0160672920 -0.0547167340 0 -1
-0.0186667030 -0.0543819580 0 -1
-0.0215044210 -0.0529283230 0 -1
-0.0242868740 -0.0504925520 0 -1
-0.0267233460 -0.0473133350 0 -1
-0.0285557990 -0.0437070050 0 -1
-0.0295846940 -0.0400352800 0 -1
-0.0296896480 -0.0366685830 0 -1
-0.0288431580 -0.0339483480 0 -1
-0.0271150390 -0.0321524920 0 -1
-0.0246658720 -0.0314678720 0 -1
-0.0217300420 -0.0319720410 0 -1
-0.0185915390 -0.0336256690 0 -1
-0.0155563080 -0.0362764630 0 -1
-0.0129235260 -0.0396742880 0 -1
-0.0109568550 -0.0434959650 0 -1
-0.0098572310 -0.0473771410 0 -1
-0.0097406510 -0.0509476990 0 -1
-0.0106248010 -0.0538674170 0 -1
-0.0124266470 -0.0558590590 0 -1
-0.0149714330 -0.0567356570 0 -1
-0.0180125090 -0.0564188250 0 -1
-0.0212588680 -0.0549463450 0 -1
-0.0244051440 -0.0524683520 0 -1
-0.0271600300 -0.0492324960 0 -1
-0.0292719220 -0.0455601230 0 -1
-0.0305511740 -0.0418160810 -1 -1
-0.0308874350 -0.0383741670 -1 -1
-0.0302603020 -0.0355807170 -1 -1
-0.0287419050 -0.0337201710 0 -1
-0.0264901290 -0.0329864490 0 -1
-0.0237324340 -0.0334626900 0 -1
-0.0207423460 -0.0351112730 0 -1
-0.0178116610 -0.0377759900 0 -1
-0.0152217050 -0.0411970030 0 -1
-0.0132167410 -0.0450371610 0 -1
-0.0119820140 -0.0489165200 0 -1
-0.0116282000 -0.0524509090 0 -1
-0.0121831540 -0.0552907170 0 -1
-0.0135907330 -0.0571566200 0 -1
-0.0157154930 -0.0578682210 0 -1
-0.0183527220 -0.0573613350 0 -1
-0.0212449540 -0.0556918090 0 -1
-0.0241053220 -0.0530269000 0 -1
-0.0266450340 -0.0496269630 0 -1
-0.0286014870 -0.0458199310 0 -1
-0.0297652780 -0.0419701180 0 -1
-0.0300036440 -0.0384430450 -1 -1
-0.0292758500 -0.0355696170 0 -1
-0.0276378800 -0.0336141160 0 -1
-0.0252373710 -0.0327498450 0 -1
-0.0223001380 -0.0330447630 0 -1
-0.0191083970 -0.0344579540 0 -1
-0.0159716340 -0.0368460050 0 -1
-0.0131937400 -0.0399766720 0 -1
-0.0110410770 -0.0435476460 0 -1
-0.0097152100 -0.0472109180 0 -1
-0.0093332210 -0.0506038890 0 -1
-0.0099176830 -0.0533853140 0 -1
-0.0113968470 -0.0552712330 0 -1
-0.0136139900 -0.0560657800 0 -1
-0.0163442480 -0.0556829070 0 -1
-0.0193174150 -0.0541562280 0 -1
-0.0222449530 -0.0516358200 0 -1
-0.0248481930 -0.0483726070 0 -1
-0.0268840650 -0.0446924940 0 -1
-0.0281661520 -0.0409634780 0 -1
-0.0285810150 -0.0375588410 0 -1
-0.0281000510 -0.0348192910 0 -1
-0.0267856810 -0.0330177690 0 -1
-0.0247887140 -0.0323310520 0 -1
-0.0223336770 -0.0328213360 0 -1
-0.0196931520 -0.0344300410 0 -1
-0.0171568850 -0.0369851640 0 -1
-0.0150017270 -0.0402216450 0 -1
-0.0134649740 -0.0438114720 0 -1
-0.0127212970 -0.0473981510 0 -1
-0.0128642420 -0.0506306930 0 -1
-0.0138954030 -0.0531946920 0 -1
-0.0157241750 -0.0548399490 0 -1
-0.0181781320 -0.0554035960 0 -1
-0.0210219640 -0.0548263300 0 -1
-0.0239823110 -0.0531591880 0 -1
-0.0267751840 -0.0505597660 0 -1
-0.0291324170 -0.0472784800 0 -1
-0.0308246620 -0.0436360340 -1 -1
-0.0316798300 -0.0399933420 -1 -1
-0.0315970910 -0.0367157640 -1 -1
-0.0305571580 -0.0341350470 -1 -1
-0.0286287220 -0.0325140300 0 -1
-0.0259684670 -0.0320192050 0 -1
-0.0228107070 -0.0327041630 0 -1
-0.0194454110 -0.0345051330 0 -1
-0.0161882440 -0.0372489840 0 -1
-0.0133479520 -0.0406725330 0 -1
-0.0111946100 -0.0444502820 0 -1
-0.0099308370 -0.0482269320 0 -1
-0.0096690890 -0.0516509790 0 -1
-0.0104191960 -0.0544061840 0 -1
-0.0120884260 -0.0562388820 0 -1
-0.0144928600 -0.0569796900 0 -1
-0.0173774410 -0.0565584250 0 -1
-0.0204425630 -0.0550114360 0 -1
-0.0233745100 -0.0524805300 0 -1
-0.0258760610 -0.0492023290 0 -1
-0.0276937970 -0.0454878330 0 -1
-0.0286399940 -0.0416940440 0 -1
-0.0286084050 -0.0381906580 0 -1
-0.0275840580 -0.0353246330 0 -1
-0.0256469360 -0.0333852760 0 -1
-0.0229681460 -0.0325733950 0 -1
-0.0197960360 -0.0329791050 0 -1
-0.0164312040 -0.0345719030 0 -1
-0.0131940860 -0.0372036470 0 -1
-0.0103916880 -0.0406231550 0 -1
-0.0082879200 -0.0445010590 0 -1
-0.0070787340 -0.0484627840 0 -1
-0.0068729970 -0.0521259850 0 -1
-0.0076810740 -0.0551381300 0 -1
-0.0094138090 -0.0572105350 0 -1
-0.0118934740 -0.0581461390 0 -1
-0.0148743870 -0.0578586940 0 -1
-0.0180683180 -0.0563811460 0 -1
-0.0211715660 -0.0538620250 0 -1
-0.0238925880 -0.0505507930 0 -1
-0.0259787410 -0.0467743820 0 -1
-0.0272401710 -0.0429065490 0 -1
-0.0275686910 -0.0393311830 0 -1
-0.0269495570 -0.0364025600 0 -1
-0.0254641300 -0.0344082300 0 -1
-0.0232810350 -0.0335400630 0 -1
-0.0206355940 -0.0338764640 0 -1
-0.0178023910 -0.0353765330 0 -1
-0.0150676200 -0.0378853770 0 -1
-0.0127040530 -0.0411488990 0 -1
-0.0109474280 -0.0448369240 0 -1
-0.0099738700 -0.0485741610 0 -1
-0.0098818210 -0.0519775170 0 -1
-0.0106828880 -0.0546959240 0 -1
-0.0123029090 -0.0564471810 0 -1
-0.0145915810 -0.0570467160 0 -1
-0.0173386820 -0.0564254200 0 -1
-0.0202950180 -0.0546361970 0 -1
-0.0231950100 -0.0518494310 0 -1
-0.0257779900 -0.0483370600 0 -1
-0.0278083540 -0.0444459810 0 -1
-0.0290957870 -0.0405637960 0 -1
-0.0295144390 -0.0370807390 0 -1
-0.0290184710 -0.0343511290 0 -1
-0.0276516030 -0.0326575240 0 -1
-0.0255473410 -0.0321810250 0 -1
-0.0229169700 -0.0329814680 0 -1
-0.0200269440 -0.0349909070 0 -1
-0.0171711500 -0.0380215680 0 -1
-0.0146419850 -0.0417863430 0 -1
-0.0127006630 -0.0459284930 0 -1
-0.0115480640 -0.0500571560 0 -1
-0.0113014760 -0.0537851260 0 -1
-0.0119835890 -0.0567655340 0 -1
-0.0135251040 -0.0587246820 0 -1
-0.0157763630 -0.0594884700 0 -1
-0.0185235690 -0.0589998000 0 -1
-0.0215089530 -0.0573244010 0 -1
-0.0244543970 -0.0546434080 0 -1
-0.0270861730 -0.0512335720 0 -1
-0.0291590980 -0.0474382820 0 -1
-0.0304799260 -0.0436327600 -1 -1
-0.0309285140 -0.0401863330 -1 -1
-0.0304723010 -0.0374260660 -1 -1
-0.0291699050 -0.0356066010 0 -1
-0.0271640180 -0.0348885020 0 -1
-0.0246663710 -0.0353248670 0 -1
-0.0219366840 -0.0368565920 0 -1
-0.0192570000 -0.0393182240 0 -1
-0.0169039510 -0.0424551460 0 -1
-0.0151220360 -0.0459495070 0 -1
-0.0141001050 -0.0494508070 0 -1
-0.0139522630 -0.0526086960 0 -1
-0.0147046420 -0.0551064140 0 -1
-0.0162904880 -0.0566917130 0 -1
-0.0185561350 -0.0572015680 0 -1
-0.0212780520 -0.0565784670 0 -1
-0.0241875250 -0.0548763570 0 -1
-0.0269979190 -0.0522545990 0 -1
-0.0294306900 -0.0489608700 0 -1
-0.0312391100 -0.0453065780 -1 -1
-0.0322309270 -0.0416380160 -1 -1
-0.0322899970 -0.0383046840 -1 -1
-0.0313936970 -0.0356261700 -1 -1
-0.0296208970 -0.0338609520 0 -1
-0.0271465340 -0.0331810410 0 -1
-0.0242227180 -0.0336547880 0 -1
-0.0211496960 -0.0352389920 0 -1
-0.0182412480 -0.0377813710 0 -1
-0.0157895730 -0.0410339080 0 -1
-0.0140348970 -0.0446764190 0 -1
-0.0131432820 -0.0483482950 0 -1
-0.0131934340 -0.0516848930 0 -1
-0.0141720740 -0.0543542160 0 -1
-0.0159774700 -0.0560899780 0 -1
-0.0184305070 -0.0567180570 0 -1
-0.0212918860 -0.0561737950 0 -1
-0.0242837610 -0.0545079770 0 -1
-0.0271141040 -0.0518804170 0 -1
-0.0295023320 -0.0485423490 0 -1
-0.0312048610 -0.0448110470 -1 -1
-0.0320388400 -0.0410398770 -1 -1
-0.0319014740 -0.0375855920 -1 -1
-0.0307826150 -0.0347748020 -1 -1
-0.0287695770 -0.0328723020 0 -1
-0.0260431690 -0.0320541480 0 -1
-0.0228628140 -0.0323888470 0 -1
-0.0195396760 -0.0338297920 0 -1
-0.0164012970 -0.0362201190 0 -1
-0.0137553050 -0.0393089630 0 -1
-0.0118587720 -0.0427766830 0 -1
-0.0108950310 -0.0462658550 0 -1
-0.0109573960 -0.0494150820 0 -1
-0.0120408410 -0.0518936880 0 -1
-0.0140429930 -0.0534349380 0 -1
-0.0167738670 -0.0538636830 0 -1
-0.0199733080 -0.0531142510 0 -1
-0.0233353240 -0.0512369020 0 -1
-0.0265368900 -0.0483929550 0 -1
-0.0292676760 -0.0448388770 0 -1
-0.0312587460 -0.0409003100 -1 -1
-0.0323093860 -0.0369393690 -1 -1
-0.0323092180 -0.0333200730 -1 -1
-0.0312512160 -0.0303750950 -1 -1
-0.0292331730 -0.0283749260 0 0
-0.0264478780 -0.0275008140 0 0
-0.0231632020 -0.0278243800 0 0
-0.0196940360 -0.0292978290 0 0
-0.0163697520 -0.0317581830 0 -1
-0.0135016210 -0.0349456120 0 -1
-0.0113530400 -0.0385316790 0 -1
-0.0101141500 -0.0421521160 0 -1
-0.0098833270 -0.0454408310 0 -1
-0.0106582060 -0.0480639220 0 -1
-0.0123372700 -0.0497521370 0 -1
-0.0147320720 -0.0503284570 0 -1
-0.0175885550 -0.0497269390 0 -1
-0.0206133810 -0.0480005290 0 -1
-0.0235009160 -0.0453170110 0 -1
-0.0259592050 -0.0419424930 0 -1
-0.0277353960 -0.0382131960 0 -1
-0.0286401240 -0.0344994660 0 -1
-0.0285676460 -0.0311677720 0 -1
-0.0275077840 -0.0285451710 0 0
-0.0255478960 -0.0268889500 0 0
-0.0228652650 -0.0263634910 0 0
-0.0197110300 -0.0270256400 0 0
-0.0163863630 -0.0288189780 0 0
-0.0132116150 -0.0315775840 0 -1
-0.0104914230 -0.0350401750 0 -1
-0.0084819150 -0.0388746330 0 -1
-0.0073659210 -0.0427110800 0 -1
-0.0072381930 -0.0461796630 0 -1
-0.0080993590 -0.0489483950 0 -1
-0.0098575740 -0.0507567180 0 -1
-0.0123381240 -0.0514411100 0 -1
-0.0152999940 -0.0509503380 0 -1
-0.0184571710 -0.0493498870 0 -1
-0.0215040880 -0.0468155870 0 -1
-0.0241450390 -0.0436162610 0 -1
-0.0261245850 -0.0400863200 0 -1
-0.0272544570 -0.0365913030 0 -1
-0.0274336010 -0.0334907590 0 -1
-0.0266586950 -0.0311028870 0 -1
-0.0250228340 -0.0296741260 0 0
-0.0227029810 -0.0293561570 0 0
-0.0199394510 -0.0301926670 0 -1
-0.0170105760 -0.0321169600 0 -1
-0.0142051350 -0.0349592550 0 -1
-0.0117954400 -0.0384615640 0 -1
-0.0100132730 -0.0422990990 0 -1
-0.0090295900 -0.0461082560 0 -1
-0.0089386300 -0.0495202910 0 -1
-0.0097474030 -0.0521978810 0 -1
-0.0113723440 -0.0538699480 0 -1
-0.0136458360 -0.0543599730 0 -1
-0.0163335770 -0.0536048870 0 -1
-0.0191597550 -0.0516626700 0 -1
-0.0218350660 -0.0487071400 0 -1
-0.0240843440 -0.0450103720 0 -1
-0.0256725660 -0.0409155870 0 -1
-0.0264279500 -0.0368037200 0 -1
-0.0262595370 -0.0330564500 0 -1
-0.0251667300 -0.0300188930 0 -1
-0.0232399900 -0.0279655790 0 0
-0.0206531410 -0.0270728690 0 0
-0.0176479660 -0.0274006320 0 0
-0.0145123320 -0.0288858710 0 0
-0.0115536010 -0.0313499470 0 -1
-0.0090691910 -0.0345190620 0 -1
-0.0073166140 -0.0380550910 0 -1
-0.0064860890 -0.0415917830 0 -1
-0.0066791740 -0.0447712150 0 -1
-0.0078966340 -0.0472772310 0 -1
-0.0100376970 -0.0488637710 0 -1
-0.0129111780 -0.0493758930 0 -1
-0.0162567440 -0.0487619790 0 -1
-0.0197726570 -0.0470775990 0 -1
-0.0231456210 -0.0444818800 0 -1
-0.0260799660 -0.0412259110 0 -1
-0.0283255810 -0.0376321250 0 -1
-0.0297035390 -0.0340646740 0 -1
-0.0301255020 -0.0308931140 -1 -1
-0.0296027820 -0.0284542300 0 0
-0.0282429530 -0.0270170100 0 0
-0.0262336480 -0.0267542320 0 0
-0.0238161020 -0.0277234450 0 0
-0.0212546590 -0.0298604060 0 0
-0.0188084030 -0.0329865730 0 -1
-0.0167075270 -0.0368290800 0 -1
-0.0151345610 -0.0410494670 0 -1
-0.0142102260 -0.0452776630 0 -1
-0.0139842980 -0.0491486390 0 -1
-0.0144320320 -0.0523389470 0 -1
-0.0154559110 -0.0545997720 0 -1
-0.0168916680 -0.0557830870 0 -1
-0.0185184330 -0.0558578690 0 -1
-0.0200748850 -0.0549137970 0 -1
-0.0212828240 -0.0531514370 0 -1
-0.0218757890 -0.0508607270 0 -1
-0.0216280480 -0.0483913990 0 -1
-0.0203806610 -0.0461190760 0 -1
-0.0180620000 -0.0444103540 0 -1
-0.0146986640 -0.0435896080 0 -1
-0.0104136150 -0.0439094340 0 -1
-0.0054121080 -0.0455266410 0 -1
0.0000413106 -0.0484864030 0 -1
0.0056501480 -0.0527166050 0 -1
0.0111133940 -0.0580331600 0 -1
0.0161509930 -0.0641562450 0 -1
0.0205271810 -0.0707362790 0 -1
0.0240713670 -0.0773867920 0 -1
0.0266946330 -0.0837199660 0 -1
0.0283987350 -0.0893809760 0 -1
0.0292757140 -0.0940788700 0 -1
0.0294987070 -0.0976123940 0 -1
0.0293055230 -0.0998883420 0 -1
0.0289764920 -0.1009299610 0 -1
0.0288089910 -0.1008746250 0 -1
0.0290909120 -0.0999612880 0 -1
0.0300735490 -0.0985080650 1 -1
0.0319449830 -0.0968808400 1 -1
0.0348083180 -0.0954558370 1 -1
0.0386691940 -0.0945810420 1 -1
0.0434338720 -0.0945411390 1 -1
0.0489176250 -0.0955291900 1 -1
0.0548625190 -0.0976275400 1 -1
0.0609627080 -0.1008002690 1 -1
0.0668945330 -0.1048980770 1 -1
0.0723476690 -0.1096739110 1 -1
0.0770534410 -0.1148067950 1 -1
0.0808084170 -0.1199326410 1 -1
0.0834925810 -0.1246809610 1 -1
0.0850806080 -0.1287142040 1 -1
0.0856450250 -0.1317646630 1 -1
0.0853513460 -0.1336635600 1 -1
0.0844444420 -0.1343581330 1 -1
0.0832250630 -0.1339152240 1 -1
0.0820187740 -0.1325124080 1 -1
0.0811416770 -0.1304184890 1 -1
0.0808660520 -0.1279653660 1 -1
0.0813892170 -0.1255137000 1 -1
0.0828104710 -0.1234158000 1 -1
0.0851200740 -0.1219801520 1 -1
0.0882013060 -0.1214420370 1 -1
0.0918448110 -0.1219430020 1 -1
0.0957728810 -0.1235198260 1 -1
0.0996695400 -0.1261025870 1 -1
0.1032124390 -0.1295212800 1 -1
0.1061045300 -0.1335204530 1 -1
0.1081038620 -0.1377814510 1 -1
0.1090484350 -0.1419513930 1 -1
0.1088724740 -0.1456767480 1 -1
0.1076118390 -0.1486378390 1 -1
0.1053987320 -0.1505803900 1 -1
0.1024473410 -0.1513413440 1 -1
0.0990323280 -0.1508669230 1 -1
0.0954631480 -0.1492207950 1 -1
0.0920579470 -0.1465802510 1 -1
0.0891186000 -0.1432196150 1 -1
0.0869058830 -0.1394825580 1 -1
0.0856141590 -0.1357464920 1 -1
0.0853484680 -0.1323831240 1 -1
0.0861102290 -0.1297200740 1 -1
0.0877964430 -0.1280080260 1 -1
0.0902123830 -0.1273963200 1 -1
0.0930943110 -0.1279193520 1 -1
0.0961378070 -0.1294955580 1 -1
0.0990278900 -0.1319387180 1 -1
0.1014684580 -0.1349790960 1 -1
0.1032091610 -0.1382908620 1 -1
0.1040676400 -0.1415230180 1 -1
0.1039457440 -0.1443325390 1 -1
0.1028385860 -0.1464180630 1 -1
0.1008347400 -0.1475501080 1 -1
0.0981067850 -0.1475930360 1 -1
0.0948933180 -0.1465161880 1 -1
0.0914747320 -0.1443949100 1 -1
0.0881462090 -0.1414035350 1 -1
0.0851910770 -0.1378012780 1 -1
0.0828553830 -0.1339106930 1 -1
0.0813243230 -0.1300888450 1 -1
0.0807028170 -0.1266931600 1 -1
0.0810032420 -0.1240455830 1 -1
0.0821429220 -0.1223993310 1 -1
0.0839526340 -0.1219123850 1 -1
0.0861953150 -0.1226311030 1 -1
0.0885925080 -0.1244858630 1 -1
0.0908545470 -0.1272985310 1 -1
0.0927097550 -0.1307997840 1 -1
0.0939295880 -0.1346540460 1 -1
0.0943494950 -0.1384901240 1 -1
0.0938855730 -0.1419356660 1 -1
0.0925451460 -0.1446531670 1 -1
0.0904282940 -0.1463744420 1 -1
0.0877185370 -0.1469296640 1 -1
0.0846628330 -0.1462668970 1 -1
0.0815434900 -0.1444589590 1 -1
0.0786471830 -0.1416961540 1 -1
0.0762363660 -0.1382655500 1 -1
0.0745258370 -0.1345197780 1 -1
0.0736648470 -0.1308396940 1 -1
0.0737243260 -0.1275954910 1 -1
0.0746890430 -0.1251102320 1 -1
0.0764566320 -0.1236288450 1 -1
0.0788458730 -0.1232948450 1 -1
0.0816132730 -0.1241366130 1 -1
0.0844746090 -0.1260646770 1 -1
0.0871299470 -0.1288808510 1 -1
0.0892919170 -0.1322990870 1 -1
0.0907150290 -0.1359762540 1 -1
0.0912221150 -0.1395487420 1 -1
0.0907247210 -0.1426694070 1 -1
0.0892348660 -0.1450403530 1 -1
0.0868660470 -0.1464392370 1 -1
0.0838225830 -0.1467378250 1 -1
0.0803779030 -0.1459117400 1 -1
0.0768444160 -0.1440410520 1 -1
0.0735400490 -0.1413021600 1 -1
0.0707568650 -0.1379517530 1 -1
0.0687340830 -0.1343042440 1 -1
0.0676355580 -0.1307042530 1 -1
0.0675333290 -0.1274954010 1 -1
0.0684006500 -0.1249872250 1 -1
0.0701162970 -0.1234237200 1 -1
0.0724784730 -0.1229578460 1 -1
0.0752252270 -0.1236350410 1 -1
0.0780596020 -0.1253872010 1 -1
0.0806780730 -0.1280384910 1 -1
0.0827997800 -0.1313237020 1 -1
0.0841939450 -0.1349170320 1 -1
0.0847032950 -0.1384661090 1 -1
0.0842603730 -0.1416261850 1 -1
0.0828931840 -0.1440918230 1 -1
0.0807196700 -0.1456250510 1 -1
0.0779336710 -0.1460785220 1 -1
0.0747848680 -0.1454106490 1 -1
0.0715546760 -0.1436897310 1 -1
0.0685307880 -0.1410868360 1 -1
0.0659827330 -0.1378593010 1 -1
0.0641392650 -0.1343259720 1 -1
0.0631681500 -0.1308350810 1 -1
0.0631600330 -0.1277283710 1 -1
0.0641185230 -0.1253069930 1 -1
0.0659579500 -0.1238029760 1 -1
0.0685091010 -0.1233575650 1 -1
0.0715328340 -0.1240077130 1 -1
0.0747415180 -0.1256828000 1 -1
0.0778266170 -0.1282129630 1 -1
0.0804884690 -0.1313478860 1 -1
0.0824649130 -0.1347824420 1 -1
0.0835573950 -0.1381853830 1 -1
0.0836526570 -0.1412287380 1 -1
0.0827360480 -0.1436165380 1 -1
0.0808934080 -0.1451119820 1 -1
0.0783017720 -0.1455618370 1 -1
0.0752108270 -0.1449151660 1 -1
0.0719171750 -0.1432319770 1 -1
0.0687337920 -0.1406786990 1 -1
0.0659577500 -0.1375106170 1 -1
0.0638400790 -0.1340439300 1 -1
0.0625617810 -0.1306218420 1 -1
0.0622180600 -0.1275798780 1 -1
0.0628105600 -0.1252142650 1 -1
0.0642473010 -0.1237549030 1 -1
0.0663511470 -0.1233436980 1 -1
0.0688774170 -0.1240201410 1 -1
0.0715391750 -0.1257169890 1 -1
0.0740364460 -0.1282674300 1 -1
0.0760855500 -0.1314221430 1 -1
0.0774465310 -0.1348730310 1 -1
0.0779473480 -0.1382808170 1 -1
0.0775027450 -0.1413046480 1 -1
0.0761251260 -0.1436326400 1 -1
0.0739245700 -0.1450126120 1 -1
0.0710965520 -0.1452808090 1 -1
0.0678996130 -0.1443837980 1 -1
0.0646276170 -0.1423879190 1 -1
0.0615808300 -0.1394735580 1 -1
0.0590381100 -0.1359157730 1 -1
0.0572308580 -0.1320546680 1 -1
0.0563201160 -0.1282588440 1 -1
0.0563803690 -0.1248861320 1 -1
0.0573929710 -0.1222470980 1 -1
0.0592492580 -0.1205756520 1 -1
0.0617618370 -0.1200083990 1 -1
0.0646820220 -0.1205736220 1 -1
0.0677213240 -0.1221908070 1 -1
0.0705763290 -0.1246801590 1 -1
0.0729570370 -0.1277801320 1 -1
0.0746164590 -0.1311706960 1 -1
0.0753767270 -0.1345009960 1 -1
0.0751479230 -0.1374216400 1 -1
0.0739382980 -0.1396208550 1 -1
0.0718549710 -0.1408595400 1 -1
0.0690938450 -0.1409981330 1 -1
0.0659192970 -0.1400107710 1 -1
0.0626368280 -0.1379856060 1 -1
0.0595624470 -0.1351126860 1 -1
0.0569920230 -0.1316629220 1 -1
0.0551732400 -0.1279618750 1 -1
0.0542818530 -0.1243601290 1 -1
0.0544034290 -0.1212005910 1 -1
0.0555227370 -0.1187846600 1 -1
0.0575234870 -0.1173419960 1 -1
0.0601995850 -0.1170085130 1 -1
0.0632767280 -0.1178141810 1 -1
0.0664416020 -0.1196796840 1 -1
0.0693747140 -0.1224216340 1 -1
0.0717825740 -0.1257676280 1 -1
0.0734265560 -0.1293815590 1 -1
0.0741467340 -0.1328969710 1 -1
0.0738779800 -0.1359544700 1 -1
0.0726556620 -0.1382383380 1 -1
0.0706105570 -0.1395077510 1 -1
0.0679541970 -0.1396200450 1 -1
0.0649561660 -0.1385451880 1 -1
0.0619160300 -0.1363699590 1 -1
0.0591335760 -0.1332897820 1 -1
0.0568802340 -0.1295887220 1 -1
0.0553738600 -0.1256108280 1 -1
0.0547590640 -0.1217263250 1 -1
0.0550947290 -0.1182957710 1 -1
0.0563493570 -0.1156356560 1 -1
0.0584038540 -0.1139885260 1 -1
0.0610615890 -0.1134994790 1 -1
0.0640663490 -0.1142007050 1 -1
0.0671270400 -0.1160069340 1 -1
0.0699456820 -0.1187241780 1 -1
0.0722462320 -0.1220711210 1 -1
0.0738020300 -0.1257091430 1 -1
0.0744574640 -0.1292763000 1 -1
0.0741404530 -0.1324218670 1 -1
0.0728663200 -0.1348389780 1 -1
0.0707350950 -0.1362928300 1 -1
0.0679226900 -0.1366420320 1 -1
0.0646651170 -0.1358513720 1 -1
0.0612363580 -0.1339952240 1 -1
0.0579233020 -0.1312514260 1 -1
0.0550013120 -0.1278855050 1 -1
0.0527113490 -0.1242259850 1 -1
0.0512386880 -0.1206330210 1 -1
0.0506946970 -0.1174636600 1 -1
0.0511040600 -0.1150375900 1 -1
0.0524000680 -0.1136069540 1 -1
0.0544300920 -0.1133322470 1 -1
0.0569712110 -0.1142654590 1 -1
0.0597540390 -0.1163423780 1 -1
0.0624916290 -0.1193864720 1 -1
0.0649088490 -0.1231250490 1 -1
0.0667679240 -0.1272157880 1 -1
0.0678887350 -0.1312804430 1 -1
0.0681644800 -0.1349418450 1 -1
0.0675724490 -0.1378600860 1 -1
0.0661781550 -0.1397649250 1 -1
0.0641306470 -0.1404823660 1 -1
0.0616477870 -0.1399528150 1 -1
0.0589927800 -0.1382380220 1 -1
0.0564459340 -0.1355152330 1 -1
0.0542761360 -0.1320592340 1 -1
0.0527146640 -0.1282148290 1 -1
0.0519323670 -0.1243624920 1 -1
0.0520216880 -0.1208802620 1 -1
0.0529856440 -0.1181060490 1 -1
0.0547352600 -0.1163043520 1 -1
0.0570963920 -0.1156404450 1 -1
0.0598265970 -0.1161646090 1 -1
0.0626407970 -0.1178081650 1 -1
0.0652417430 -0.1203915200 1 -1
0.0673507160 -0.1236428930 1 -1
0.0687357740 -0.1272255400 1 -1
0.0692357860 -0.1307712730 1 -1
0.0687777690 -0.1339178080 1 -1
0.0673848390 -0.1363460390 1 -1
0.0651734920 -0.1378124390 1 -1
0.0623411140 -0.1381726670 1 -1
0.0591464100 -0.1373942410 1 -1
0.0558853220 -0.1355574790 1 -1
0.0528639050 -0.1328449800 1 -1
0.0503698070 -0.1295216070 1 -1
0.0486446190 -0.1259082730 1 -1
0.0478593310 -0.1223525830 1 -1
0.0480954920 -0.1191984500 1 -1
0.0493347940 -0.1167556300 1 -1
0.0514591340 -0.1152695410 1 -1
0.0542619600 -0.1148934420 1 -1
0.0574697870 -0.1156682670 1 -1
0.0607704690 -0.1175158140 1 -1
0.0638437620 -0.1202473160 1 -1
0.0663908840 -0.1235851020 1 -1
0.0681619500 -0.1271929250 1 -1
0.0689804420 -0.1307106850 1 -1
0.0687624680 -0.1337900680 1 -1
0.0675277330 -0.1361278620 1 -1
0.0653992110 -0.1374942050 1 -1
0.0625899820 -0.1377540790 1 -1
0.0593790290 -0.1368804520 1 -1
0.0560805100 -0.1349567590 1 -1
0.0530114260 -0.1321674950 1 -1
0.0504605440 -0.1287786450 1 -1
0.0486596830 -0.1251111630 1 -1
0.0477602930 -0.1215102620 1 -1
0.0478205980 -0.1183130440 1 -1
0.0488050840 -0.1158174300 1 -1
0.0505926440 -0.1142549510 1 -1
0.0529897570 -0.1137692910 1 -1
0.0557479990 -0.1144025940 1 -1
0.0585854730 -0.1160914890 1 -1
0.0612103220 -0.1186731610 1 -1
0.0633448100 -0.1219001830 1 -1
0.0647503680 -0.1254627000 1 -1
0.0652539490 -0.1290164790 1 -1
0.0647720730 -0.1322145080 1 -1
0.0633262590 -0.1347391080 1 -1
0.0610454020 -0.1363318540 1 -1
0.0581533430 -0.1368189790 1 -1
0.0549421140 -0.1361300470 1 -1
0.0517359170 -0.1343077770 1 -1
0.0488548300 -0.1315072190 1 -1
0.0465845070 -0.1279832580 1 -1
0.0451518840 -0.1240669660 1 -1
0.0447057200 -0.1201329690 1 -1
0.0453037460 -0.1165612710 1 -1
0.0469079640 -0.1136978780 1 -1
0.0493875680 -0.1118190220 1 -1
0.0525299070 -0.1111032050 1 -1
0.0560608590 -0.1116138570 1 -1
0.0596730510 -0.1132940600 1 -1
0.0630566990 -0.1159733110 1 -1
0.0659279530 -0.1193848540 1 -1
0.0680525100 -0.1231919180 1 -1
0.0692638270 -0.1270213870 1 -1
0.0694757100 -0.1305022370 1 -1
0.0686897110 -0.1333043090 1 -1
0.0669969500 -0.1351724230 1 -1
0.0645724440 -0.1359514020 1 -1
0.0616607670 -0.1355989660 1 -1
0.0585542690 -0.1341860820 1 -1
0.0555657200 -0.1318868700 1 -1
0.0529966750 -0.1289604350 1 -1
0.0511045800 -0.1257258360 1 -1
0.0500744580 -0.1225314200 1 -1
0.0500006660 -0.1197211820 1 -1
0.0508796610 -0.1176013030 1 -1
0.0526108900 -0.1164097780 1 -1
0.0550048880 -0.1162922230 1 -1
0.0578011350 -0.1172862210 1 -1
0.0606959060 -0.1193152890 1 -1
0.0633754190 -0.1221942270 1 -1
0.0655488040 -0.1256475590 1 -1
0.0669778180 -0.1293394130 1 -1
0.0675010640 -0.1329097480 1 -1
0.0670497330 -0.1360112180 1 -1
0.0656523350 -0.1383426910 1 -1
0.0634282620 -0.1396775510 1 -1
0.0605724090 -0.1398855210 1 -1
0.0573344450 -0.1389455570 1 -1
0.0539963470 -0.1369474600 1 -1
0.0508499830 -0.1340822130 1 -1
0.0481738110 -0.1306232700 1 -1
0.0462077710 -0.1269011700 1 -1
0.0451284190 -0.1232731670 1 -1
0.0450281940 -0.1200895630 1 -1
0.0459027580 -0.1176592940 1 -1
0.0476501200 -0.1162187600 1 -1
0.0500823200 -0.1159080860 1 -1
0.0529458850 -0.1167574350 1 -1
0.0559467680 -0.1186839020 1 -1
0.0587783790 -0.1214984280 1 -1
0.0611519980 -0.1249223700 1 -1
0.0628269360 -0.1286134530 1 -1
0.0636359480 -0.1321994240 1 -1
0.0635014180 -0.1353157670 1 -1
0.0624407250 -0.1376427860 1 -1
0.0605621430 -0.1389374380 1 -1
0.0580526590 -0.1390566570 1 -1
0.0551584300 -0.1379710910 1 -1
0.0521599210 -0.1357690020 1 -1
0.0493453740 -0.1326496600 1 -1
0.0469852630 -0.1289057760 1 -1
0.0453083640 -0.1248958390 1 -1
0.0444803450 -0.1210085210 1 -1
0.0445874290 -0.1176226400 1 -1
0.0456272780 -0.1150677220 1 -1
0.0475077360 -0.1135903060 1 -1
0.0500539280 -0.1133295420 1 -1
0.0530245580 -0.1143040590 1 -1
0.0561363740 -0.1164112740 1 -1
0.0590928180 -0.1194392690 1 -1
0.0616126490 -0.1230894520 1 -1
0.0634562950 -0.1270066470 1 -1
0.0644485370 -0.1308135280 1 -1
0.0644956770 -0.1341468740 1 -1
0.0635950410 -0.1366921170 1 -1
0.0618351280 -0.1382124770 1 -1
0.0593868120 -0.1385710280 1 -1
0.0564875550 -0.1377446550 1 -1
0.0534196340 -0.1358273250 1 -1
0.0504829520 -0.1330204040 1 -1
0.0479647880 -0.1296108180 1 -1
0.0461105200 -0.1259409920 1 -1
0.0450992320 -0.1223749530 1 -1
0.0450263700 -0.1192632560 1 -1
0.0458937040 -0.1169089450 1 -1
0.0476072450 -0.1155378260 1 -1
0.0499854840 -0.1152766450 1 -1
0.0527790180 -0.1161415230 1 -1
0.0556984790 -0.1180375540 1 -1
0.0584454560 -0.1207692810 1 -1
0.0607425800 -0.1240603160 1 -1
0.0623605190 -0.1275794790 1 -1
0.0631392230 -0.1309713950 1 -1
0.0630009990 -0.1338900750 1 -1
0.0619547880 -0.1360330950 1 -1
0.0600928350 -0.1371728630 1 -1
0.0575814990 -0.1371810070 1 -1
0.0546470370 -0.1360425110 1 -1
0.0515567930 -0.1338574680 1 -1
0.0485966460 -0.1308298440 1 -1
0.0460459000 -0.1272446270 1 -1
0.0441510100 -0.1234372430 1 -1
0.0430998930 -0.1197602790 1 -1
0.0429992240 -0.1165510420 1 -1
0.0438584410 -0.1141014480 1 -1
0.0455853520 -0.1126314670 1 -1
0.0479961940 -0.1122680510 1 -1
0.0508376750 -0.1130318130 1 -1
0.0538151880 -0.1148335640 1 -1
0.0566224040 -0.1174818590 1 -1
0.0589702590 -0.1207010920 1 -1
0.0606146140 -0.1241581480 1 -1
0.0613807350 -0.1274949230 1 -1
0.0611813400 -0.1303639670 1 -1
0.0600258540 -0.1324641160 1 -1
0.0580201580 -0.1335719640 1 -1
0.0553564690 -0.1335645070 1 -1
0.0522931730 -0.1324299710 1 -1
0.0491262990 -0.1302665900 1 -1
0.0461576710 -0.1272710290 1 -1
0.0436658860 -0.1237186430 1 -1
0.0418826010 -0.1199376740 1 -1
0.0409730340 -0.1162790820 1 -1
0.0410205270 -0.1130841210 1 -1
0.0420173060 -0.1106522920 1 -1
0.0438636880 -0.1092126210 1 -1
0.0463770450 -0.1089009610 1 -1
0.0493102870 -0.1097454510 1 -1
0.0523771830 -0.1116620190 1 -1
0.0552801360 -0.1144610680 1 -1
0.0577374630 -0.1178647200 1 -1
0.0595099120 -0.1215329260 1 -1
0.0604252330 -0.1250968120 1 -1
0.0603965550 -0.1281968190 1 -1
0.0594312440 -0.1305207730 1 -1
0.0576308150 -0.1318356530 1 -1
0.0551827880 -0.1320089760 1 -1
0.0523430180 -0.1310192820 1 -1
0.0494086150 -0.1289564610 1 -1
0.0466862330 -0.1260123540 1 -1
0.0444613510 -0.1224621920 1 -1
0.0429707570 -0.1186382300 1 -1
0.0423787960 -0.1148978850 1 -1
0.0427595120 -0.1115894260 1 -1
0.0440875090 -0.1090185230 1 -1
0.0462393700 -0.1074188100 1 -1
0.0490061320 -0.1069295700 1 -1
0.0521153420 -0.1075832730 1 -1
0.0552591660 -0.1093037820 1 -1
0.0581249730 -0.1119141500 1 -1
0.0604262350 -0.1151527310 1 -1
0.0619313940 -0.1186966850 1 -1
0.0624875360 -0.1221914560 1 -1
0.0620363930 -0.1252840320 1 -1
0.0606209890 -0.1276574490 1 -1
0.0583809970 -0.1290638460 1 -1
0.0555360860 -0.1293523210 1 -1
0.0523605320 -0.1284866480 1 -1
0.0491553090 -0.1265489730 1 -1
0.0462217690 -0.1237292640 1 -1
0.0438366740 -0.1203033750 1 -1
0.0422276510 -0.1166035690 1 -1
0.0415510260 -0.1129849430 1 -1
0.0418760270 -0.1097908060 1 -1
0.0431776720 -0.1073198340 1 -1
0.0453373960 -0.1057978360 1 -1
0.0481507510 -0.1053568050 1 -1
0.0513441880 -0.1060231440 1 -1
0.0546013550 -0.1077159740 1 -1
0.0575955110 -0.1102558400 1 -1
0.0600238100 -0.1133831000 1 -1
0.0616399100 -0.1167835020 1 -1
0.0622806300 -0.1201175430 1 -1
0.0618826250 -0.1230511380 1 -1
0.0604878520 -0.1252866540 1 -1
0.0582387660 -0.1265929110 1 -1
0.0553634690 -0.1268307040 1 -1
0.0521511670 -0.1259692630 1 -1
0.0489211150 -0.1240902450 1 -1
0.0459899330 -0.1213785770 1 -1
0.0436408390 -0.1181020180 1 -1
0.0420974270 -0.1145826130 1 -1
0.0415045250 -0.1111635390 1 -1
0.0419164240 -0.1081749350 1 -1
0.0432910510 -0.1059021340 1 -1
0.0454911670 -0.1045590140 1 -1
0.0482958060 -0.1042678200 1 -1
0.0514231770 -0.1050464680 1 -1
0.0545616580 -0.1068053230 1 -1
0.0574022820 -0.1093556640 1 -1
0.0596674190 -0.1124295990 1 -1
0.0611342830 -0.1157080510 1 -1
0.0616537310 -0.1188523010 1 -1
0.0611638160 -0.1215363600 1 -1
0.0596962130 -0.1234790350 1 -1
0.0573742370 -0.1244732560 1 -1
0.0544027360 -0.1244083980 1 -1
0.0510501580 -0.1232819480 1 -1
0.0476229990 -0.1211989110 1 -1
0.0444353960 -0.1183595800 1 -1
0.0417787120 -0.1150383750 1 -1
0.0398945190 -0.1115570680 1 -1
0.0389523900 -0.1082549440 1 -1
0.0390340950 -0.1054579520 1 -1
0.0401257300 -0.1034489900 1 -1
0.0421184700 -0.1024414400 1 -1
0.0448182430 -0.1025576650 1 -1
0.0479638900 -0.1038142910 1 -1
0.0512516180 -0.1061170780 1 -1
0.0543627480 -0.1092677380 1 -1
0.0569928570 -0.1129822620 1 -1
0.0588813720 -0.1169177980 1 -1
0.0598392680 -0.1207054660 1 -1
0.0597709460 -0.1239871360 1 -1
0.0586861190 -0.1264525860 1 -1
0.0566986640 -0.1278717620 1 -1
0.0540128460 -0.1281178460 1 -1
0.0509007610 -0.1271790940 1 -1
0.0476748870 -0.1251589020 1 -1
0.0446579760 -0.1222645510 1 -1
0.0421520010 -0.1187862190 1 -1
0.0404083150 -0.1150681900 1 -1
0.0396013870 -0.1114747190 1 -1
0.0398087560 -0.1083541530 1 -1
0.0410004990 -0.1060055080 1 -1
0.0430414300 -0.1046507870 1 -1
0.0457067830 -0.1044153550 1 -1
0.0487087930 -0.1053176940 1 -1
0.0517296000 -0.1072689630 1 -1
0.0544556510 -0.1100817260 1 -1
0.0566094070 -0.1134863940 1 -1
0.0579753720 -0.1171542260 1 -1
0.0584191180 -0.1207266800 1 -1
0.0578988280 -0.1238502670 1 -1
0.0564685780 -0.1262135150 1 -1
0.0542724860 -0.1275805460 1 -1
0.0515297130 -0.1278159170 1 -1
0.0485118650 -0.1268975060 1 -1
0.0455165180 -0.1249171540 1 -1
0.0428404020 -0.1220707080 1 -1
0.0407526540 -0.1186388620 1 -1
0.0394680630 -0.1149599030 1 -1
0.0391235360 -0.1113965860 1 -1
0.0397628800 -0.1083004490 1 -1
0.0413326640 -0.1059769910 1 -1
0.0436887540 -0.1046552100 1 -1
0.0466115560 -0.1044644070 1 -1
0.0498276450 -0.1054202400 1 -1
0.0530353240 -0.1074220520 1 -1
0.0559320200 -0.1102632730 1 -1
0.0582424770 -0.1136542490 1 -1
0.0597463690 -0.1172535820 1 -1
0.0603016330 -0.1207026410 1 -1
0.0598588720 -0.1236591600 1 -1
0.0584646910 -0.1258283360 1 -1
0.0562552930 -0.1269906180 1 -1
0.0534423170 -0.1270236490 1 -1
0.0502918630 -0.1259147060 1 -1
0.0470987860 -0.1237615420 1 -1
0.0441598450 -0.1207621170 1 -1
0.0417475490 -0.1171953550 1 -1
0.0400855210 -0.1133952680 1 -1
0.0393279970 -0.1097200780 1 -1
0.0395455750 -0.1065181950 1 -1
0.0407168840 -0.1040941910 1 -1
0.0427264430 -0.1026786910 1 -1
0.0453716000 -0.1024055280 1 -1
0.0483812300 -0.1032985630 1 -1
0.0514446430 -0.1052693620 1 -1
0.0542449270 -0.1081258090 1 -1
0.0564908630 -0.1115905060 1 -1
0.0579444310 -0.1153270420 1 -1
0.0584432310 -0.1189719050 1 -1
0.0579172500 -0.1221694670 1 -1
0.0563981760 -0.1246069310 1 -1
0.0540184890 -0.1260458020 1 -1
0.0509984310 -0.1263467390 1 -1
0.0476219540 -0.1254846460 1 -1
0.0442058880 -0.1235510740 1 -1
0.0410674920 -0.1207434430 1 -1
0.0384941800 -0.1173439710 1 -1
0.0367172070 -0.1136918900 1 -1
0.0358903010 -0.1101512680 1 -1
0.0360750380 -0.1070767850 1 -1
0.0372349710 -0.1047801970 1 -1
0.0392394050 -0.1034997770 1 -1
0.0418763530 -0.1033747470 1 -1
0.0448734490 -0.1044272570 1 -1
0.0479248780 -0.1065552070 1 -1
0.0507213740 -0.1095394440 1 -1
0.0529802790 -0.1130669780 1 -1
0.0544731370 -0.1167675750 1 -1
0.0550482260 -0.1202569030 1 -1
0.0546454980 -0.1231782740 1 -1
0.0533024920 -0.1252376550 1 -1
0.0511506850 -0.1262298990 1 -1
0.0484022030 -0.1260552810 1 -1
0.0453277840 -0.1247261390 1 -1
0.0422283810 -0.1223644540 1 -1
0.0394038500 -0.1191909300 1 -1
0.0371228740 -0.1155052530 1 -1
0.0355976730 -0.1116582250 1 -1
0.0349653560 -0.1080183730 1 -1
0.0352765510 -0.1049357990 1 -1
0.0364916790 -0.1027062150 1 -1
0.0384848670 -0.1015395230 1 -1
0.0410556280 -0.1015373700 1 -1
0.0439485840 -0.1026826080 1 -1
0.0468793940 -0.1048423430 1 -1
0.0495625080 -0.1077843750 1 -1
0.0517373340 -0.1112038650 1 -1
0.0531916700 -0.1147553790 1 -1
0.0537809420 -0.1180859940 1 -1
0.0534412350 -0.1208667640 1 -1
0.0521954570 -0.1228213590 1 -1
0.0501529720 -0.1237511730 1 -1
0.0475018330 -0.1235551140 1 -1
0.0444924600 -0.1222406180 1 -1
0.0414138330 -0.1199231510 1 -1
