0.0485304530 0.0155278780 1 0
0.0516311840 0.0149196700 1 0
0.0549251940 0.0135432990 1 0
0.0581066380 0.0115119940 1 0
0.0608848730 0.0090044010 1 0
0.0630116190 0.0062486110 1 0
0.0643026670 0.0035016550 1 0
0.0646516420 0.0010251390 1 0
0.0640373960 -0.0009415790 1 0
0.0625277380 -0.0022077620 1 0
0.0602782340 -0.0026528440 1 0
0.0575220500 -0.0022391390 1 0
0.0545487530 -0.0010144290 1 0
0.0516742040 0.0008940480 1 0
0.0492065130 0.0032918780 1 0
0.0474127900 0.0059350670 1 0
0.0464903660 0.0085529450 1 0
0.0465460470 0.0108750810 1 0
0.0475853070 0.0126590880 1 0
0.0495108840 0.0137155160 1 0
0.0521315510 0.0139264510 1 0
0.0551836860 0.0132558600 1 0
0.0583638250 0.0117515140 1 0
0.0613643850 0.0095395880 1 0
0.0639053020 0.0068130130 1 0
0.0657590900 0.0038140960 1 0
0.0667690610 0.0008123770 1 0
0.0668602880 -0.0019201410 1 0
0.0660435910 -0.0041343240 1 0
0.0644141060 -0.0056281660 1 0
0.0621445620 -0.0062676850 1 0
0.0594709630 -0.0060013260 1 0
0.0566693980 -0.0048653740 1 0
0.0540266930 -0.0029802170 1 0
0.0518096870 -0.0005390270 1 0
0.0502373910 0.0022100520 1 0
0.0494598270 0.0049881850 1 0
0.0495463770 0.0075153250 1 0
0.0504833470 0.0095409490 1 0
0.0521785140 0.0108708140 1 0
0.0544710060 0.0113860130 1 0
0.0571456020 0.0110527660 1 0
0.0599507290 0.0099228070 1 0
0.0626200710 0.0081255390 1 0
0.0648977610 0.0058539230 1 0
0.0665652270 0.0033457080 1 0
0.0674649220 0.0008613860 1 0
0.0675162920 -0.0013394150 1 0
0.0667230540 -0.0030216000 1 0
0.0651729680 -0.0039972690 1 0
0.0630300820 -0.0041459540 1 0
0.0605191380 -0.0034299310 1 0
0.0579038270 -0.0019008490 1 0
0.0554619410 0.0003049490 1 0
0.0534590900 0.0029812150 1 0
0.0521216650 0.0058731110 1 0
0.0516117330 0.0087023400 1 0
0.0520082830 0.0111945230 1 0
0.0532981030 0.0131066270 1 0
0.0553770990 0.0142510600 1 0
0.0580607280 0.0145132910 1 0
0.0611017210 0.0138612990 1 0
0.0642136560 0.0123463810 1 0
0.0670985150 0.0100960030 1 0
0.0694755460 0.0073010100 1 0
0.0711091730 0.0041994150 1 0
0.0718336210 0.0010569860 1 0
0.0715700960 -0.0018559230 1 0
0.0703330320 -0.0042899650 1 0
0.0682258810 -0.0060415020 1 0
0.0654297070 -0.0069729080 1 0
0.0621878220 -0.0070263340 1 0
0.0587876360 -0.0062298940 1 0
0.0555380420 -0.0046959020 1 0
0.0527411830 -0.0026107700 1 0
0.0506611920 -0.0002163520 1 0
0.0494947440 0.0022159170 1 0
0.0493475000 0.0044145380 1 0
0.0502203110 0.0061367760 1 0
0.0520088670 0.0071928310 1 0
0.0545169960 0.0074624980 1 0
0.0574796860 0.0069035340 1 0
0.0605912640 0.0055533100 1 0
0.0635350330 0.0035257170 1 0
0.0660114090 0.0010029500 1 0
0.0677637270 -0.0017801620 1 0
0.0686020400 -0.0045602020 1 0
0.0684234940 -0.0070744780 1 0
0.0672258080 -0.0090893890 1 0
0.0651103020 -0.0104222950 1 0
0.0622725040 -0.0109550860 1 0
0.0589808970 -0.0106407580 1 0
0.0555469810 -0.0095050910 1 0
0.0522914510 -0.0076446260 1 0
0.0495107090 -0.0052205190 1 0
0.0474462090 -0.0024471290 1 0
0.0462594880 0.0004246940 1 0
0.0460175890 0.0031286340 1 0
0.0466915950 0.0054074490 1 0
0.0481660870 0.0070397250 1 0
0.0502552700 0.0078653190 1 0
0.0527229620 0.0078045670 1 0
0.0553044060 0.0068675870 1 0
0.0577279890 0.0051531140 1 0
0.0597374300 0.0028389280 1 0
0.0611167190 0.0001657570 1 0
0.0617162730 -0.0025855350 1 0
0.0614730790 -0.0051234860 1 0
0.0604172410 -0.0071793480 1 0
0.0586635610 -0.0085387870 1 0
0.0563936410 -0.0090665980 1 0
0.0538353550 -0.0087204230 1 0
0.0512427530 -0.0075517850 1 0
0.0488764210 -0.0056957320 1 0
0.0469827280 -0.0033527520 1 0
0.0457703300 -0.0007669730 1 0
0.0453859490 0.0017966010 1 0
0.0458956770 0.0040746250 1 0
0.0472768350 0.0058275350 1 0
0.0494209340 0.0068611770 1 0
0.0521456960 0.0070467140 1 0
0.0552132190 0.0063359260 1 0
0.0583517050 0.0047684860 1 0
0.0612795170 0.0024691310 1 0
0.0637309200 -0.0003653200 1 0
0.0654815340 -0.0034875240 1 0
0.0663698890 -0.0066263280 1 0
0.0663117780 -0.0095141040 1 0
0.0653069140 -0.0119111620 1 0
0.0634396860 -0.0136256540 1 0
0.0608747150 -0.0145284650 1 0
0.0578448620 -0.0145629620 1 0
0.0546294720 -0.0137497150 1 0
0.0515252120 -0.0121860870 1 0
0.0488148180 -0.0100402200 1 0
0.0467376740 -0.0075383300 1 0
0.0454657690 -0.0049446280 1 0
0.0450892400 -0.0025354970 1 0
0.0456125770 -0.0005715900 1 0
0.0469586330 0.0007288760 1 0
0.0489774620 0.0012135090 1 0
0.0514589210 0.0008135350 1 0
0.0541495400 -0.0004466870 1 0
0.0567745560 -0.0024508640 1 0
0.0590642860 -0.0050040980 1 0
0.0607815300 -0.0078566680 1 0
0.0617460980 -0.0107328610 1 0
0.0618538610 -0.0133594880 1 0
0.0610888010 -0.0154919630 1 0
0.0595263020 -0.0169372560 1 0
0.0573260460 -0.0175719630 1 0
0.0547148810 -0.0173532330 1 0
0.0519624050 -0.0163218800 1 0
0.0493526460 -0.0145991410 1 0
0.0471544590 -0.0123783900 1 0
0.0455932480 -0.0099103800 1 0
0.0448277600 -0.0074802400 1 0
0.0449353410 -0.0053776570 1 0
0.0459062410 -0.0038650020 1 0
0.0476459560 -0.0031485800 1 0
0.0499854650 -0.0033564460 1 0
0.0526993030 -0.0045247300 1 0
0.0555287020 -0.0065941810 1 0
0.0582044910 -0.0094178950 1 0
0.0604671910 -0.0127789420 1 0
0.0620864030 -0.0164142500 1 0
0.0628811370 -0.0200406070 1 0
0.0627384800 -0.0233804620 1 0
0.0616272720 -0.0261864980 1 0
0.0596054790 -0.0282633500 1 0
0.0568197540 -0.0294841090 1 0
0.0534949560 -0.0297996900 1 0
0.0499137150 -0.0292407890 1 0
0.0463882330 -0.0279134950 1 0
0.0432273790 -0.0259891910 1 0
0.0407042680 -0.0236885860 1 0
0.0390297430 -0.0212603360 1 0
0.0383336180 -0.0189563950 1 0
0.0386529450 -0.0170068590 1 0
0.0399276860 -0.0155970390 1 0
0.0420055920 -0.0148500260 1 0
0.0446570320 -0.0148176620 1 0
0.0475981930 -0.0154798800 1 0
0.0505202930 -0.0167496560 1 0
0.0531223470 -0.0184813470 1 0
0.0551435600 -0.0204824150 1 0
0.0563899950 -0.0225295390 1 0
0.0567516300 -0.0243891790 1 0
0.0562087140 -0.0258415030 1 0
0.0548280670 -0.0267054070 1 0
0.0527516500 -0.0268605760 1 0
0.0501811530 -0.0262618940 1 0
0.0473610680 -0.0249441920 1 0
0.0445601970 -0.0230186140 1 0
0.0420505250 -0.0206623540 1 0
0.0400825490 -0.0181023960 1 0
0.0388582510 -0.0155938770 1 0
0.0385069080 -0.0133943980 1 0
0.0390697580 -0.0117365650 1 0
0.0404955130 -0.0108027740 1 0
0.0426449320 -0.0107063810 1 0
0.0453029840 -0.0114807260 1 0
0.0481990780 -0.0130755370 1 0
0.0510346880 -0.0153608630 1 0
0.0535149720 -0.0181388040 1 0
0.0553801710 -0.0211619920 1 0
0.0564330220 -0.0241564540 1 0
0.0565590080 -0.0268465420 1 0
0.0557373970 -0.0289802030 1 0
0.0540419960 -0.0303529990 1 -1
0.0516315720 -0.0308285690 1 -1
0.0487315260 -0.0303530210 1 -1
0.0456098390 -0.0289620120 1 0
0.0425504490 -0.0267802130 1 0
0.0398263950 -0.0240124100 1 0
0.0376741440 -0.0209253900 1 0
0.0362704960 -0.0178208470 1 0
0.0357144030 -0.0150016800 1 0
0.0360167450 -0.0127372990 1 0
0.0371000440 -0.0112349300 1 0
0.0388081550 -0.0106213240 1 0
0.0409243580 -0.0109351340 1 0
0.0431952370 -0.0121280560 1 0
0.0453573380 -0.0140726510 1 0
0.0471640630 -0.0165752880 1 0
0.0484102730 -0.0193933590 1 0
0.0489519430 -0.0222565420 1 0
0.0487193530 -0.0248916830 1 0
0.0477235220 -0.0270490100 1 0
0.0460555580 -0.0285257510 1 0
0.0438780500 -0.0291840740 1 0
0.0414086080 -0.0289625490 1 0
0.0388975820 -0.0278818000 1 0
0.0366029060 -0.0260444530 1 0
0.0347647220 -0.0236280950 1 0
0.0335821710 -0.0208700690 1 0
0.0331944080 -0.0180452360 1 0
0.0336671160 -0.0154392990 1 0
0.0349857070 -0.0133199450 1 0
0.0370567220 -0.0119086820 1 0
0.0397179950 -0.0113568250 1 0
0.0427553030 -0.0117281220 1 0
0.0459210080 -0.0129897190 1 0
0.0489523120 -0.0150133930 1 0
0.0515907450 -0.0175881890 1 0
0.0536045610 -0.0204431980 1 0
0.0548124420 -0.0232769050 1 0
0.0551050780 -0.0257891670 1 0
0.0544607600 -0.0277125900 1 0
0.0529513220 -0.0288398090 1 0
0.0507363130 -0.0290430110 1 0
0.0480456470 -0.0282841570 1 0
0.0451532940 -0.0266174840 1 0
0.0423470620 -0.0241855950 1 0
0.0398999900 -0.0212078490 1 0
0.0380455490 -0.0179597260 1 0
0.0369562130 -0.0147451660 1 0
0.0367271650 -0.0118662140 1 0
0.0373683340 -0.0095940440 1 0
0.0388049700 -0.0081436660 1 0
0.0408851430 -0.0076533940 1 0
0.0433938430 -0.0081704880 1 0
0.0460735310 -0.0096453540 1 0
0.0486495880 -0.0119361680 1 0
0.0508580810 -0.0148237420 1 0
0.0524724970 -0.0180343540 1 0
0.0533257580 -0.0212673570 1 0
0.0533249370 -0.0242244920 1 0
0.0524586940 -0.0266382110 1 0
0.0507990460 -0.0282965120 1 0
0.0484973490 -0.0290614550 1 0
0.0457722900 -0.0288794250 1 0
0.0428889910 -0.0277835230 1 0
0.0401311250 -0.0258898390 1 0
0.0377700740 -0.0233881490 1 0
0.0360365930 -0.0205261570 1 0
0.0350996160 -0.0175871110 1 0
0.0350531290 -0.0148626880 1 0
0.0359090480 -0.0126245600 1 0
0.0375942500 -0.0110977730 1 0
0.0399525070 -0.0104381300 1 0
0.0427544350 -0.0107153760 1 0
0.0457177360 -0.0119041600 1 0
0.0485365120 -0.0138847170 1 0
0.0509151400 -0.0164542720 1 0
0.0526009150 -0.0193488340 1 0
0.0534106290 -0.0222735100 1 0
0.0532484110 -0.0249370280 1 0
0.0521139090 -0.0270835990 1 0
0.0501009820 -0.0285166010 1 0
0.0473872710 -0.0291132660 1 0
0.0442154310 -0.0288326670 1 0
0.0408686730 -0.0277183060 1 0
0.0376442640 -0.0258942290 1 0
0.0348273970 -0.0235532170 1 0
0.0326665590 -0.0209371480 1 0
0.0313514270 -0.0183116910 1 0
0.0309942470 -0.0159392750 1 0
0.0316167560 -0.0140539240 1 0
0.0331462410 -0.0128395650 1 0
0.0354230120 -0.0124127130 1 0
0.0382181640 -0.0128109480 1 0
0.0412583990 -0.0139888860 1 0
0.0442537680 -0.0158229300 1 0
0.0469243380 -0.0181243270 1 0
0.0490240150 -0.0206584450 1 0
0.0503611870 -0.0231680280 1 0
0.0508151910 -0.0253985400 1 0
0.0503475440 -0.0271234610 1 0
0.0490073200 -0.0281671960 1 0
0.0469291320 -0.0284228320 1 0
0.0443214900 -0.0278619150 1 0
0.0414452400 -0.0265349210 1 0
0.0385852420 -0.0245636830 1 0
0.0360199690 -0.0221281130 1 0
0.0339929630 -0.0194491710 1 0
0.0326896450 -0.0167697530 1 0
0.0322218220 -0.0143345300 1 0
0.0326192030 -0.0123691170 1 0
0.0338261700 -0.0110595390 1 0
0.0357045560 -0.0105337690 1 0
0.0380454910 -0.0108471090 1 0
0.0405915420 -0.0119731780 1 0
0.0430654660 -0.0138025430 1 0
0.0451995350 -0.0161507630 1 0
0.0467622330 -0.0187757400 1 0
0.0475816660 -0.0214020900 1 0
0.0475631210 -0.0237493870 1 0
0.0466968320 -0.0255616290 1 0
0.0450558220 -0.0266352860 1 0
0.0427876340 -0.0268425870 1 0
0.0401021570 -0.0261467060 1 0
0.0372546820 -0.0246060070 1 0
0.0345236280 -0.0223661820 1 0
0.0321844770 -0.0196423960 1 0
0.0304822270 -0.0166954310 1 0
0.0296052520 -0.0138046860 0 0
0.0296641880 -0.0112400800 0 0
0.0306785780 -0.0092361210 1 0
0.0325724960 -0.0079713530 1 0
0.0351799420 -0.0075545650 1 0
0.0382603580 -0.0080182160 1 0
0.0415233700 -0.0093185210 1 0
0.0446601400 -0.0113402330 1 0
0.0473763910 -0.0139047390 1 0
0.0494215940 -0.0167825950 1 0
0.0506106410 -0.0197120960 1 0
0.0508368590 -0.0224231520 1 0
0.0500778870 -0.0246632270 1 0
0.0483971910 -0.0262216650 1 0
0.0459416910 -0.0269502210 1 0
0.0429325500 -0.0267790460 1 0
0.0396465190 -0.0257265050 1 0
0.0363893700 -0.0238992940 1 0
0.0334654890 -0.0214804510 1 0
0.0311468760 -0.0187067640 1 0
0.0296443980 -0.0158399590 0 0
0.0290855100 -0.0131370200 0 0
0.0295025050 -0.0108244020 0 0
0.0308325320 -0.0090787560 1 0
0.0329279400 -0.0080145390 1 0
0.0355738790 -0.0076779230 1 0
0.0385096280 -0.0080465170 1 0
0.0414517640 -0.0090343590 1 0
0.0441195180 -0.0105010710 1 0
0.0462614760 -0.0122639990 1 0
0.0476803850 -0.0141128830 1 0
0.0482533040 -0.0158271750 1 0
0.0479450750 -0.0171958930 1 0
0.0468118540 -0.0180389620 1 0
0.0449926970 -0.0182279410 1 0
0.0426914380 -0.0177035760 1 0
0.0401537450 -0.0164873290 1 0
0.0376431010 -0.0146836850 1 0
0.0354163850 -0.0124709040 1 0
0.0336991630 -0.0100807010 1 0
0.0326635830 -0.0077707110 1 0
0.0324122460 -0.0057949280 1 0
0.0329685830 -0.0043764790 1 0
0.0342733890 -0.0036851740 1 0
0.0361888930 -0.0038206360 1 0
0.0385116500 -0.0048016460 1 0
0.0409927480 -0.0065634250 1 0
0.0433624240 -0.0089645650 1 0
0.0453572970 -0.0118026610 1 0
0.0467482700 -0.0148347050 1 0
0.0473651250 -0.0177986400 1 0
0.0471130630 -0.0204347410 1 0
0.0459791750 -0.0225062640 1 0
0.0440311090 -0.0238185490 1 0
0.0414112870 -0.0242361010 1 0
0.0383269750 -0.0236966500 1 0
0.0350347390 -0.0222198790 1 0
0.0318189050 -0.0199086980 1 0
0.0289649620 -0.0169427650 0 0
0.0267301760 -0.0135647260 0 0
0.0253152040 -0.0100599270 0 0
0.0248407130 -0.0067311210 0 0
0.0253324980 -0.0038703700 0 0
0.0267180930 -0.0017305050 0 0
0.0288354320 -0.0004990050 0 0
0.0314508990 -0.0002776260 1 0
0.0342836530 -0.0010704820 1 0
0.0370337500 -0.0027817960 1 0
0.0394113100 -0.0052242620 1 0
0.0411640970 -0.0081389520 1 0
0.0421015560 -0.0112250200 1 0
0.0421135810 -0.0141737120 1 0
0.0411820040 -0.0167006240 1 0
0.0393828390 -0.0185729270 1 0
0.0368788740 -0.0196300110 1 0
0.0339044560 -0.0197956520 1 0
0.0307447210 -0.0190807050 1 0
0.0277103990 -0.0175780480 0 0
0.0251085510 -0.0154523680 0 0
0.0232103400 -0.0129252870 0 0
0.0222191810 -0.0102549050 0 0
0.0222452290 -0.0077103980 0 0
0.0232922890 -0.0055448080 0 0
0.0252594810 -0.0039696730 0 0
0.0279555280 -0.0031342990 0 0
0.0311219650 -0.0031119900 1 0
0.0344612630 -0.0038946040 1 0
0.0376653660 -0.0053952740 1 0
0.0404416200 -0.0074579790 1 0
0.0425357540 -0.0098726610 1 0
0.0437526680 -0.0123953750 1 0
0.0439746590 -0.0147726500 1 0
0.0431751340 -0.0167674240 1 0
0.0414253440 -0.0181830390 1 0
0.0388912490 -0.0188827430 1 0
0.0358179910 -0.0188031440 1 0
0.0325030750 -0.0179598120 1 0
0.0292630390 -0.0164441740 0 0
0.0263988250 -0.0144133600 0 0
0.0241649660 -0.0120753600 0 0
0.0227471910 -0.0096702050 0 0
0.0222503980 -0.0074473930 0 0
0.0226958010 -0.0056411990 0 0
0.0240245320 -0.0044463320 0 0
0.0261049270 -0.0039965060 0 0
0.0287423570 -0.0043485360 0 0
0.0316925310 -0.0054741240 1 0
0.0346792820 -0.0072609840 1 0
0.0374169220 -0.0095245640 1 0
0.0396377120 -0.0120296330 1 0
0.0411237290 -0.0145174710 1 0
0.0417373280 -0.0167329960 1 0
0.0414413060 -0.0184485760 1 0
0.0403034000 -0.0194842970 1 0
0.0384861250 -0.0197242260 1 0
0.0362259360 -0.0191263070 1 0
0.0338047340 -0.0177245990 1 0
0.0315160160 -0.0156256670 1 0
0.0296296920 -0.0130013890 0 0
0.0283614420 -0.0100778640 0 0
0.0278519200 -0.0071179470 0 0
0.0281585070 -0.0043959580 0 0
0.0292583550 -0.0021672510 0 0
0.0310580150 -0.0006392000 1 0
0.0334044260 0.0000498780 1 0
0.0360944840 -0.0001583950 1 0
0.0388849140 -0.0012397750 1 0
0.0415082810 -0.0030905540 1 0
0.0436992670 -0.0055358620 1 0
0.0452278680 -0.0083432060 1 0
0.0459304570 -0.0112416610 1 0
0.0457300020 -0.0139464700 1 0
0.0446409940 -0.0161869410 1 0
0.0427602550 -0.0177341260 1 0
0.0402498410 -0.0184246970 1 0
0.0373181560 -0.0181782700 1 0
0.0342019260 -0.0170061430 1 0
0.0311498870 -0.0150101650 1 0
0.0284082080 -0.0123716750 0 0
0.0262052510 -0.0093320120 0 0
0.0247327520 -0.0061672270 0 0
0.0241238850 -0.0031599720 0 0
0.0244330480 -0.0005713100 0 0
0.0256237790 0.0013841950 0 0
0.0275692500 0.0025568600 0 0
0.0300654840 0.0028729790 1 0
0.0328533500 0.0023400630 1 0
0.0356451060 0.0010469900 1 0
0.0381537150 -0.0008423030 1 0
0.0401234940 -0.0031036720 1 0
0.0413582330 -0.0054763240 1 0
0.0417411940 -0.0076917250 1 0
0.0412438010 -0.0095021430 1 0
0.0399246640 -0.0107044300 1 0
0.0379223050 -0.0111582160 1 0
0.0354422380 -0.0107990260 1 0
0.0327371990 -0.0096451500 1 0
0.0300811750 -0.0077963760 1 0
0.0277407910 -0.0054242080 0 0
0.0259488880 -0.0027547810 0 0
0.0248839220 -0.0000464278 0 0
0.0246558700 0.0024360620 0 0
0.0252975090 0.0044480890 0 0
0.0267605820 0.0057892420 0 0
0.0289176980 0.0063215530 0 0
0.0315718090 0.0059814040 1 0
0.0344743730 0.0047859160 1 0
0.0373498180 0.0028336590 1 0
0.0399220610 0.0002979360 1 0
0.0419411510 -0.0025888480 1 0
0.0432096560 -0.0055585150 1 0
0.0436055140 -0.0083345220 1 0
0.0430953160 -0.0106593750 1 0
0.0417350320 -0.0123186590 1 0
0.0396613980 -0.0131596130 1 0
0.0370785220 -0.0131041380 1 0
0.0342402120 -0.0121570860 1 0
0.0314266090 -0.0104094720 1 0
0.0289162040 -0.0080341800 0 0
0.0269569510 -0.0052716820 0 0
0.0257406140 -0.0024061430 0 0
0.0253829130 0.0002647020 0 0
0.0259106410 0.0024617850 0 0
0.0272572240 0.0039548770 0 0
0.0292687580 0.0045865720 0 0
0.0317211980 0.0042876290 1 0
0.0343467000 0.0030832160 1 0
0.0368644890 0.0010898400 1 0
0.0390106600 -0.0014975870 1 0
0.0405625460 -0.0044275110 1 0
0.0413560380 -0.0074185580 1 0
0.0412971180 -0.0101869790 1 0
0.0403694920 -0.0124725490 1 0
0.0386379930 -0.0140625750 1 0
0.0362453740 -0.0148125500 1 0
0.0334007590 -0.0146599200 1 0
0.0303604130 -0.0136276620 1 0
0.0274027450 -0.0118177850 0 0
0.0247993390 -0.0093978920 0 0
0.0227855060 -0.0065837790 0 0
0.0215362930 -0.0036193500 0 0
0.0211518610 -0.0007551810 0 0
0.0216508800 0.0017722220 0 0
0.0229693680 0.0037593690 0 0
0.0249660640 0.0050528590 0 0
0.0274369000 0.0055633010 0 0
0.0301369640 0.0052735290 1 0
0.0328045880 0.0042393090 1 0
0.0351841510 0.0025821720 1 0
0.0370476170 0.0004754400 1 0
0.0382147810 -0.0018734730 1 0
0.0385702090 -0.0042413180 1 0
0.0380739760 -0.0064072230 1 0
0.0367640590 -0.0081716740 1 0
0.0347508450 -0.0093755140 1 0
0.0322062470 -0.0099166010 1 0
0.0293492350 -0.0097615150 0 0
0.0264290010 -0.0089501200 0 0
0.0237067170 -0.0075921560 0 0
0.0214348130 -0.0058563960 0 0
0.0198317840 -0.0039530550 0 0
0.0190542260 -0.0021104570 0 0
0.0191727480 -0.0005485940 0 0
0.0201600220 0.0005461590 0 0
0.0218952620 0.0010408440 0 0
0.0241819760 0.0008680120 0 0
0.0267720370 0.0000308895 0 0
0.0293924180 -0.0013963680 0 0
0.0317734570 -0.0032731590 1 0
0.0336758020 -0.0054037780 1 0
0.0349131810 -0.0075570510 1 0
0.0353699590 -0.0094924120 1 0
0.0350120140 -0.0109878100 1 0
0.0338893460 -0.0118644110 1 0
0.0321306030 -0.0120048550 1 0
0.0299296050 -0.0113644430 0 0
0.0275236480 -0.0099757480 0 0
0.0251663600 -0.0079466900 0 0
0.0231005540 -0.0054514830 0 0
0.0215353100 -0.0027144060 0 0
0.0206284820 0.0000119458 0 0
0.0204738860 0.0024714110 0 0
0.0210919810 0.0044299910 0 0
0.0224244120 0.0057001900 0 0
0.0243356550 0.0061607590 0 0
0.0266251360 0.0057693950 0 0
0.0290491350 0.0045674620 0 0
0.0313483630 0.0026763510 1 0
0.0332767220 0.0002856560 1 0
0.0346280000 -0.0023656170 1 0
0.0352583730 -0.0050123130 1 0
0.0351021040 -0.0073879690 1 0
0.0341771400 -0.0092497280 1 0
0.0325797620 -0.0104023640 1 0
0.0304709980 -0.0107185290 1 0
0.0280585780 -0.0101516800 0 0
0.0255776670 -0.0087399010 0 0
0.0232716780 -0.0066010710 0 0
0.0213721480 -0.0039213900 0 0
0.0200774110 -0.0009396430 0 0
0.0195330350 0.0020720160 0 0
0.0198170720 0.0048310770 0 0
0.0209311610 0.0070710320 0 0
0.0227977690 0.0085693620 0 0
0.0252638100 0.0091735200 0 0
0.0281110590 0.0088193740 0 0
0.0310740420 0.0075376920 1 0
0.0338647590 0.0054486980 1 0
0.0362010870 0.0027477430 1 0
0.0378347430 -0.0003152480 1 0
0.0385761480 -0.0034612050 1 0
0.0383147510 -0.0064100890 1 0
0.0370331370 -0.0089079660 1 0
0.0348128420 -0.0107495040 1 0
0.0318300330 -0.0117949310 1 0
0.0283402960 -0.0119816300 0 0
0.0246540860 -0.0113292740 0 0
0.0211063880 -0.0099367920 0 0
0.0180239740 -0.0079711800 0 0
0.0156922770 -0.0056498360 0 0
0.0143245370 -0.0032187680 0 0
0.0140377110 -0.0009296950 0 0
0.0148389260 0.0009820630 0 0
0.0166238840 0.0023190780 0 0
0.0191880340 0.0029420450 0 0
0.0222505110 0.0027855050 0 0
0.0254876850 0.0018657050 0 0
0.0285703210 0.0002791240 0 0
0.0311976390 -0.0018082690 1 0
0.0331233050 -0.0041791350 1 0
0.0341722430 -0.0065866770 1 0
0.0342511800 -0.0087778250 1 0
0.0333562270 -0.0105175230 1 0
0.0315766820 -0.0116133410 1 0
0.0290906120 -0.0119368350 0 0
0.0261490200 -0.0114375180 0 0
0.0230495830 -0.0101478280 0 0
0.0201044910 -0.0081798500 0 0
0.0176079320 -0.0057148110 0 0
0.0158073810 -0.0029857990 0 0
0.0148811750 -0.0002544470 0 0
0.0149231260 0.0022162560 0 0
0.0159332940 0.0041896670 0 0
0.0178151630 0.0054800420 0 0
0.0203821540 0.0059707210 0 0
0.0233758840 0.0056243220 0 0
0.0264949750 0.0044848230 0 0
0.0294304260 0.0026717940 0 0
0.0319017260 0.0003674360 1 0
0.0336863910 -0.0022015630 1 0
0.0346380500 -0.0047849650 1 0
0.0346936930 -0.0071313600 1 0
0.0338729750 -0.0090106340 1 0
0.0322720350 -0.0102345260 1 0
0.0300542610 -0.0106743100 1 0
0.0274380010 -0.0102753910 0 0
0.0246786510 -0.0090663740 0 0
0.0220448940 -0.0071584110 0 0
0.0197922470 -0.0047335350 0 0
0.0181366640 -0.0020252330 0 0
0.0172306170 0.0007043480 0 0
0.0171456710 0.0031884870 0 0
0.0178655690 0.0051812380 0 0
0.0192909100 0.0064826940 0 0
0.0212529880 0.0069601230 0 0
0.0235327130 0.0065611300 0 0
0.0258822570 0.0053179990 0 0
0.0280488330 0.0033440580 0 0
0.0297989720 0.0008228290 0 0
0.0309407880 -0.0020092200 1 0
0.0313425680 -0.0048847880 1 0
0.0309460940 -0.0075305340 1 0
0.0297729290 -0.0096922570 0 0
0.0279228100 -0.0111590900 0 0
0.0255642840 -0.0117855060 0 0
0.0229183510 -0.0115078120 0 0
0.0202369500 -0.0103511340 0 0
0.0177791940 -0.0084262580 0 0
0.0157876910 -0.0059185230 0 0
0.0144653340 -0.0030702010 0 0
0.0139525880 -0.0001574880 0 0
0.0143081710 0.0025351710 0 0
0.0154988970 0.0047412990 0 0
0.0174027660 0.0062389370 0 0
0.0198244130 0.0068759740 0 0
0.0225188640 0.0065895220 0 0
0.0252194310 0.0054138300 0 0
0.0276655230 0.0034742740 0 0
0.0296263990 0.0009697050 0 0
0.0309192580 -0.0018511980 1 0
0.0314221790 -0.0047144940 1 0
0.0310828820 -0.0073451360 1 0
0.0299245180 -0.0094918190 0 0
0.0280485780 -0.0109520160 0 0
0.0256308710 -0.0115934670 0 0
0.0229056540 -0.0113674190 0 0
0.0201398270 -0.0103111610 0 0
0.0176048150 -0.0085409240 0 0
0.0155510800 -0.0062381460 0 0
0.0141858650 -0.0036314450 0 0
0.0136541040 -0.0009755570 0 0
0.0140235290 0.0014719570 0 0
0.0152762270 0.0034752690 0 0
0.0173096960 0.0048439320 0 0
0.0199488050 0.0054523750 0 0
0.0229655220 0.0052527930 0 0
0.0261004510 0.0042804760 0 0
0.0290827500 0.0026509950 0 0
0.0316493810 0.0005492060 1 0
0.0335667040 -0.0017892170 1 0
0.0346556940 -0.0041028420 1 0
0.0348163600 -0.0061340770 1 0
0.0340423300 -0.0076585830 1 0
0.0324205370 -0.0085092860 1 0
0.0301189310 -0.0085921320 1 0
0.0273677310 -0.0078925680 0 0
0.0244372070 -0.0064727110 0 0
0.0216128350 -0.0044614290 0 0
0.0191686360 -0.0020412400 0 0
0.0173408660 0.0005660690 0 0
0.0163045080 0.0031167900 0 0
0.0161545230 0.0053671190 0 0
0.0168937850 0.0070973480 0 0
0.0184301680 0.0081343930 0 0
0.0205852780 0.0083693170 0 0
0.0231156880 0.0077677810 0 0
0.0257434310 0.0063725640 0 0
0.0281887480 0.0042988340 0 0
0.0301985360 0.0017241760 1 0
0.0315671120 -0.0011252440 1 0
0.0321490480 -0.0039929190 1 0
0.0318661070 -0.0066151370 1 0
0.0307106570 -0.0087468080 1 0
0.0287467260 -0.0101859780 0 0
0.0261086370 -0.0107937160 0 0
0.0229955290 -0.0105074710 0 0
0.0196595400 -0.0093467590 0 0
0.0163868940 -0.0074108630 0 0
0.0134723120 -0.0048691710 0 0
0.0111876870 -0.0019451480 0 0
0.0097482170 0.0011046940 0 0
0.0092827270 0.0040144480 0 0
0.0098158630 0.0065325920 0 0
0.0112664510 0.0084448260 0 0
0.0134614600 0.0095950560 0 0
0.0161612930 0.0099015230 0 0
0.0190899240 0.0093644980 0 0
0.0219635230 0.0080648290 0 0
0.0245141310 0.0061555990 0 0
0.0265079870 0.0038486860 0 0
0.0277602930 0.0013955490 0 0
0.0281495660 -0.0009384020 0 0
0.0276327150 -0.0029036530 0 0
0.0262562260 -0.0042959120 0 0
0.0241559170 -0.0049795530 0 0
0.0215433810 -0.0049013240 0 0
0.0186849490 -0.0040931480 0 0
0.0158779070 -0.0026653330 0 0
0.0134217240 -0.0007926990 0 0
0.0115825580 0.0013040240 0 0
0.0105577820 0.0033798860 0 0
0.0104506530 0.0051892460 0 0
0.0112603880 0.0065099070 0 0
0.0128876890 0.0071659070 0 0
0.0151524980 0.0070458150 0 0
0.0178187290 0.0061137750 0 0
0.0206207410 0.0044128220 0 0
0.0232882900 0.0020615770 0 0
0.0255690120 -0.0007551720 0 0
0.0272486600 -0.0038022440 0 0
0.0281691700 -0.0068152020 0 0
0.0282434820 -0.0095242620 0 0
0.0274646410 -0.0116785170 0 0
0.0259064850 -0.0130692070 0 0
0.0237146910 -0.0135509080 0 0
0.0210898070 -0.0130586380 0 0
0.0182665600 -0.0116183610 0 0
0.0154935120 -0.0093485710 0 0
0.0130142410 -0.0064511850 0 0
0.0110489250 -0.0031912030 0 0
0.0097751370 0.0001324170 0 0
0.0093080920 0.0032192520 0 0
0.0096830350 0.0057979350 0 0
0.0108451040 0.0076513010 0 0
0.0126525020 0.0086345900 0 0
0.0148948630 0.0086865200 0 0
0.0173212130 0.0078334210 0 0
0.0196682230 0.0061854780 0 0
0.0216846880 0.0039241330 0 0
0.0231537290 0.0012822970 0 0
0.0239123520 -0.0014786880 0 0
0.0238650160 -0.0040922300 0 0
0.0229903830 -0.0063086760 0 0
0.0213431610 -0.0079165370 0 0
0.0190509150 -0.0087623700 0 0
0.0163045650 -0.0087673480 0 0
0.0133434710 -0.0079373120 0 0
0.0104359110 -0.0063635550 0 0
0.0078540410 -0.0042136790 0 0
0.0058447380 -0.0017141660 0 0
0.0046017260 0.0008726760 0 0
0.0042445980 0.0032747250 0 0
0.0048064770 0.0052365280 0 0
0.0062295070 0.0065445170 0 0
0.0083692180 0.0070495760 0 0
0.0110100690 0.0066843920 0 0
0.0138904040 0.0054719100 0 0
0.0167300750 0.0035226520 0 0
0.0192548290 0.0010216210 0 0
0.0212176600 -0.0017923990 0 0
0.0224203990 -0.0046518080 0 0
0.0227355430 -0.0072863960 0 0
0.0221247180 -0.0094485220 0 0
0.0206487480 -0.0109356290 0 0
0.0184640390 -0.0116085200 0 0
0.0158037230 -0.0114034740 0 0
0.0129479660 -0.0103369180 0 0
0.0101898700 -0.0085031290 0 0
0.0078028420 -0.0060662200 0 0
0.0060151090 -0.0032468180 0 0
0.0049943490 -0.0003033270 0 0
0.0048399570 0.0024912650 0 0
0.0055777400 0.0048748120 0 0
0.0071543280 0.0066212190 0 0
0.0094339750 0.0075632060 0 0
0.0122044420 0.0076107440 0 0
0.0151964820 0.0067630740 0 0
0.0181141860 0.0051119500 0 0
0.0206689320 0.0028345230 0 0
0.0226110210 0.0001757180 0 0
0.0237556890 -0.0025786230 0 0
0.0240007430 -0.0051344010 0 0
0.0233336690 -0.0072220460 0 0
0.0218287770 -0.0086243650 0 0
0.0196366380 -0.0091972320 0 0
0.0169669730 -0.0088823750 0 0
0.0140661250 -0.0077111540 0 0
0.0111922810 -0.0057989650 0 0
0.0085925640 -0.0033316090 0 0
0.0064846990 -0.0005457220 0 0
0.0050432380 0.0022945320 0 0
0.0043879400 0.0049223610 0 0
0.0045723070 0.0070931710 0 0
0.0055738720 0.0086080010 0 0
0.0072911650 0.0093333940 0 0
0.0095507070 0.0092143120 0 0
0.0121227290 0.0082777740 0 0
0.0147430260 0.0066281120 0 0
0.0171397770 0.0044362600 0 0
0.0190633660 0.0019242890 0 0
0.0203141250 -0.0006547170 0 0
0.0207619790 -0.0030405920 0 0
0.0203554500 -0.0049914530 0 0
0.0191221530 -0.0063081400 0 0
0.0171648170 -0.0068558420 0 0
0.0146553320 -0.0065799940 0 0
0.0118252920 -0.0055126060 0 0
0.0089485860 -0.0037675190 0 0
0.0063145510 -0.0015263670 0 0
0.0041959330 0.0009818050 0 0
0.0028176560 0.0035044940 0 0
0.0023310560 0.0057904380 0 0
0.0027967810 0.0076130270 0 0
0.0041782610 0.0087911740 0 0
0.0063464220 0.0092056720 0 0
0.0090945670 0.0088086420 0 0
0.0121609110 0.0076260640 0 0
0.0152560370 0.0057552240 0 0
0.0180922260 0.0033573350 0 0
0.0204112620 0.0006445050 0 0
0.0220085150 -0.0021385530 0 0
0.0227522140 -0.0047367910 0 0
0.0225961300 -0.0069091360 0 0
0.0215829340 -0.0084517690 0 0
0.0198369120 -0.0092175430 0 0
0.0175476680 -0.0091303770 0 0
0.0149485910 -0.0081942430 0 0
0.0122938490 -0.0064955160 0 0
0.0098354980 -0.0041969000 0 0
0.0078003300 -0.0015223040 0 0
0.0063675340 0.0012657050 0 0
0.0056516160 0.0038928360 0 0
0.0056950080 0.0061012440 0 0
0.0064698970 0.0076756240 0 0
0.0078849430 0.0084638920 0 0
0.0097934250 0.0083903680 0 0
0.0120023960 0.0074613960 0 0
0.0142844250 0.0057641830 0 0
0.0163944590 0.0034592770 0 0
0.0180929170 0.0007669410 0 0
0.0191720730 -0.0020525300 0 0
0.0194801340 -0.0047240550 0 0
0.0189385690 -0.0069860900 0 0
0.0175508160 -0.0086183120 0 0
0.0154027830 -0.0094655830 0 0
0.0126566130 -0.0094551170 0 0
0.0095381570 -0.0086035680 0 0
0.0063179880 -0.0070131480 0 0
0.0032865890 -0.0048588060 0 0
0.0007244830 -0.0023686950 0 0
-0.0011305670 0.0002004940 0 0
-0.0021137990 0.0025902000 0 0
-0.0021539570 0.0045644320 0 0
-0.0012797360 0.0059300920 0 0
0.0003866450 0.0065534510 0 0
0.0026442310 0.0063722930 0 0
0.0052336820 0.0054023280 0 0
0.0078635510 0.0037366850 0 0
0.0102418720 0.0015378290 0 0
0.0121083700 -0.0009777220 0 0
0.0132613950 -0.0035602790 0 0
0.0135766330 -0.0059515740 0 0
0.0130174880 -0.0079109000 0 0
0.0116373600 -0.0092399530 0 0
0.0095731020 -0.0098033440 0 0
0.0070296310 -0.0095425130 0 0
0.0042581820 -0.0084816710 0 0
0.0015317680 -0.0067247380 0 0
-0.0008798450 -0.0044432740 0 0
-0.0027351530 -0.0018573930 0 0
-0.0038453060 0.0007869360 0 0
-0.0040950090 0.0032410700 0 0
-0.0034552020 0.0052755880 0 0
-0.0019841150 0.0066999170 0 0
0.0001822120 0.0073787520 0 0
0.0028450770 0.0072447130 0 0
0.0057605920 0.0063069000 0 0
0.0086603650 0.0046534670 0 0
0.0112766280 0.0024451040 0 0
0.0133695850 -0.0001011960 0 0
0.0147520130 -0.0027346250 0 0
0.0153066490 -0.0051947860 0 0
0.0149943450 -0.0072354020 0 0
0.0138540340 -0.0086475030 0 0
0.0119975570 -0.0092812020 0 0
0.0096002990 -0.0090629030 0 0
0.0068864280 -0.0080045030 0 0
0.0041102580 -0.0062030290 0 0
0.0015373760 -0.0038308740 0 0
-0.0005748010 -0.0011179850 0 0
-0.0019999460 0.0016717100 0 0
-0.0025680660 0.0042668180 0 0
-0.0021879410 0.0064151510 0 0
-0.0008625530 0.0079082360 0 0
0.0013047700 0.0086016490 0 0
0.0041159970 0.0084292170 0 0
0.0072970270 0.0074098440 0 0
0.0105264480 0.0056465150 0 0
0.0134702530 0.0033168730 0 0
0.0158198500 0.0006553220 0 0
0.0173295690 -0.0020714120 0 0
0.0178465770 -0.0045918270 0 0
0.0173263110 -0.0066568640 0 0
0.0158317430 -0.0080637950 0 0
0.0135205690 -0.0086741720 0 0
0.0106258830 -0.0084243730 0 0
0.0074333660 -0.0073294620 0 0
0.0042555960 -0.0054821360 0 0
0.0014041730 -0.0030468440 0 0
-0.0008386240 -0.0002471320 0 0
-0.0022468470 0.0026545630 0 0
-0.0026737570 0.0053825150 0 0
-0.0020664560 0.0076754450 0 0
-0.0004708590 0.0093139820 0 0
0.0019709710 0.0101454440 0 0
0.0050316480 0.0101021190 0 0
0.0084203390 0.0092092540 0 0
0.0118135870 0.0075813650 0 0
0.0148884960 0.0054077900 0 0
0.0173542580 0.0029299180 0 0
0.0189810660 0.0004135610 0 0
0.0196239360 -0.0018801530 0 0
0.0192374790 -0.0037220150 0 0
0.0178793510 -0.0049361580 0 0
0.0157023490 -0.0054128200 0 0
0.0129360800 -0.0051131230 0 0
0.0098612860 -0.0040691810 0 0
0.0067811490 -0.0023814350 0 0
0.0039918410 -0.0002119390 0 0
0.0017535790 0.0022286670 0 0
0.0002654760 0.0047009810 0 0
-0.0003519700 0.0069612120 0 0
-0.0000654677 0.0087864100 0 0
0.0010704980 0.0099974800 0 0
0.0029196100 0.0104776850 0 0
0.0052752440 0.0101842970 0 0
0.0078776000 0.0091513530 0 0
0.0104364190 0.0074836460 0 0
0.0126587630 0.0053447500 0 0
0.0142808230 0.0029419060 0 0
0.0150999020 0.0005085350 0 0
0.0149994200 -0.0017155030 0 0
0.0139617360 -0.0035054080 0 0
0.0120688520 -0.0046737980 0 0
0.0094931080 -0.0050915610 0 0
0.0064786940 -0.0047037280 0 0
0.0033154630 -0.0035374220 0 0
0.0003092780 -0.0017001700 0 0
-0.0022464650 0.0006312340 0 0
-0.0040966220 0.0032289270 0 0
-0.0050481660 0.0058360940 0 0
-0.0049917220 0.0081909010 0 0
-0.0039176510 0.0100513140 0 0
-0.0019220620 0.0112198820 0 0
0.0008007670 0.0115661680 0 0
0.0039793940 0.0110429640 0 0
0.0072957080 0.0096924860 0 0
0.0104193710 0.0076409710 0 0
0.0130406430 0.0050833000 0 0
0.0148983490 0.0022612080 0 0
0.0158031230 -0.0005613580 0 0
0.0156558360 -0.0031228460 0 0
0.0144578140 -0.0051868840 0 0
0.0123091090 -0.0065628730 0 0
0.0093952270 -0.0071236370 0 0
0.0059665730 -0.0068177730 0 0
0.0023154240 -0.0056743180 0 0
-0.0012471670 -0.0037995540 0 0
-0.0044151920 -0.0013667040 0 0
-0.0069129440 0.0014011900 0 0
-0.0085201670 0.0042537560 0 0
-0.0090948060 0.0069374380 0 0
-0.0085910960 0.0092173340 0 0
-0.0070689370 0.0108951250 0 0
-0.0046898700 0.0118239170 0 0
-0.0016987270 0.0119212670 0 0
0.0016045630 0.0111794600 0 0
0.0048963680 0.0096696500 0 0
0.0078598460 0.0075370410 0 0
0.0102136620 0.0049873460 0 0
0.0117378360 0.0022671380 0 0
0.0122939850 -0.0003590730 0 0
0.0118378750 -0.0026331970 0 0
0.0104234740 -0.0043284760 0 0
0.0081974830 -0.0052739270 0 0
0.0053835280 -0.0053753770 0 0
0.0022579610 -0.0046290020 0 0
-0.0008780470 -0.0031242320 0 0
-0.0037263820 -0.0010346700 0 0
-0.0060182310 0.0014023950 0 0
-0.0075372670 0.0039148440 0 0
-0.0081388550 0.0062276750 0 0
-0.0077649380 0.0080924850 0 0
-0.0064517670 0.0093110120 0 0
-0.0043268870 0.0097522030 0 0
-0.0015962810 0.0093634560 0 0
0.0014744930 0.0081753270 0 0
0.0045844560 0.0062978540 0 0
0.0074273890 0.0039082290 0 0
0.0097249160 0.0012318550 0 0
0.0112568580 -0.0014799670 0 0
0.0118841720 -0.0039724960 0 0
0.0115615110 -0.0060085590 0 0
0.0103392240 -0.0073884450 0 0
0.0083563740 -0.0079688190 0 0
0.0058251480 -0.0076792150 0 0
0.0030078410 -0.0065332390 0 0
0.0001902440 -0.0046311220 0 0
-0.0023458170 -0.0021515770 0 0
-0.0043501050 0.0006664450 0 0
-0.0056292600 0.0035494710 0 0
-0.0060653660 0.0062189110 0 0
-0.0056252820 0.0084204060 0 0
-0.0043614670 0.0099500160 0 0
-0.0024064120 0.0106738960 0 0
0.0000386108 0.0105385200 0 0
0.0027211370 0.0095713380 0 0
0.0053614460 0.0078745460 0 0
0.0076813230 0.0056144860 0 0
0.0094343080 0.0030079730 0 0
0.0104322630 0.0003057480 0 0
0.0105641900 -0.0022277220 0 0
0.0098068840 -0.0043382440 0 0
0.0082284870 -0.0058075360 0 0
0.0059841430 -0.0064768520 0 0
0.0033016890 -0.0062655160 0 0
0.0004575880 -0.0051825120 0 0
-0.0022531340 -0.0033290520 0 0
-0.0045481850 -0.0008891970 0 0
-0.0061872850 0.0018919790 0 0
-0.0069969780 0.0047385420 0 0
-0.0068879900 0.0073755510 0 0
-0.0058630230 0.0095571490 0 0
-0.0040150740 0.0110881710 0 0
-0.0015177180 0.0118389930 0 0
0.0013908790 0.0117544730 0 0
0.0044283720 0.0108575420 0 0
0.0072919120 0.0092468770 0 0
0.0096844990 0.0070876810 0 0
0.0113432300 0.0045959540 0 0
0.0120681350 0.0020181340 0 0
0.0117484420 -0.0003918030 0 0
0.0103802130 -0.0023961450 0 0
0.0080690230 -0.0037962510 0 0
0.0050159720 -0.0044517370 0 0
0.0014912850 -0.0042937730 0 0
-0.0021974260 -0.0033315370 0 0
-0.0057363910 -0.0016520950 0 0
-0.0088334150 0.0005863150 0 0
-0.0112412370 0.0031684600 0 0
-0.0127764180 0.0058435000 0 0
-0.0133335100 0.0083502950 0 0
-0.0128936970 0.0104422960 0 0
-0.0115271760 0.0119101170 0 0
-0.0093886570 0.0126017680 0 0
-0.0067049620 0.0124395040 0 0
-0.0037544460 0.0114303310 0 0
-0.0008398240 0.0096670980 0 0
0.0017427120 0.0073192520 0 0
0.0037341020 0.0046151720 0 0
0.0049386120 0.0018192610 0 0
0.0052429870 -0.0007935920 0 0
0.0046273180 -0.0029642750 0 0
0.0031672680 -0.0044744550 0 0
0.0010272850 -0.0051682090 0 0
-0.0015559440 -0.0049683350 0 0
-0.0042992180 -0.0038852140 0 0
-0.0069035310 -0.0020164310 0 0
-0.0090843050 0.0004628660 0 0
-0.0105989520 0.0033169740 0 0
-0.0112714800 0.0062719360 0 0
-0.0110115380 0.0090419320 0 0
-0.0098240100 0.0113580830 0 0
-0.0078073590 0.0129962560 0 0
-0.0051417720 0.0138001290 0 0
-0.0020696770 0.0136969090 0 0
0.0011283610 0.0127043890 0 0
0.0041599830 0.0109294130 0 0
0.0067479040 0.0085582020 0 0
0.0086555930 0.0058384540 0 0
0.0097097450 0.0030535170 0 0
0.0098172000 0.0004911190 0 0
0.0089737400 -0.0015887810 0 0
0.0072629160 -0.0029814830 0 0
0.0048454490 -0.0035562200 0 0
0.0019422380 -0.0032653970 0 0
-0.0011861340 -0.0021466060 0 0
-0.0042621310 -0.0003190730 0 0
-0.0070157580 0.0020261940 0 0
-0.0092098350 0.0046443410 0 0
-0.0106636700 0.0072623220 0 0
-0.0112719240 0.0096082040 0 0
-0.0110157210 0.0114391810 0 0
-0.0099638640 0.0125652270 0 0
-0.0082639750 0.0128668420 0 0
-0.0061256710 0.0123057920 0 0
-0.0037984200 0.0109280920 0 0
-0.0015467990 0.0088590770 0 0
0.0003741590 0.0062912150 0 0
0.0017420770 0.0034656130 0 0
0.0023879940 0.0006488170 0 0
0.0022130970 -0.0018924720 0 0
0.0011994220 -0.0039165730 0 0
-0.0005863230 -0.0052306100 0 0
-0.0029961110 -0.0057106570 0 0
-0.0058128480 -0.0053144310 0 0
-0.0087724990 -0.0040838300 0 0
-0.0115925930 -0.0021382910 0 0
-0.0140013210 0.0003371220 0 0
-0.0157638930 0.0031065380 0 0
-0.0167052980 0.0059024100 0 0
-0.0167281640 0.0084501110 0 0
-0.0158234060 0.0104955330 0 0
-0.0140715610 0.0118309480 0 0
-0.0116338730 0.0123152160 0 0
-0.0087348520 0.0118865490 0 0
-0.0056405640 0.0105675790 0 0
-0.0026353320 0.0084630490 0 0
0.0000031767 0.0057503860 0 0
0.0020294380 0.0026640400 0 0
0.0032533180 -0.0005245540 0 0
0.0035585080 -0.0035296830 0 0
0.0029137680 -0.0060762330 0 0
0.0013749050 -0.0079260230 0 0
-0.0009220790 -0.0089026360 0 0
-0.0037733560 -0.0089104750 0 0
-0.0069227440 -0.0079452110 0 0
-0.0100814560 -0.0060946310 0 0
-0.0129536680 -0.0035295260 0 0
-0.0152660440 -0.0004857390 0 0
-0.0167969700 0.0027594850 0 0
-0.0174011810 0.0059133400 0 0
-0.0170261720 0.0086932010 0 0
-0.0157175470 0.0108509900 0 0
-0.0136127290 0.0121952280 0 0
-0.0109256620 0.0126093080 0 0
-0.0079259640 0.0120641010 0 0
-0.0049140810 0.0106228360 0 0
-0.0021929650 0.0084364670 0 0
-0.0000375074 0.0057288910 0 0
0.0013353100 0.0027734220 0 0
0.0017908970 -0.0001363200 0 0
0.0012916890 -0.0027171660 0 0
-0.0001000270 -0.0047253310 0 0
-0.0022297080 -0.0059805540 0 0
-0.0048661620 -0.0063831530 0 0
-0.0077245560 -0.0059229770 0 0
-0.0104959760 -0.0046800590 0 0
-0.0128801700 -0.0028162620 0 0
-0.0146172490 -0.0005571880 0 0
-0.0155148200 0.0018343320 0 0
-0.0154675690 0.0040889620 0 0
-0.0144673230 0.0059604440 0 0
-0.0126026890 0.0072500310 0 0
-0.0100482470 0.0078236010 0 0
-0.0070449870 0.0076208530 0 0
-0.0038753880 0.0066575790 0 0
-0.0008364080 0.0050226310 0 0
0.0017875300 0.0028700950 0 0
0.0037502370 0.0004059780 0 0
0.0048669340 -0.0021307270 0 0
0.0050329440 -0.0044908990 0 0
0.0042349930 -0.0064393640 0 0
0.0025530320 -0.0077780440 0 0
0.0001528500 -0.0083664590 0 0
-0.0027293630 -0.0081372160 0 0
-0.0058104170 -0.0071041850 0 0
-0.0087902000 -0.0053617150 0 0
-0.0113834540 -0.0030748770 0 0
-0.0133478550 -0.0004633780 0 0
-0.0145057470 0.0022183070 0 0
-0.0147578250 0.0047050240 0 0
-0.0140873350 0.0067490190 0 0
-0.0125565090 0.0081472290 0 0
-0.0102995580 0.0087622220 0 0
-0.0075145630 0.0085351290 0 0
-0.0044520680 0.0074913980 0 0
-0.0013964720 0.0057391760 0 0
0.0013604860 0.0034587900 0 0
0.0035508020 0.0008831580 0 0
0.0049608320 -0.0017278580 0 0
0.0054554970 -0.0041144030 0 0
0.0049909310 -0.0060411440 0 0
0.0036154640 -0.0073178550 0 0
0.0014627810 -0.0078162240 0 0
-0.0012607410 -0.0074830100 0 0
-0.0042955380 -0.0063482960 0 0
-0.0073548710 -0.0045264110 0 0
-0.0101531670 -0.0022072030 0 0
-0.0124320600 0.0003629750 0 0
-0.0139829240 0.0029083540 0 0
-0.0146668220 0.0051540630 0 0
-0.0144306290 0.0068545100 0 0
-0.0133149700 0.0078169040 0 0
-0.0114496740 0.0079189960 0 0
-0.0090371210 0.0071203700 0 0
-0.0063286400 0.0054665850 0 0
-0.0035988390 0.0030859390 0 0
-0.0011202290 0.0001786410 0 0
0.0008608360 -0.0030013140 0 0
0.0021467230 -0.0061701340 0 0
0.0026084850 -0.0090413340 0 0
0.0021996410 -0.0113525720 0 0
0.0009609850 -0.0128895870 0 0
-0.0009829910 -0.0135060260 0 0
-0.0034353940 -0.0131378640 0 0
-0.0061469870 -0.0118105970 0 0
-0.0088432800 -0.0096380450 0 0
-0.0112529490 -0.0068124770 0 0
-0.0131335010 -0.0035867490 0 0
-0.0142934160 -0.0002510030 0 0
-0.0146099430 0.0028930590 0 0
-0.0140413070 0.0055587410 0 0
-0.0126328840 0.0075011070 0 0
-0.0105167420 0.0085418910 0 0
-0.0079024680 0.0085889410 0 0
-0.0050568110 0.0076467510 0 0
-0.0022732240 0.0058163180 0 0
0.0001621170 0.0032844890 0 0
0.0020000800 0.0003044220 0 0
0.0030502190 -0.0028301860 0 0
0.0031945720 -0.0058137520 0 0
0.0023960540 -0.0083574500 0 0
0.0007035070 -0.0102160170 0 0
-0.0017481460 -0.0112111060 0 0
-0.0047465830 -0.0112487350 0 0
-0.0080208220 -0.0103281990 0 0
-0.0112672860 -0.0085413180 0 0
-0.0141797050 -0.0060634790 0 0
-0.0164807380 -0.0031385430 0 0
-0.0179530990 -0.0000577749 0 0
-0.0184652010 0.0028679750 0 0
-0.0179848970 0.0053415110 0 0
-0.0165789570 0.0071137430 0 0
-0.0144018980 0.0080139420 0 0
-0.0116792530 0.0079707780 0 0
-0.0086876790 0.0070203330 0 0
-0.0057313500 0.0052991800 0 0
-0.0031138380 0.0030235740 0 0
-0.0011071340 0.0004592160 0 0
0.0000781735 -0.0021117980 0 0
0.0003164990 -0.0044207270 0 0
-0.0004197250 -0.0062351450 0 0
-0.0020590050 -0.0073751990 0 0
-0.0044403430 -0.0077257430 0 0
-0.0073314910 -0.0072456940 0 0
-0.0104539640 -0.0059728820 0 0
-0.0135116320 -0.0040220970 0 0
-0.0162190590 -0.0015756620 0 0
-0.0183270830 0.0011330580 0 0
-0.0196439990 0.0038419840 0 0
-0.0200506840 0.0062858390 0 0
-0.0195091220 0.0082215550 0 0
-0.0180652630 0.0094509690 0 0
-0.0158467160 0.0098394360 0 0
-0.0130543610 0.0093299250 0 0
-0.0099463280 0.0079516300 0 0
-0.0068138560 0.0058206610 0 0
-0.0039512690 0.0031299560 0 0
-0.0016243000 0.0001284720 0 0
-0.0000419705 -0.0029061040 0 0
0.0006627620 -0.0056958920 0 0
0.0004404990 -0.0079893270 0 0
-0.0006770340 -0.0095835660 0 0
-0.0025836950 -0.0103412310 0 0
-0.0051060710 -0.0102010040 0 0
-0.0080118370 -0.0091825240 0 0
-0.0110228100 -0.0073855340 0 0
-0.0138360240 -0.0049825020 0 0
-0.0161532600 -0.0022041940 0 0
-0.0177144230 0.0006810750 0 0
-0.0183281990 0.0033922750 0 0
-0.0178960400 0.0056618710 0 0
-0.0164273870 0.0072613760 0 0
-0.0140430340 0.0080244270 0 0
-0.0109641830 0.0078650870 0 0
-0.0074889150 0.0067890590 0 0
-0.0039601170 0.0048957450 0 0
-0.0007278980 0.0023696900 0 0
0.0018903420 -0.0005382190 0 0
0.0036470620 -0.0035374900 0 0
0.0043929230 -0.0063292930 0 0
0.0040916320 -0.0086380160 0 0
0.0028192470 -0.0102390420 0 0
0.0007493660 -0.0109801560 0 0
-0.0018718860 -0.0107949410 0 0
-0.0047568240 -0.0097068140 0 0
-0.0076084940 -0.0078242490 0 0
-0.0101493030 -0.0053294460 0 0
-0.0121434890 -0.0024617410 0 0
-0.0134141770 0.0005042050 0 0
-0.0138559590 0.0032844750 0 0
-0.0134421360 0.0056132950 0 0
-0.0122252470 0.0072684960 0 0
-0.0103316450 0.0080928740 0 0
-0.0079527750 0.0080100480 0 0
-0.0053333490 0.0070334720 0 0
-0.0027523880 0.0052672610 0 0
-0.0004947650 0.0028971810 0 0
0.0011823760 0.0001707010 0 0
0.0020810400 -0.0026315550 0 0
0.0020864630 -0.0052269590 0 0
0.0011812050 -0.0073591430 0 0
-0.0005523350 -0.0088209570 0 0
-0.0029412920 -0.0094715800 0 0
-0.0057422390 -0.0092475430 0 0
-0.0086689810 -0.0081673680 0 0
-0.0114242720 -0.0063295420 0 0
-0.0137308120 -0.0039034480 0 0
-0.0153577480 -0.0011130160 0 0
-0.0161405270 0.0017863600 0 0
-0.0159933720 0.0045351150 0 0
-0.0149144380 0.0068964530 0 0
-0.0129842620 0.0086786130 0 0
-0.0103586520 0.0097506260 0 0
-0.0072564020 0.0100516000 0 0
-0.0039409040 0.0095933980 0 0
-0.0006962930 0.0084563090 0 0
0.0021981790 0.0067790890 0 0
0.0044918240 0.0047458700 0 0
0.0059830910 0.0025708340 0 0
0.0065369530 0.0004801190 0 0
0.0060981290 -0.0013085440 0 0
0.0046983260 -0.0026064870 0 0
0.0024561680 -0.0032727590 0 0
-0.0004307330 -0.0032287790 0 0
-0.0037027860 -0.0024668810 0 0
-0.0070650680 -0.0010514600 0 0
-0.0102197990 0.0008862360 0 0
-0.0128976490 0.0031579280 0 0
-0.0148831740 0.0055329880 0 0
-0.0160332810 0.0077591020 0 0
-0.0162885480 0.0095887100 0 0
-0.0156775970 0.0108085510 0 0
-0.0143149380 0.0112671650 0 0
-0.0123911280 0.0108947060 0 0
-0.0101535880 0.0097114000 0 0
-0.0078798810 0.0078240790 0 0
-0.0058479000 0.0054133280 0 0
-0.0043058640 0.0027148260 0 0
-0.0034444110 -0.0000035058 0 0
-0.0033752220 -0.0024680700 0 0
-0.0041207620 -0.0044279350 0 0
-0.0056162200 -0.0056812910 0 0
-0.0077207430 -0.0060963910 0 0
-0.0102339820 -0.0056244670 0 0
-0.0129159720 -0.0043032520 0 0
-0.0155101560 -0.0022510150 0 0
-0.0177681470 0.0003475470 0 0
-0.0194730630 0.0032608270 0 0
-0.0204588910 0.0062316520 0 0
-0.0206245860 0.0089977680 0 0
-0.0199419160 0.0113113560 0 0
-0.0184570940 0.0129591490 0 0
-0.0162869660 0.0137833020 0 0
-0.0136104840 0.0137000700 0 0
-0.0106565630 0.0127116760 0 0
-0.0076879750 0.0109078670 0 0
-0.0049793160 0.0084567590 0 0
-0.0027890930 0.0055876550 0 0
-0.0013299960 0.0025693560 0 0
-0.0007436940 -0.0003140490 0 0
-0.0010856460 -0.0027892220 0 0
-0.0023213790 -0.0046203480 0 0
-0.0043311160 -0.0056338530 0 0
-0.0069189080 -0.0057371910 0 0
-0.0098268120 -0.0049284120 0 0
-0.0127589210 -0.0032952760 0 0
-0.0154163240 -0.0010050130 0 0
-0.0175345860 0.0017135380 0 0
-0.0189121730 0.0045938550 0 0
-0.0194256970 0.0073590350 0 0
-0.0190356980 0.0097484080 0 0
-0.0177866360 0.0115403040 0 0
-0.0158013710 0.0125707980 0 0
-0.0132699850 0.0127494570 0 0
-0.0104337380 0.0120707800 0 0
-0.0075645490 0.0106172890 0 0
-0.0049398550 0.0085515520 0 0
-0.0028145560 0.0060981570 0 0
-0.0013944860 0.0035191430 0 0
-0.0008158130 0.0010869150 0 0
-0.0011319970 -0.0009423370 0 0
-0.0023080570 -0.0023530260 0 0
-0.0042228210 -0.0029907890 0 0
-0.0066805510 -0.0027773630 0 0
-0.0094319980 -0.0017185380 0 0
-0.0122025260 0.0000950297 0 0
-0.0147223800 0.0024942290 0 0
-0.0167536340 0.0052451270 0 0
-0.0181112480 0.0080694660 0 0
-0.0186780570 0.0106715020 0 0
-0.0184130960 0.0127696520 0 0
-0.0173531370 0.0141291460 0 0
-0.0156088490 0.0145904350 0 0
-0.0133564720 0.0140886680 0 0
-0.0108242700 0.0126610290 0 0
-0.0082728860 0.0104408590 0 0
-0.0059700320 0.0076407470 0 0
-0.0041619440 0.0045286510 0 0
-0.0030459480 0.0014002720 0 0
-0.0027486100 -0.0014499550 0 0
-0.0033120440 -0.0037569650 0 0
-0.0046889420 -0.0053102660 0 0
-0.0067469360 -0.0059741700 0 0
-0.0092829780 -0.0057004650 0 0
-0.0120456570 -0.0045316460 0 0
-0.0147602370 -0.0025943160 0 0
-0.0171524690 -0.0000839288 0 0
-0.0189713040 0.0027562080 0 0
-0.0200121930 0.0056582090 0 0
-0.0201402340 0.0083527330 0 0
-0.0193091610 0.0105908170 0 0
-0.0175712250 0.0121640030 0 0
-0.0150745410 0.0129224000 0 0
-0.0120475990 0.0127898150 0 0
-0.0087740340 0.0117747370 0 0
-0.0055625220 0.0099749410 0 0
-0.0027162230 0.0075722440 0 0
-0.0005041070 0.0048154470 0 0
0.0008648610 0.0019936000 0 0
0.0012630070 -0.0005955850 0 0
0.0006583050 -0.0026777790 0 0
-0.0008805940 -0.0040314290 0 0
-0.0031906020 -0.0045113170 0 0
-0.0060319060 -0.0040629960 0 0
-0.0091145470 -0.0027264990 0 0
-0.0121294210 -0.0006301160 0 0
-0.0147792790 0.0020240640 0 0
-0.0168065280 0.0049812860 0 0
-0.0180160280 0.0079605860 0 0
-0.0182914240 0.0106843690 0 0
-0.0176043500 0.0129072030 0 0
-0.0160168610 0.0144388600 0 0
-0.0136770040 0.0151586290 0 0
-0.0108068580 0.0150212610 0 0
-0.0076832930 0.0140566100 0 0
-0.0046126150 0.0123646650 0 0
-0.0019012030 0.0101068100 0 0
0.0001746460 0.0074934090 0 0
0.0013964360 0.0047675200 0 0
0.0016263750 0.0021849910 0 0
0.0008231570 -0.0000082651 0 0
-0.0009514760 -0.0016004380 0 0
-0.0035371540 -0.0024367650 0 0
-0.0066909200 -0.0024375000 0 0
-0.0101129940 -0.0016075270 0 0
-0.0134785780 -0.0000359470 0 0
-0.0164727120 0.0021136540 0 0
-0.0188251670 0.0046198630 0 0
-0.0203399090 0.0072252690 0 0
-0.0209127610 0.0096626000 0 0
-0.0205349930 0.0116826910 0 0
-0.0192865540 0.0130799080 0 0
-0.0173243000 0.0137112130 0 0
-0.0148668130 0.0135077070 0 0
-0.0121747320 0.0124799330 0 0
-0.0095271550 0.0107177650 0 0
-0.0071958260 0.0083833670 0 0
-0.0054183810 0.0056961890 0 0
-0.0043738790 0.0029119810 0 0
-0.0041651990 0.0002989060 0 0
-0.0048102230 -0.0018876670 0 0
-0.0062412970 -0.0034307600 0 0
-0.0083127070 -0.0041750980 0 0
-0.0108159060 -0.0040436730 0 0
-0.0135013840 -0.0030446170 0 0
-0.0161049490 -0.0012687230 0 0
-0.0183744730 0.0011209440 0 0
-0.0200924910 0.0039061240 0 0
-0.0210924220 0.0068350300 0 0
-0.0212699970 0.0096458890 0 0
-0.0205924220 0.0120902430 0 0
-0.0191051680 0.0139543960 0 0
-0.0169336120 0.0150776960 0 0
-0.0142762120 0.0153665820 0 0
-0.0113872750 0.0148031010 0 0
-0.0085503550 0.0134466140 0 0
-0.0060464880 0.0114283290 0 0
-0.0041228800 0.0089391040 0 0
-0.0029669370 0.0062114170 0 0
-0.0026882390 0.0034971210 0 0
-0.0033087960 0.0010434810 0 0
-0.0047617090 -0.0009296210 0 0
-0.0068990590 -0.0022490950 0 0
-0.0095083420 -0.0028037130 0 0
-0.0123341740 -0.0025544840 0 0
-0.0151015730 -0.0015397060 0 0
-0.0175386250 0.0001261750 0 0
-0.0193982000 0.0022609210 0 0
-0.0204795890 0.0046308240 0 0
-0.0206502920 0.0069741760 0 0
-0.0198652790 0.0090286910 0 0
-0.0181784860 0.0105592240 0 0
-0.0157415400 0.0113833880 0 0
-0.0127878550 0.0113932200 0 0
-0.0096049050 0.0105699810 0 0
-0.0065011730 0.0089885550 0 0
-0.0037740760 0.0068094610 0 0
-0.0016824360 0.0042598100 0 0
-0.0004239050 0.0016072300 0 0
-0.0001168760 -0.0008689690 0 0
-0.0007883000 -0.0029063900 0 0
-0.0023704830 -0.0042856800 0 0
-0.0047092160 -0.0048520320 0 0
-0.0075823540 -0.0045302190 0 0
-0.0107241750 -0.0033319400 0 0
-0.0138512220 -0.0013547030 0 0
-0.0166888470 0.0012278260 0 0
-0.0189975810 0.0041827670 0 0
-0.0205953390 0.0072402270 0 0
-0.0213714250 0.0101186530 0 0
-0.0212916140 0.0125514130 0 0
-0.0203965270 0.0143127540 0 0
-0.0187958110 0.0152412250 0 0
-0.0166589580 0.0152579790 0 0
-0.0142024390 0.0143766930 0 0
-0.0116731130 0.0127025980 0 0
-0.0093277320 0.0104205780 0 0
-0.0074089390 0.0077747770 0 0
-0.0061208090 0.0050426870 0 0
-0.0056082360 0.0025065230 0 0
-0.0059419150 0.0004251440 0 0
-0.0071084870 -0.0009905150 0 0
-0.0090069730 -0.0015968480 0 0
-0.0114545110 -0.0013304980 0 0
-0.0142029200 -0.0002131610 0 0
-0.0169647150 0.0016521350 0 0
-0.0194451380 0.0040920050 0 0
-0.0213755410 0.0068790740 0 0
-0.0225431480 0.0097522520 0 0
-0.0228131300 0.0124403020 0 0
-0.0221408110 0.0146877910 0 0
-0.0205744260 0.0162808170 0 0
-0.0182505660 0.0170693180 0 0
-0.0153835730 0.0169834930 0 0
-0.0122481210 0.0160421170 0 0
-0.0091539230 0.0143508090 0 0
-0.0064139290 0.0120896150 0 0
-0.0043105830 0.0094912800 0 0
-0.0030661220 0.0068140390 0 0
-0.0028207510 0.0043141660 0 0
-0.0036189640 0.0022221990 0 0
-0.0054041060 0.0007237750 0 0
-0.0080235590 -0.0000554975 0 0
-0.0112458100 -0.0000606892 0 0
-0.0147857700 0.0006882220 0 0
-0.0183322300 0.0020996950 0 0
-0.0215747950 0.0040202020 0 0
-0.0242313670 0.0062477660 0 0
-0.0260753400 0.0085487260 0 0
-0.0269577980 0.0106778780 0 0
-0.0268203320 0.0124011200 0 0
-0.0256979630 0.0135184740 0 0
-0.0237141460 0.0138848570 0 0
-0.0210693010 0.0134263350 0 0
-0.0180234620 0.0121502810 0 0
-0.0148733470 0.0101479110 0 0
-0.0119239620 0.0075876980 0 0
-0.0094561920 0.0046996430 0 0
-0.0076953550 0.0017525580 0 0
-0.0067876920 -0.0009724310 0 0
-0.0067888540 -0.0032096430 0 0
-0.0076627800 -0.0047359170 0 0
-0.0092873680 -0.0053941480 0 0
-0.0114666160 -0.0051097810 0 0
-0.0139511020 -0.0038982740 0 0
-0.0164655800 -0.0018633710 0 0
-0.0187394800 0.0008134540 0 0
-0.0205360380 0.0038913480 0 0
-0.0216755680 0.0070935520 0 0
-0.0220492290 0.0101329400 0 0
-0.0216232080 0.0127380330 0 0
-0.0204358450 0.0146785890 0 0
-0.0185899930 0.0157887440 0 0
-0.0162425930 0.0159844710 0 0
-0.0135930210 0.0152724310 0 0
-0.0108700620 0.0137488190 0 0
-0.0083156610 0.0115888260 0 0
-0.0061637810 0.0090286920 0 0
-0.0046157250 0.0063425070 0 0
-0.0038170980 0.0038153620 0 0
-0.0038418940 0.0017141810 0 0
-0.0046856490 0.0002589110 0 0
-0.0062663920 -0.0004016470 0 0
-0.0084313830 -0.0002057350 0 0
-0.0109689830 0.0008156390 0 0
-0.0136270080 0.0025443400 0 0
-0.0161382720 0.0047917790 0 0
-0.0182499480 0.0073230110 0 0
-0.0197506390 0.0098825740 0 0
-0.0204916520 0.0122179450 0 0
-0.0204029550 0.0140997780 0 0
-0.0195032970 0.0153399420 0 0
-0.0179006090 0.0158072650 0 0
-0.0157800040 0.0154392650 0 0
-0.0133818900 0.0142484140 0 0
-0.0109757660 0.0123225600 0 0
-0.0088339720 0.0098193230 0 0
-0.0072070740 0.0069543190 0 0
-0.0063010790 0.0039835780 0 0
-0.0062568150 0.0011805330 0 0
-0.0071330930 -0.0011916130 0 0
-0.0088963730 -0.0029094260 0 0
-0.0114197790 -0.0038152280 0 0
-0.0144938240 -0.0038336580 0 0
-0.0178484810 -0.0029765270 0 0
-0.0211814960 -0.0013380000 0 0
-0.0241873110 0.0009167260 0 0
-0.0265854370 0.0035675850 0 0
-0.0281488980 0.0063599530 0 0
-0.0287296080 0.0090277770 0 0
-0.0282746510 0.0113175860 0 0
-0.0268302590 0.0130119070 0 0
-0.0245355450 0.0139508000 0 0
-0.0216091850 0.0140489980 0 0
-0.0183293050 0.0133054110 0 0
-0.0150055360 0.0118034600 0 0
-0.0119457290 0.0097031810 0 0
-0.0094241120 0.0072264310 0 0
-0.0076572620 0.0046355720 0 0
-0.0067893520 0.0022062130 0 0
-0.0068845570 0.0001966930 0 0
-0.0079243170 -0.0011808790 0 0
-0.0098083960 -0.0017833100 0 0
-0.0123600410 -0.0015499880 0 0
-0.0153369330 -0.0005066020 0 0
-0.0184497030 0.0012407520 0 0
-0.0213885830 0.0035192660 0 0
-0.0238565980 0.0061078000 0 0
-0.0256049000 0.0087572140 0 0
-0.0264634180 0.0112117690 0 0
-0.0263598340 0.0132316030 0 0
-0.0253239010 0.0146152520 0 0
-0.0234803100 0.0152200570 0 0
-0.0210354650 0.0149784140 0 0
-0.0182597630 0.0139078770 0 0
-0.0154635140 0.0121126010 0 0
-0.0129658710 0.0097739990 0 0
-0.0110593060 0.0071307380 0 0
-0.0099744730 0.0044512890 0 0
-0.0098512460 0.0020040790 0 0
-0.0107204560 0.0000296733 0 0
-0.0124992150 -0.0012823270 0 0
-0.0150016910 -0.0018101240 0 0
-0.0179643440 -0.0015091040 0 0
-0.0210793710 -0.0004130840 0 0
-0.0240283080 0.0013721470 0 0
-0.0265120900 0.0036815410 0 0
-0.0282782270 0.0063075840 0 0
-0.0291446390 0.0090192720 0 0
-0.0290161250 0.0115823070 0 0
-0.0278898980 0.0137796010 0 0
-0.0258513930 0.0154304430 0 0
-0.0230649640 0.0164062380 0 0
-0.0197621400 0.0166414810 0 0
-0.0162255710 0.0161396550 0 0
-0.0127651240 0.0149732890 0 0
-0.0096865850 0.0132769970 0 0
-0.0072589010 0.0112341470 0 0
-0.0056866010 0.0090598000 0 0
-0.0050910920 0.0069816450 0 0
-0.0055020190 0.0052191550 0 0
-0.0068583170 0.0039616780 0 0
-0.0090174140 0.0033479590 0 0
-0.0117705910 0.0034508590 0 0
-0.0148628250 0.0042702820 0 0
-0.0180153990 0.0057344210 0 0
-0.0209491630 0.0077070960 0 0
-0.0234070790 0.0099996240 0 0
-0.0251758770 0.0123873260 0 0
-0.0261062030 0.0146306450 0 0
-0.0261282540 0.0164993240 0 0
-0.0252594710 0.0177967750 0 0
-0.0236032480 0.0183817260 0 0
-0.0213392330 0.0181846020 0 0
-0.0187056810 0.0172164070 0 0
-0.0159758700 0.0155686320 0 0
-0.0134325830 0.0134042210 0 0
-0.0113438850 0.0109411030 0 0
-0.0099407830 0.0084302800 0 0
-0.0093960590 0.0061300670 0 0
-0.0098051300 0.0042785910 0 0
-0.0111717670 0.0030684040 0 0
-0.0134023030 0.0026274420 0 0
-0.0163112520 0.0030086000 0 0
-0.0196385900 0.0041876040 0 0
-0.0230757870 0.0060676260 0 0
-0.0262968270 0.0084889700 0 0
-0.0289913460 0.0112426370 0 0
-0.0308976000 0.0140874160 -1 0
-0.0318320760 0.0167704710 -1 0
-0.0317107670 0.0190506600 -1 0
-0.0305574790 0.0207223500 -1 0
-0.0284985180 0.0216363080 0 0
-0.0257467800 0.0217140800 0 0
-0.0225784530 0.0209539860 0 0
-0.0193046560 0.0194295790 0 0
-0.0162403690 0.0172826980 0 0
-0.0136734000 0.0147121590 0 0
-0.0118364860 0.0119574430 0 0
-0.0108855870 0.0092767760 0 0
-0.0108866560 0.0069211720 0 0
-0.0118115870 0.0051081990 0 0
-0.0135432830 0.0039993350 0 0
-0.0158894730 0.0036836210 0 0
-0.0186036330 0.0041691870 0 0
-0.0214098630 0.0053833960 0 0
-0.0240282850 0.0071815250 0 0
-0.0261986940 0.0093625280 0 0
-0.0277017490 0.0116889340 0 0
-0.0283782920 0.0139081080 0 0
-0.0281473750 0.0157741080 0 0
-0.0270207320 0.0170706220 0 0
-0.0251075000 0.0176343310 0 0
-0.0226043530 0.0173753540 0 0
-0.0197729620 0.0162903800 0 0
-0.0169106360 0.0144658050 0 0
-0.0143183780 0.0120702960 0 0
-0.0122688720 0.0093370340 0 0
-0.0109773400 0.0065374800 0 0
-0.0105783360 0.0039511300 0 0
-0.0111107080 0.0018362760 0 0
-0.0125131550 0.0004049010 0 0
-0.0146328410 -0.0001969360 0 0
-0.0172462770 0.0000974917 0 0
-0.0200866950 0.0012692900 0 0
-0.0228713380 0.0032156780 0 0
-0.0253268090 0.0057599130 0 0
-0.0272138670 0.0086683430 0 0
-0.0283505140 0.0116724120 0 0
-0.0286291960 0.0144930750 0 0
-0.0280257560 0.0168656010 0 0
-0.0266004510 0.0185633000 0 0
-0.0244910490 0.0194190880 0 0
-0.0218975960 0.0193435610 0 0
-0.0190607430 0.0183364790 0 0
-0.0162378820 0.0164881820 0 0
-0.0136807680 0.0139706090 0 0
-0.0116159040 0.0110203480 0 0
-0.0102278200 0.0079159510 0 0
-0.0096453640 0.0049513310 0 0
-0.0099302340 0.0024076040 0 0
-0.0110675050 0.0005258340 0 0
-0.0129606390 -0.0005167430 0 0
-0.0154344220 -0.0006243090 0 0
-0.0182478000 0.0002080590 0 0
-0.0211169350 0.0018936840 0 0
-0.0237466140 0.0042626640 0 0
-0.0258647210 0.0070790860 0 0
-0.0272530870 0.0100657100 0 0
-0.0277705360 0.0129331740 0 0
-0.0273666340 0.0154092540 0 0
-0.0260853720 0.0172639280 0 0
-0.0240591570 0.0183287340 0 0
-0.0214953010 0.0185110550 0 0
-0.0186556520 0.0178028500 0 0
-0.0158285320 0.0162815760 0 0
-0.0132964610 0.0141019530 0 0
-0.0113071130 0.0114796960 0 0
-0.0100515140 0.0086697340 0 0
-0.0096488480 0.0059418860 0 0
-0.0101371500 0.0035568920 0 0
-0.0114707080 0.0017443490 0 0
-0.0135247520 0.0006827690 0 0
-0.0161061270 0.0004828990 0 0
-0.0189683350 0.0011764720 0 0
-0.0218315270 0.0027115100 0 0
-0.0244089030 0.0049540970 0 0
-0.0264381030 0.0076973040 0 0
-0.0277119160 0.0106788650 0 0
-0.0281012180 0.0136079530 0 0
-0.0275666200 0.0161977570 0 0
-0.0261602900 0.0181976700 0 0
-0.0240202820 0.0194194330 0 0
-0.0213576240 0.0197544160 0 0
-0.0184366140 0.0191818630 0 0
-0.0155499900 0.0177692640 0 0
-0.0129903250 0.0156659350 0 0
-0.0110197690 0.0130897600 0 0
-0.0098430170 0.0103067080 0 0
-0.0095883430 0.0076041350 0 0
-0.0102975330 0.0052606190 0 0
-0.0119226640 0.0035162100 0 0
-0.0143289040 0.0025475480 0 0
-0.0173045210 0.0024511770 0 0
-0.0205793150 0.0032359380 0 0
-0.0238505610 0.0048235010 0 0
-0.0268126780 0.0070564580 0 0
-0.0291861280 0.0097140620 0 0
-0.0307432420 0.0125347440 -1 0
-0.0313304940 0.0152429970 -1 0
-0.0308857380 0.0175775120 -1 0
-0.0294475480 0.0193174070 0 0
-0.0271541830 0.0203035270 0 0
-0.0242306550 0.0204524910 0 0
-0.0209648250 0.0197625070 0 0
-0.0176771040 0.0183114790 0 0
-0.0146888390 0.0162483840 0 0
-0.0122913280 0.0137786600 0 0
-0.0107163270 0.0111444110 0 0
-0.0101115170 0.0086009430 0 0
-0.0105256110 0.0063917460 0 0
-0.0119047590 0.0047249080 0 0
-0.0140990120 0.0037541160 0 0
-0.0168776260 0.0035658300 0 0
-0.0199520810 0.0041723490 0 0
-0.0230047730 0.0055102510 0 0
-0.0257212500 0.0074449370 0 0
-0.0278238390 0.0097827930 0 0
-0.0291021950 0.0122903910 0 0
-0.0294347060 0.0147175740 0 0
-0.0287981510 0.0168214770 0 0
-0.0272677270 0.0183901430 0 0
-0.0250089220 0.0192642450 0 0
-0.0222595420 0.0193541900 0 0
-0.0193015180 0.0186501100 0 0
-0.0164272330 0.0172235120 0 0
-0.0139084950 0.0152199010 0 0
-0.0119741840 0.0128424760 0 0
-0.0107961960 0.0103293710 0 0
-0.0104796630 0.0079288070 0 0
-0.0110553010 0.0058759010 0 0
-0.0124752680 0.0043725770 0 0
-0.0146156930 0.0035702570 0 0
-0.0172878290 0.0035550270 0 0
-0.0202560960 0.0043368320 0 0
-0.0232590190 0.0058457300 0 0
-0.0260306050 0.0079376290 0 0
-0.0283222570 0.0104098150 0 0
-0.0299256640 0.0130240330 0 0
-0.0306949390 0.0155327040 -1 0
-0.0305644940 0.0177037340 -1 0
-0.0295596800 0.0193419230 0 0
-0.0277979020 0.0203073000 0 0
-0.0254779200 0.0205297360 0 0
-0.0228571820 0.0200170220 0 0
-0.0202210120 0.0188538040 0 0
-0.0178500050 0.0171910970 0 0
-0.0159913980 0.0152284670 0 0
-0.0148371230 0.0131924670 0 0
-0.0145077340 0.0113143650 0 0
-0.0150409400 0.0098083830 0 0
-0.0163864990 0.0088509960 0 0
-0.0184106110 0.0085629990 0 0
-0.0209098950 0.0089968390 0 0
-0.0236326120 0.0101304640 0 0
-0.0263046890 0.0118676950 0 0
-0.0286572920 0.0140458090 0 0
-0.0304520400 0.0164512720 -1 0
-0.0315017910 0.0188422200 -1 0
-0.0316867870 0.0209736320 -1 0
-0.0309661060 0.0226212750 -1 0
-0.0293838240 0.0236024320 0 0
-0.0270684370 0.0237928000 0 0
-0.0242235610 0.0231387960 0 0
-0.0211093720 0.0216643550 0 0
-0.0180168520 0.0194714850 0 0
-0.0152374470 0.0167337490 0 0
-0.0130307770 0.0136821140 0 0
-0.0115957800 0.0105841090 0 0
-0.0110518540 0.0077187170 0 0
-0.0114320360 0.0053493480 0 0
-0.0126846370 0.0036971320 0 0
-0.0146797570 0.0029175610 0 0
-0.0172207680 0.0030838980 0 0
-0.0200612690 0.0041798260 0 0
-0.0229260840 0.0061021120 0 0
-0.0255354130 0.0086721060 0 0
-0.0276316830 0.0116534810 0 0
-0.0290058230 0.0147737480 0 0
-0.0295183060 0.0177480910 0 0
-0.0291129690 0.0203047560 0 0
-0.0278238770 0.0222103420 0 0
-0.0257746620 0.0232920770 0 0
-0.0231687320 0.0234540980 0 0
-0.0202699470 0.0226863350 0 0
-0.0173752240 0.0210660460 0 0
-0.0147823100 0.0187517260 0 0
-0.0127578430 0.0159684610 0 0
-0.0115107740 0.0129853190 0 0
-0.0111738670 0.0100877920 0 0
-0.0117935250 0.0075490570 0 0
-0.0133263410 0.0056033380 0 0
-0.0156411140 0.0044240280 0 0
-0.0185278890 0.0041086140 0 0
-0.0217160960 0.0046713260 0 0
-0.0249007960 0.0060431430 0 0
-0.0277737360 0.0080780600 0 0
-0.0300553490 0.0105648770 -1 0
-0.0315231310 0.0132447320 -1 0
-0.0320324250 0.0158351020 -1 0
-0.0315286790 0.0180594250 -1 0
-0.0300524600 0.0196784530 -1 0
-0.0277372230 0.0205177770 0 0
-0.0247981760 0.0204867190 0 0
-0.0215123460 0.0195861190 0 0
-0.0181925260 0.0179054300 0 0
-0.0151573320 0.0156117620 0 0
-0.0126988350 0.0129331420 0 0
-0.0110514510 0.0101366510 0 0
-0.0103676180 0.0075025020 0 0
-0.0107035280 0.0052970130 0 0
-0.0120146820 0.0037472320 0 0
-0.0141603480 0.0030186550 0 0
-0.0169172500 0.0031977540 0 0
-0.0200026760 0.0042822610 0 0
-0.0231047520 0.0061818180 0 0
-0.0259153210 0.0087288090 0 0
-0.0281611600 0.0116961760 0 0
-0.0296303100 0.0148188900 0 0
-0.0301901010 0.0178177510 -1 0
-0.0297949580 0.0204248560 0 0
-0.0284864740 0.0224089460 0 0
-0.0263893820 0.0235978110 0 0
-0.0237030480 0.0238952110 0 0
-0.0206852680 0.0232908600 0 0
-0.0176280470 0.0218629140 0 0
-0.0148288200 0.0197723520 0 0
-0.0125603510 0.0172485330 0 0
-0.0110415730 0.0145663790 0 0
-0.0104138900 0.0120177630 0 0
-0.0107280250 0.0098811340 0 0
-0.0119418950 0.0083930750 0 0
-0.0139263170 0.0077242830 0 0
-0.0164767430 0.0079618190 0 0
-0.0193316560 0.0090995140 0 0
-0.0221978320 0.0110381040 0 0
-0.0247806370 0.0135953280 0 0
-0.0268160260 0.0165243320 0 0
-0.0280996570 0.0195381500 0 0
-0.0285081470 0.0223383000 0 0
-0.0280098660 0.0246455150 0 0
-0.0266655040 0.0262293670 0 0
-0.0246194100 0.0269322650 0 0
-0.0220827880 0.0266842440 0 0
-0.0193109430 0.0255072910 0 0
-0.0165777870 0.0235097470 0 0
-0.0141511420 0.0208729690 0 0
-0.0122711700 0.0178333060 0 0
-0.0111318550 0.0146616040 0 0
-0.0108643300 0.0116408140 0 0
-0.0115225420 0.0090419060 0 0
-0.0130735520 0.0070997970 0 0
-0.0153953790 0.0059920260 0 0
-0.0182857350 0.0058220420 0 0
-0.0214828960 0.0066080640 0 0
-0.0246946270 0.0082790750 0 0
-0.0276279630 0.0106794530 0 0
-0.0300153090 0.0135823300 -1 0
-0.0316369970 0.0167104360 -1 0
-0.0323411420 0.0197627150 -1 0
-0.0320591100 0.0224449030 -1 0
-0.0308136650 0.0245010670 -1 0
-0.0287176160 0.0257415720 0 0
-0.0259621310 0.0260632970 0 0
-0.0227960450 0.0254598410 0 0
-0.0194997450 0.0240211220 0 0
-0.0163576510 0.0219229280 0 0
-0.0136321480 0.0194078280 0 0
-0.0115414160 0.0167589950 0 0
-0.0102432860 0.0142688370 0 0
-0.0098246880 0.0122062210 0 0
-0.0102941380 0.0107877750 0 0
-0.0115771740 0.0101576580 0 0
-0.0135189860 0.0103770780 0 0
-0.0158975900 0.0114221800 0 0
-0.0184455910 0.0131881560 0 0
-0.0208764280 0.0154988140 0 0
-0.0229131980 0.0181222430 0 0
-0.0243192910 0.0207924480 0 0
-0.0249279910 0.0232349850 0 0
-0.0246652730 0.0251937530 0 0
-0.0235591670 0.0264566830 0 0
-0.0217322650 0.0268782400 0 0
-0.0193805590 0.0263960390 0 0
-0.0167467830 0.0250386210 0 0
-0.0140952480 0.0229222860 0 0
-0.0116896730 0.0202370500 0 0
-0.0097720160 0.0172246340 0 0
-0.0085416000 0.0141527440 0 0
-0.0081362930 0.0112888910 0 0
-0.0086184830 0.0088757450 0 0
-0.0099687370 0.0071098910 0 0
-0.0120886590 0.0061255960 0 0
-0.0148113000 0.0059842400 0 0
-0.0179157050 0.0066696960 0 0
-0.0211436760 0.0080903860 0 0
-0.0242189700 0.0100884570 0 0
-0.0268695030 0.0124550760 0 0
-0.0288522090 0.0149500370 0 0
-0.0299792440 0.0173237130 0 0
-0.0301426090 0.0193396530 -1 0
-0.0293315950 0.0207963710 0 0
-0.0276367470 0.0215464430 0 0
-0.0252380730 0.0215105600 0 0
-0.0223811420 0.0206852480 0 0
-0.0193477300 0.0191438960 0 0
-0.0164266890 0.0170303750 0 0
-0.0138880150 0.0145444940 0 0
-0.0119604120 0.0119204390 0 0
-0.0108118600 0.0094020000 0 0
-0.0105345110 0.0072192150 0 0
-0.0111364220 0.0055689800 0 0
-0.0125411980 0.0045992960 0 0
-0.0145954390 0.0043962710 0 0
-0.0170838830 0.0049746440 0 0
-0.0197510740 0.0062738860 0 0
-0.0223264690 0.0081613590 0 0
-0.0245503860 0.0104429530 0 0
-0.0261999890 0.0128806690 0 0
-0.0271132160 0.0152154050 0 0
-0.0272063140 0.0171925260 0 0
-0.0264821130 0.0185879040 0 0
-0.0250294790 0.0192322250 0 0
-0.0230145690 0.0190309210 0 0
-0.0206631250 0.0179764580 0 0
-0.0182349740 0.0161507800 0 0
-0.0159959240 0.0137177850 0 0
-0.0141926300 0.0109066360 0 0
-0.0130313480 0.0079873740 0 0
-0.0126579330 0.0052419000 0 0
-0.0131391100 0.0029341800 0 0
-0.0144496640 0.0012833260 0 0
-0.0164714630 0.0004428410 0 0
-0.0190068380 0.0004882110 0 0
-0.0218026490 0.0014129510 0 0
-0.0245779690 0.0031318990 0 0
-0.0270513460 0.0054907770 0 0
-0.0289673500 0.0082810810 0 0
-0.0301212350 0.0112586440 -1 0
-0.0303789410 0.0141640590 -1 0
-0.0296910670 0.0167435430 0 0
-0.0281009190 0.0187695410 0 0
-0.0257448510 0.0200607800 0 0
-0.0228408010 0.0205007490 0 0
-0.0196641010 0.0200519830 0 0
-0.0165160660 0.0187630500 0 0
-0.0136924100 0.0167662780 0 0
-0.0114549940 0.0142658670 0 0
-0.0100081140 0.0115177390 0 0
-0.0094809940 0.0088034580 0 0
-0.0099179640 0.0064009080 0 0
-0.0112757820 0.0045549590 0 0
-0.0134270840 0.0034523660 0 0
-0.0161713370 0.0032042590 0 0
-0.0192543630 0.0038368000 0 0
-0.0223932750 0.0052891880 0 0
-0.0253021810 0.0074195450 0 0
-0.0277170700 0.0100196770 0 0
-0.0294198250 0.0128373210 0 0
-0.0302589890 0.0156020500 -1 0
-0.0301636780 0.0180510250 -1 0
-0.0291498940 0.0199525060 0 0
-0.0273203230 0.0211262890 0 0
-0.0248570300 0.0214598640 0 0
-0.0220054010 0.0209185470 0 0
-0.0190495070 0.0195489380 0 0
-0.0162818350 0.0174763210 0 0
-0.0139726690 0.0148961530 0 0
-0.0123439500 0.0120584230 0 0
-0.0115488630 0.0092438240 0 0
-0.0116563710 0.0067337810 0 0
-0.0126421840 0.0047795180 0 0
-0.0143897660 0.0035749560 0 0
-0.0167027980 0.0032360200 0 0
-0.0193270160 0.0037883130 0 0
-0.0219781210 0.0051649810 0 0
-0.0243721820 0.0072147910 0 0
-0.0262548920 0.0097188000 0 0
-0.0274271020 0.0124136300 0 0
-0.0277648430 0.0150190330 0 0
-0.0272312350 0.0172667880 0 0
-0.0258777980 0.0189280850 0 0
-0.0238358020 0.0198366040 0 0
-0.0213014290 0.0199046400 0 0
-0.0185172240 0.0191307190 0 0
-0.0157499770 0.0175987150 0 0
-0.0132661710 0.0154687320 0 0
-0.0113076870 0.0129602830 0 0
-0.0100698210 0.0103294560 0 0
-0.0096829330 0.0078428200 0 0
-0.0101994430 0.0057509090 0 0
-0.0115876260 0.0042640340 0 0
-0.0137326280 0.0035325090 0 0
-0.0164449450 0.0036325960 0 0
-0.0194765380 0.0045594520 0 0
-0.0225432360 0.0062286610 0 0
-0.0253515500 0.0084864300 0 0
-0.0276280640 0.0111256360 0 0
-0.0291474930 0.0139040390 0 0
-0.0297547670 0.0165636860 0 0
-0.0293795240 0.0188525950 0 0
-0.0280436560 0.0205485960 0 0
-0.0258613720 0.0214830890 0 0
-0.0230299710 0.0215615010 0 0
-0.0198110740 0.0207766800 0 0
-0.0165052790 0.0192116640 0 0
-0.0134237470 0.0170303490 0 0
-0.0108577680 0.0144580860 0 0
-0.0090477160 0.0117567470 0 0
-0.0081569770 0.0091985630 0 0
-0.0082568030 0.0070412120 0 0
-0.0093227970 0.0055054040 0 0
-0.0112399430 0.0047556220 0 0
-0.0138141020 0.0048845930 0 0
-0.0167902120 0.0059025960 0 0
-0.0198775640 0.0077334490 0 0
-0.0227801560 0.0102190110 0 0
-0.0252277860 0.0131327510 0 0
-0.0270027960 0.0162014590 0 0
-0.0279587950 0.0191328990 0 0
-0.0280307070 0.0216459650 0 0
-0.0272374380 0.0234996640 0 0
-0.0256782040 0.0245179460 0 0
-0.0235227090 0.0246078690 0 0
-0.0209955570 0.0237690000 0 0
-0.0183565670 0.0220928940 0 0
-0.0158782620 0.0197521510 0 0
-0.0138203800 0.0169798800 0 0
-0.0124025400 0.0140431570 0 0
-0.0117795880 0.0112153710 0 0
-0.0120254060 0.0087507330 0 0
-0.0131284900 0.0068624280 0 0
-0.0149976090 0.0057053580 0 0
-0.0174722090 0.0053642330 0 0
-0.0203341390 0.0058475100 0 0
-0.0233227050 0.0070876160 0 0
-0.0261568250 0.0089474450 0 0
-0.0285646100 0.0112324120 0 0
-0.0303158660 0.0137068430 -1 0
-0.0312498670 0.0161137720 -1 0
-0.0312922040 0.0181975030 -1 0
-0.0304597550 0.0197282550 -1 0
-0.0288566710 0.0205273510 0 0
-0.0266638630 0.0204895910 0 0
-0.0241226890 0.0195980240 0 0
-0.0215123730 0.0179274850 0 0
-0.0191209130 0.0156367340 0 0
-0.0172122920 0.0129515510 0 0
-0.0159966110 0.0101415660 0 0
-0.0156091550 0.0074930870 0 0
-0.0160999840 0.0052801690 0 0
-0.0174321930 0.0037365480 0 0
-0.0194864000 0.0030314690 0 0
-0.0220708670 0.0032522980 0 0
-0.0249383540 0.0043961880 0 0
-0.0278099260 0.0063712450 0 0
-0.0304030780 0.0090060130 -1 0
-0.0324599690 0.0120660090 -1 0
-0.0337733360 0.0152762290 -1 0
-0.0342094450 0.0183477920 -1 0
-0.0337254000 0.0210061530 -1 0
-0.0323752430 0.0230178330 -1 0
-0.0303014050 0.0242122190 -1 0
-0.0277143380 0.0244958770 0 0
-0.0248670460 0.0238587490 0 0
-0.0220298460 0.0223731030 0 0
-0.0194673940 0.0201862910 0 0
-0.0174176370 0.0175079730 0 0
-0.0160726100 0.0145919940 0 0
-0.0155626160 0.0117131930 0 0
-0.0159447010 0.0091404310 0 0
-0.0171947270 0.0071087610 0 0
-0.0192041090 0.0057947860 0 0
-0.0217852110 0.0052991040 0 0
-0.0246881830 0.0056382260 0 0
-0.0276268240 0.0067460110 0 0
-0.0303073950 0.0084826720 -1 0
-0.0324561930 0.0106491390 -1 0
-0.0338448190 0.0130057740 -1 0
-0.0343117150 0.0152951100 -1 0
-0.0337785340 0.0172671570 -1 0
-0.0322618730 0.0187042510 -1 0
-0.0298796830 0.0194424100 0 0
-0.0268470580 0.0193872820 0 0
-0.0234557860 0.0185240140 0 0
-0.0200388400 0.0169206220 0 0
-0.0169282310 0.0147236830 0 0
-0.0144158780 0.0121448540 0 0
-0.0127237520 0.0094385530 0 0
-0.0119860020 0.0068738030 0 0
-0.0122430910 0.0047051600 0 0
-0.0134452920 0.0031475000 0 0
-0.0154620650 0.0023569410 0 0
-0.0180953640 0.0024177560 0 0
-0.0210961860 0.0033348360 0 0
-0.0241839540 0.0050324500 0 0
-0.0270690590 0.0073606540 0 0
-0.0294791560 0.0101095190 0 0
-0.0311865690 0.0130290390 -1 0
-0.0320307500 0.0158522370 -1 0
-0.0319327600 0.0183198180 -1 0
-0.0309035070 0.0202045470 -1 0
-0.0290457080 0.0213331980 0 0
-0.0265459880 0.0216041880 0 0
-0.0236558020 0.0209992030 0 0
-0.0206650180 0.0195872840 0 0
-0.0178733530 0.0175203170 0 0
-0.0155619080 0.0150193680 0 0
-0.0139644730 0.0123520650 0 0
-0.0132408780 0.0098029200 0 0
-0.0134584700 0.0076410530 0 0
-0.0145864360 0.0060910160 0 0
-0.0165023880 0.0053107310 0 0
-0.0190074650 0.0053778860 0 0
-0.0218474120 0.0062846510 0 0
-0.0247387240 0.0079403240 0 0
-0.0273978520 0.0101813090 0 0
-0.0295693360 0.0127873800 0 0
-0.0310489870 0.0155027420 -1 0
-0.0317013190 0.0180603990 -1 0
-0.0314721500 0.0202077230 -1 0
-0.0303951180 0.0217306180 -1 0
-0.0285888380 0.0224742600 0 0
-0.0262434070 0.0223585130 0 0
-0.0235990240 0.0213857890 0 0
-0.0209216820 0.0196401770 0 0
-0.0184792590 0.0172786910 0 0
-0.0165189430 0.0145163510 0 0
-0.0152464280 0.0116064280 0 0
-0.0148076470 0.0088167800 0 0
-0.0152742610 0.0064041910 0 0
-0.0166350540 0.0045894840 0 0
-0.0187952660 0.0035358040 0 0
-0.0215838760 0.0033319890 0 0
-0.0247675120 0.0039834380 0 0
-0.0280706120 0.0054126930 0 0
-0.0312019810 0.0074692800 -1 0
-0.0338849360 0.0099454920 -1 0
-0.0358850960 0.0125951300 -1 0
-0.0370317670 0.0151545870 -1 0
-0.0372337040 0.0173664120 -1 0
-0.0364903280 0.0190039880 -1 0
-0.0348954750 0.0198941880 -1 0
-0.0326298390 0.0199347580 -1 0
-0.0299418230 0.0191045700 0 0
-0.0271200480 0.0174657830 0 0
-0.0244625530 0.0151579500 0 0
-0.0222475450 0.0123853560 0 0
-0.0207075010 0.0093991600 0 0
-0.0200067190 0.0064749580 0 0
-0.0202245950 0.0038865020 0 0
-0.0213478640 0.0018779340 0 0
-0.0232719280 0.0006380380 0 0
-0.0258098740 0.0002798800 0 0
-0.0287099610 0.0008284620 0 0
-0.0316824500 0.0022177300 -1 0
-0.0344319770 0.0042971030 -1 0
-0.0366885730 0.0068471510 -1 0
-0.0382329310 0.0096028660 -1 0
-0.0389152670 0.0122813680 -1 0
-0.0386686150 0.0146105800 -1 0
-0.0375161320 0.0163563260 -1 0
-0.0355698440 0.0173453290 -1 0
-0.0330190370 0.0174816310 -1 0
-0.0301107520 0.0167551020 -1 0
-0.0271270100 0.0152419040 0 0
-0.0243609910 0.0130970340 0 0
-0.0220914080 0.0105393970 0 0
-0.0205547900 0.0078304990 0 0
-0.0199187040 0.0052489580 0 0
-0.0202618170 0.0030635330 0 0
-0.0215655370 0.0015066590 0 0
-0.0237174140 0.0007497280 0 0
-0.0265231510 0.0008826580 0 0
-0.0297248130 0.0019020220 0 0
-0.0330249090 0.0037109890 -1 0
-0.0361154930 0.0061310020 -1 0
-0.0387093890 0.0089226440 -1 0
-0.0405698620 0.0118122660 -1 0
-0.0415353360 0.0145209800 -1 0
-0.0415359220 0.0167925680 -1 0
-0.0405988890 0.0184173540 -1 0
-0.0388416950 0.0192503190 -1 0
-0.0364544970 0.0192230020 -1 0
-0.0336777110 0.0183489220 -1 0
-0.0307798320 0.0167217620 -1 0
-0.0280358210 0.0145059190 0 0
-0.0257038030 0.0119203950 0 0
-0.0240006700 0.0092178590 0 0
-0.0230799490 0.0066606800 0 0
-0.0230152600 0.0044956920 0 0
-0.0237917350 0.0029301430 0 0
-0.0253071750 0.0021121960 0 0
-0.0273838370 0.0021188050 0 0
-0.0297893550 0.0029511250 0 0
-0.0322625230 0.0045357150 -1 0
-0.0345397110 0.0067303510 -1 0
-0.0363798400 0.0093342140 -1 0
-0.0375862370 0.0121027490 -1 0
-0.0380228860 0.0147681960 -1 0
-0.0376238770 0.0170658910 -1 0
-0.0363977570 0.0187632110 -1 0
-0.0344289690 0.0196859000 -1 0
-0.0318754090 0.0197374200 -1 0
-0.0289584950 0.0189095340 0 0
-0.0259438210 0.0172838610 0 0
-0.0231142240 0.0150242600 0 0
-0.0207390590 0.0123603900 0 0
-0.0190440160 0.0095638660 0 0
-0.0181859810 0.0069196560 0 0
-0.0182367500 0.0046970750 0 0
-0.0191774230 0.0031247910 0 0
-0.0209024210 0.0023714530 0 0
-0.0232306650 0.0025309460 0 0
-0.0259227300 0.0036117160 0 0
-0.0287037110 0.0055319850 0 0
-0.0312896890 0.0081240220 -1 0
-0.0334144670 0.0111488500 -1 0
-0.0348549600 0.0143199170 -1 0
-0.0354545980 0.0173329240 -1 0
-0.0351417380 0.0198986130 -1 0
-0.0339380290 0.0217745380 -1 0
-0.0319545200 0.0227914420 -1 0
-0.0293780630 0.0228707710 0 0
-0.0264515430 0.0220312910 0 0
-0.0234502680 0.0203842980 0 0
-0.0206569110 0.0181185180 0 0
-0.0183364300 0.0154775450 0 0
-0.0167109650 0.0127334930 0 0
-0.0159366560 0.0101599250 0 0
-0.0160866330 0.0080065050 0 0
-0.0171428990 0.0064775490 0 0
-0.0189979860 0.0057161890 0 0
-0.0214672140 0.0057943260 0 0
-0.0243098080 0.0067074680 0 0
-0.0272534070 0.0083744820 0 0
-0.0300182950 0.0106430480 -1 0
-0.0323426740 0.0133010150 -1 0
-0.0340098950 0.0160936290 -1 0
-0.0348737570 0.0187465870 -1 0
-0.0348766260 0.0209931470 -1 0
-0.0340569810 0.0226019870 -1 0
-0.0325440380 0.0234025250 -1 0
-0.0305395760 0.0233048320 -1 0
-0.0282911620 0.0223113570 0 0
-0.0260623850 0.0205186430 0 0
-0.0241050220 0.0181087630 0 0
-0.0226372790 0.0153311460 0 0
-0.0218288770 0.0124759880 0 0
-0.0217895400 0.0098422380 0 0
-0.0225585060 0.0077050360 0 0
-0.0240971760 0.0062871560 0 0
-0.0262884140 0.0057373680 0 0
-0.0289444070 0.0061176930 0 0
-0.0318230770 0.0074000800 -1 0
-0.0346514860 0.0094708190 -1 0
-0.0371536850 0.0121407700 -1 0
-0.0390797290 0.0151615760 -1 0
-0.0402319630 0.0182485700 -1 0
-0.0404856180 0.0211086540 -1 0
-0.0398027100 0.0234689930 -1 0
-0.0382380440 0.0251026890 -1 0
-0.0359348910 0.0258493280 -1 0
-0.0331090680 0.0256293780 -1 0
-0.0300241690 0.0244517230 -1 0
-0.0269637360 0.0224135530 0 0
-0.0242052350 0.0196921980 0 0
-0.0219968670 0.0165292510 0 0
-0.0205363150 0.0132081200 0 0
-0.0199527910 0.0100267570 0 0
-0.0202954370 0.0072688670 0 0
-0.0215299250 0.0051776010 0 0
-0.0235428580 0.0039341770 0 0
-0.0261524260 0.0036421310 0 0
-0.0291243400 0.0043180010 0 0
-0.0321934080 0.0058894450 -1 0
-0.0350893790 0.0082009480 -1 0
-0.0375625620 0.0110264090 -1 0
-0.0394055900 0.0140881220 -1 0
-0.0404713690 0.0170819950 -1 0
-0.0406882480 0.0197078380 -1 0
-0.0400707500 0.0217017380 -1 0
-0.0387212570 0.0228660530 -1 0
-0.0368191600 0.0230922360 -1 0
-0.0345988030 0.0223728620 -1 0
-0.0323212910 0.0208011830 -1 0
-0.0302455670 0.0185581840 -1 0
-0.0286023480 0.0158887670 0 0
-0.0275722730 0.0130711360 0 0
-0.0272686670 0.0103855650 0 0
-0.0277262430 0.0080880320 0 0
-0.0288976300 0.0063902540 0 0
-0.0306577790 0.0054438210 -1 0
-0.0328152640 0.0053271160 -1 0
-0.0351310480 0.0060376230 -1 0
-0.0373448720 0.0074930220 -1 0
-0.0392055790 0.0095412130 -1 0
-0.0404994180 0.0119764230 -1 0
-0.0410718090 0.0145586760 -1 0
-0.0408406820 0.0170352900 -1 0
-0.0398016240 0.0191632430 -1 0
-0.0380266880 0.0207308320 -1 0
-0.0356585200 0.0215767650 -1 0
-0.0328993670 0.0216047660 -1 0
-0.0299936300 0.0207926280 0 0
-0.0272042440 0.0191955590 0 0
-0.0247858530 0.0169433440 0 0
-0.0229595960 0.0142304910 0 0
-0.0218936060 0.0112995850 0 0
-0.0216906270 0.0084192350 0 0
-0.0223819920 0.0058582180 0 0
-0.0239269080 0.0038575750 0 0
-0.0262159470 0.0026034730 0 0
-0.0290773740 0.0022050690 0 0
-0.0322861070 0.0026819230 -1 0
-0.0355765230 0.0039634900 -1 0
-0.0386606740 0.0058998730 -1 0
-0.0412528070 0.0082806240 -1 0
-0.0430985770 0.0108581810 -1 0
-0.0440045740 0.0133730160 -1 0
-0.0438633270 0.0155779860 -1 0
-0.0426698460 0.0172603320 -1 0
-0.0405258140 0.0182604970 -1 0
-0.0376286980 0.0184866860 -1 0
-0.0342474560 0.0179237820 -1 0
-0.0306908560 0.0166353480 -1 0
-0.0272742720 0.0147578280 0 0
-0.0242882300 0.0124870240 0 0
-0.0219712650 0.0100582360 0 0
-0.0204901020 0.0077222190 0 0
-0.0199286500 0.0057195120 0 0
-0.0202850540 0.0042561860 0 0
-0.0214756910 0.0034834940 0 0
-0.0233455000 0.0034827310 0 0
-0.0256831560 0.0042567310 0 0
-0.0282384960 0.0057297870 0 0
-0.0307416790 0.0077561700 -1 0
-0.0329263970 0.0101355670 -1 0
-0.0345576630 0.0126331480 -1 0
-0.0354596980 0.0150022200 -1 0
-0.0355375410 0.0170080350 -1 0
-0.0347889750 0.0184514580 -1 0
-0.0333065920 0.0191899400 -1 0
-0.0312688150 0.0191519990 -1 0
-0.0289175130 0.0183427510 0 0
-0.0265246060 0.0168411380 0 0
-0.0243565640 0.0147910340 0 0
-0.0226456680 0.0123880050 0 0
-0.0215709970 0.0098629970 0 0
-0.0212468550 0.0074637900 0 0
-0.0217154760 0.0054342210 0 0
-0.0229430070 0.0039909740 0 0
-0.0248198680 0.0032995220 0 0
-0.0271672850 0.0034536520 0 0
-0.0297518710 0.0044637620 0 0
-0.0323092900 0.0062561630 -1 0
-0.0345749900 0.0086817330 -1 0
-0.0363162140 0.0115308560 -1 0
-0.0373580660 0.0145525780 -1 0
-0.0375990530 0.0174768850 -1 0
-0.0370161330 0.0200391110 -1 0
-0.0356626380 0.0220048950 -1 0
-0.0336624720 0.0231934520 -1 0
-0.0312010400 0.0234965250 -1 0
-0.0285107300 0.0228907640 0 0
-0.0258497800 0.0214418290 0 0
-0.0234765790 0.0192986210 0 0
-0.0216239240 0.0166779440 0 0
-0.0204773720 0.0138424680 0 0
-0.0201581270 0.0110747220 0 0
-0.0207096140 0.0086487400 0 0
-0.0220899280 0.0068021210 0 0
-0.0241735330 0.0057124590 0 0
-0.0267635340 0.0054811480 0 0
-0.0296138890 0.0061256130 0 0
-0.0324575640 0.0075797250 -1 0
-0.0350335910 0.0097017210 -1 0
-0.0371085730 0.0122888740 -1 0
-0.0384934430 0.0150974050 -1 0
-0.0390577420 0.0178651510 -1 0
-0.0387411100 0.0203348100 -1 0
-0.0375596180 0.0222771880 -1 0
-0.0356057610 0.0235138330 -1 0
-0.0330427560 0.0239358570 -1 0
-0.0300934470 0.0235145740 -1 0
-0.0270228090 0.0223021660 0 0
-0.0241132890 0.0204238650 0 0
-0.0216348910 0.0180642110 0 0
-0.0198158070 0.0154493900 0 0
-0.0188195320 0.0128268300 0 0
-0.0187306270 0.0104429940 0 0
-0.0195481600 0.0085209210 0 0
-0.0211851150 0.0072399030 0 0
-0.0234734590 0.0067192800 0 0
-0.0261766170 0.0070071630 0 0
-0.0290104970 0.0080753300 0 0
-0.0316715230 0.0098219910 -1 0
-0.0338688490 0.0120821660 -1 0
-0.0353575110 0.0146431830 -1 0
-0.0359677680 0.0172631610 -1 0
-0.0356248400 0.0196920560 -1 0
-0.0343554320 0.0216953140 -1 0
-0.0322815080 0.0230784530 -1 0
-0.0296042220 0.0237086840 0 0
-0.0265811300 0.0235295570 0 0
-0.0234994860 0.0225664300 0 0
-0.0206483380 0.0209231490 0 0
-0.0182916010 0.0187717820 0 0
-0.0166435590 0.0163361290 0 0
-0.0158485410 0.0138685790 0 0
-0.0159676320 0.0116217980 0 0
-0.0169743450 0.0098199560 0 0
-0.0187584340 0.0086349540 0 0
-0.0211364290 0.0081705310 0 0
-0.0238690860 0.0084542610 0 0
-0.0266855630 0.0094367480 0 0
-0.0293111490 0.0109973500 0 0
-0.0314940230 0.0129554750 -1 0
-0.0330278640 0.0150868170 -1 0
-0.0337690650 0.0171443980 -1 0
-0.0336482960 0.0188835200 -1 0
-0.0326767680 0.0200881140 -1 0
-0.0309469630 0.0205949510 -1 0
-0.0286260160 0.0203127720 0 0
-0.0259405490 0.0192345150 0 0
-0.0231553900 0.0174410240 0 0
-0.0205499800 0.0150949000 0 0
-0.0183934880 0.0124240850 0 0
-0.0169184590 0.0096963860 0 0
-0.0162949920 0.0071887070 0 0
-0.0166096010 0.0051566660 0 0
-0.0178533760 0.0038091010 0 0
-0.0199221130 0.0032886550 0 0
-0.0226278910 0.0036583200 0 0
-0.0257197800 0.0048949370 0 0
-0.0289106970 0.0068912410 0 0
-0.0319064780 0.0094663570 -1 0
-0.0344334800 0.0123826910 -1 0
-0.0362634930 0.0153675390 -1 0
-0.0372357310 0.0181389600 -1 0
-0.0372735260 0.0204342740 -1 0
-0.0363918130 0.0220372560 -1 0
-0.0346939660 0.0227996030 -1 0
-0.0323599270 0.0226534920 -1 0
-0.0296277160 0.0216146600 0 0
-0.0267694940 0.0197781330 0 0
-0.0240645370 0.0173092190 0 0
-0.0217729130 0.0144303430 0 0
-0.0201128400 0.0114026400 0 0
-0.0192426660 0.0085022090 0 0
-0.0192472020 0.0059937500 0 0
-0.0201289580 0.0041057270 0 0
-0.0218061150 0.0030099630 0 0
-0.0241184500 0.0028063890 0 0
-0.0268406680 0.0035132870 0 0
-0.0297019170 0.0050643470 0 0
-0.0324106070 0.0073136510 -1 0
-0.0346836150 0.0100486160 -1 0
-0.0362776310 0.0130099520 -1 0
-0.0370186690 0.0159166640 -1 0
-0.0368247340 0.0184931240 -1 0
-0.0357168720 0.0204953720 -1 0
-0.0338163920 0.0217349390 -1 0
-0.0313297560 0.0220984490 -1 0
-0.0285244200 0.0215599010 0 0
-0.0256988890 0.0201831410 0 0
-0.0231506050 0.0181149440 0 0
-0.0211457880 0.0155707700 0 0
-0.0198948360 0.0128142990 0 0
-0.0195355560 0.0101311180 0 0
-0.0201248840 0.0077985220 0 0
-0.0216378050 0.0060559930 0 0
-0.0239702810 0.0050812050 0 0
-0.0269441660 0.0049742030 0 0
-0.0303161880 0.0057498240 -1 0
-0.0337948890 0.0073374140 -1 0
-0.0370669220 0.0095872660 -1 0
-0.0398302140 0.0122842050 -1 0
-0.0418283740 0.0151687970 -1 0
-0.0428795570 0.0179647310 -1 0
-0.0428955430 0.0204076920 -1 0
-0.0418906970 0.0222706310 -1 0
-0.0399813880 0.0233832820 -1 0
-0.0373747040 0.0236463390 -1 0
-0.0343458430 0.0230407660 -1 0
-0.0312071360 0.0216310970 -1 0
-0.0282743160 0.0195608120 0 0
-0.0258347030 0.0170390650 0 0
-0.0241198120 0.0143200180 0 0
-0.0232843800 0.0116769760 0 0
-0.0233936960 0.0093741870 0 0
-0.0244197000 0.0076400160 0 0
-0.0262446180 0.0066447840 0 0
-0.0286711710 0.0064850730 0 0
-0.0314402160 0.0071754020 -1 0
-0.0342565750 0.0086475490 -1 0
-0.0368197460 0.0107567030 -1 0
-0.0388539240 0.0132935620 -1 0
-0.0401352750 0.0160023280 -1 0
-0.0405164510 0.0186045880 -1 0
-0.0399450670 0.0208276530 -1 0
-0.0384709810 0.0224344290 -1 0
-0.0362403750 0.0232506490 -1 0
-0.0334782220 0.0231847270 -1 0
-0.0304621070 0.0222370510 -1 0
-0.0274916920 0.0204986520 0 0
-0.0248584430 0.0181405100 0 0
-0.0228184080 0.0153945200 0 0
-0.0215699080 0.0125278630 0 0
-0.0212381800 0.0098145490 0 0
-0.0218676500 0.0075087260 0 0
-0.0234202910 0.0058228400 0 0
-0.0257784030 0.0049113030 0 0
-0.0287524510 0.0048590390 0 0
-0.0320956540 0.0056746360 -1 0
-0.0355248680 0.0072887560 -1 0
-0.0387454300 0.0095590200 -1 0
-0.0414783680 0.0122819720 -1 0
-0.0434878570 0.0152113100 -1 0
-0.0446057470 0.0180802420 -1 0
-0.0447503890 0.0206250590 -1 0
-0.0439372410 0.0226076810 -1 0
-0.0422785800 0.0238367700 -1 0
-0.0399709600 0.0241871210 -1 0
-0.0372716440 0.0236151800 -1 0
-0.0344686210 0.0221672470 -1 0
-0.0318510010 0.0199778060 -1 0
-0.0296836900 0.0172575240 0 0
-0.0281858600 0.0142720620 0 0
-0.0275125640 0.0113140500 0 0
-0.0277411270 0.0086719570 0 0
-0.0288637850 0.0065996990 0 0
-0.0307865540 0.0052900680 -1 0
-0.0333345120 0.0048551560 -1 0
-0.0362649680 0.0053169490 -1 0
-0.0392895000 0.0066088840 -1 0
-0.0421032280 0.0085863280 -1 0
-0.0444175520 0.0110431790 -1 0
-0.0459919790 0.0137324150 -1 0
-0.0466604220 0.0163889720 -1 0
-0.0463486970 0.0187536370 -1 0
-0.0450824260 0.0205966990 -1 0
-0.0429847900 0.0217394670 -1 0
-0.0402632710 0.0220711460 -1 0
-0.0371868520 0.0215592960 -1 0
-0.0340570710 0.0202535120 -1 0
-0.0311767170 0.0182819340 -1 0
-0.0288201260 0.0158396970 0 0
-0.0272080200 0.0131696260 0 0
-0.0264885920 0.0105372890 0 0
-0.0267257510 0.0082037700 0 0
-0.0278941640 0.0063998870 0 0
-0.0298804770 0.0053045630 0 0
-0.0324919910 0.0050280610 -1 0
-0.0354746600 0.0056004230 -1 0
-0.0385397810 0.0069666040 -1 0
-0.0413949580 0.0089904740 -1 0
-0.0437734190 0.0114685210 -1 0
-0.0454578170 0.0141517120 -1 0
-0.0462979760 0.0167719780 -1 0
-0.0462231520 0.0190692080 -1 0
-0.0452482170 0.0208159470 -1 0
-0.0434720740 0.0218392000 -1 0
-0.0410671550 0.0220386240 -1 0
-0.0382608100 0.0213982500 -1 0
-0.0353119090 0.0199886390 -1 0
-0.0324870400 0.0179587800 -1 0
-0.0300391050 0.0155193280 -1 0
-0.0281882780 0.0129201010 0 0
-0.0271042340 0.0104251380 0 0
-0.0268899810 0.0082878540 0 0
-0.0275692960 0.0067277710 0 0
-0.0290801630 0.0059100270 0 0
-0.0312763700 0.0059291110 -1 0
-0.0339387340 0.0067984190 -1 0
-0.0367955120 0.0084471130 -1 0
-0.0395497820 0.0107255380 -1 0
-0.0419112650 0.0134194780 -1 0
-0.0436296000 0.0162716870 -1 0
-0.0445249630 0.0190071790 -1 0
-0.0445110920 0.0213588220 -1 0
-0.0436062930 0.0230916320 -1 0
-0.0419299280 0.0240254360 -1 0
-0.0396846140 0.0240549740 -1 0
-0.0371272500 0.0231647790 -1 0
-0.0345354910 0.0214350510 -1 0
-0.0321776300 0.0190355140 -1 0
-0.0302893560 0.0162067190 -1 0
-0.0290555980 0.0132314750 0 0
-0.0285963480 0.0104020900 0 0
-0.0289578750 0.0079891830 0 0
-0.0301097400 0.0062155490 -1 0
-0.0319471480 0.0052367680 -1 0
-0.0342995730 0.0051293730 -1 0
-0.0369465470 0.0058864530 -1 0
-0.0396387410 0.0074200920 -1 0
-0.0421202780 0.0095701440 -1 0
-0.0441490460 0.0121190660 -1 0
-0.0455151110 0.0148123600 -1 0
-0.0460599000 0.0173827140 -1 0
-0.0456968200 0.0195744570 -1 0
-0.0444282030 0.0211660500 -1 0
-0.0423506120 0.0219903610 -1 0
-0.0396446490 0.0219520200 -1 0
-0.0365529020 0.0210390640 -1 0
-0.0333533440 0.0193258980 -1 0
-0.0303331360 0.0169663110 -1 0
-0.0277636380 0.0141774600 0 0
-0.0258758980 0.0112175350 0 0
-0.0248372720 0.0083606730 0 0
-0.0247319120 0.0058718040 0 0
-0.0255490450 0.0039825010 0 0
-0.0271830290 0.0028688050 0 0
-0.0294467200 0.0026333830 0 0
-0.0320952880 0.0032949410 -1 0
-0.0348547420 0.0047865870 -1 0
-0.0374504810 0.0069629930 -1 0
-0.0396335390 0.0096147120 -1 0
-0.0412027210 0.0124875700 -1 0
-0.0420207140 0.0153057680 -1 0
-0.0420234440 0.0177976470 -1 0
-0.0412232780 0.0197223490 -1 0
-0.0397068430 0.0208946730 -1 0
-0.0376280960 0.0212051830 -1 0
-0.0351968670 0.0206332730 -1 0
-0.0326621840 0.0192509920 -1 0
-0.0302899990 0.0172158960 -1 0
-0.0283368750 0.0147535520 0 0
-0.0270234110 0.0121325070 0 0
-0.0265114120 0.0096353210 0 0
-0.0268864500 0.0075293430 0 0
-0.0281460660 0.0060404240 0 0
-0.0301953510 0.0053319190 -1 0
-0.0328527370 0.0054906130 -1 0
-0.0358672070 0.0065203030 -1 0
-0.0389452360 0.0083429830 -1 0
-0.0417839290 0.0108072010 -1 0
-0.0441059190 0.0137026230 -1 0
-0.0456902500 0.0167792350 -1 0
-0.0463940710 0.0197695370 -1 0
-0.0461639680 0.0224117590 -1 0
-0.0450387060 0.0244721220 -1 0
-0.0431445530 0.0257651440 -1 0
-0.0406827120 0.0261715940 -1 0
-0.0379089910 0.0256524950 -1 0
-0.0351079790 0.0242562710 -1 0
-0.0325647200 0.0221166270 -1 0
-0.0305362670 0.0194407870 -1 0
-0.0292259530 0.0164895500 0 0
-0.0287640790 0.0135514620 0 0
-0.0291971760 0.0109136260 0 0
-0.0304852180 0.0088321890 -1 0
-0.0325058020 0.0075062230 -1 0
-0.0350658350 0.0070584940 -1 0
-0.0379207760 0.0075250140 -1 0
-0.0407991270 0.0088532050 -1 0
-0.0434284770 0.0109074050 -1 0
-0.0455596110 0.0134806590 -1 0
-0.0469867920 0.0163123710 -1 0
-0.0475645940 0.0191115340 -1 0
-0.0472216820 0.0215847110 -1 0
-0.0459701140 0.0234667350 -1 0
-0.0439082300 0.0245506080 -1 0
-0.0412150880 0.0247120830 -1 0
-0.0381342510 0.0239250870 -1 0
-0.0349479410 0.0222655500 -1 0
-0.0319469640 0.0199026570 -1 0
-0.0294015940 0.0170790690 0 0
-0.0275356540 0.0140839040 0 0
-0.0265053220 0.0112222680 0 0
-0.0263851890 0.0087842510 0 0
-0.0271632160 0.0070161710 0 0
-0.0287438780 0.0060967190 0 0
-0.0309581610 0.0061204040 -1 0
-0.0335796710 0.0070903010 -1 0
-0.0363451420 0.0089209020 -1 0
-0.0389768440 0.0114492680 -1 0
-0.0412061660 0.0144513150 -1 0
-0.0427986190 0.0176613240 -1 0
-0.0435788340 0.0207947230 -1 0
-0.0434520600 0.0235739060 -1 0
-0.0424175810 0.0257550870 -1 0
-0.0405701530 0.0271525830 -1 0
-0.0380884070 0.0276568320 -1 0
-0.0352129650 0.0272441310 -1 0
-0.0322195500 0.0259779900 -1 0
-0.0293915040 0.0240027200 0 0
-0.0269936100 0.0215297310 0 0
-0.0252476910 0.0188168790 0 0
-0.0243107940 0.0161420600 0 0
-0.0242580040 0.0137743050 0 0
-0.0250731840 0.0119465350 0 0
-0.0266506160 0.0108333040 0 0
-0.0288077090 0.0105354570 0 0
-0.0313059110 0.0110719370 -1 0
-0.0338761090 0.0123782160 -1 0
-0.0362453520 0.0143117510 -1 0
-0.0381621900 0.0166657180 -1 0
-0.0394192890 0.0191905780 -1 0
-0.0398735000 0.0216201170 -1 0
-0.0394621640 0.0236976950 -1 0
-0.0382120020 0.0252004930 -1 0
-0.0362369930 0.0259610270 -1 0
-0.0337249490 0.0258842880 -1 0
-0.0309166650 0.0249580950 -1 0
-0.0280823970 0.0232554050 0 0
-0.0254976670 0.0209282300 0 0
-0.0234185970 0.0181928610 0 0
-0.0220574530 0.0153073740 0 0
-0.0215599390 0.0125444870 0 0
-0.0219869820 0.0101633570 0 0
-0.0233049130 0.0083833760 0 0
-0.0253874010 0.0073630550 0 0
-0.0280296010 0.0071865170 0 0
-0.0309714950 0.0078583070 -1 0
-0.0339256710 0.0093056630 -1 0
-0.0366058690 0.0113865660 -1 0
-0.0387543200 0.0139019950 -1 0
-0.0401655270 0.0166118190 -1 0
-0.0407038160 0.0192545010 -1 0
-0.0403140400 0.0215698110 -1 0
-0.0390267590 0.0233223600 -1 0
-0.0369578390 0.0243237880 -1 0
-0.0343003040 0.0244521440 -1 0
-0.0313072440 0.0236664080 -1 0
-0.0282672220 0.0220137920 0 0
-0.0254755780 0.0196284920 0 0
-0.0232051870 0.0167213280 0 0
-0.0216790310 0.0135600570 0 0
-0.0210464340 0.0104420540 0 0
-0.0213662050 0.0076631640 0 0
-0.0225997170 0.0054865110 0 0
-0.0246147040 0.0041142300 0 0
-0.0271997200 0.0036657120 0 0
-0.0300885700 0.0041663610 -1 0
-0.0329906140 0.0055483850 -1 0
-0.0356205110 0.0076610730 -1 0
-0.0377238400 0.0102867630 -1 0
-0.0390987490 0.0131612420 -1 0
-0.0396135620 0.0159988870 -1 0
-0.0392183680 0.0185210810 -1 0
-0.0379487930 0.0204844500 -1 0
-0.0359214260 0.0217054370 -1 0
-0.0333205870 0.0220786310 -1 0
-0.0303774490 0.0215867620 -1 0
-0.0273460880 0.0203010950 0 0
-0.0244821890 0.0183724530 0 0
-0.0220259430 0.0160143030 0 0
-0.0201862080 0.0134795710 0 0
-0.0191238910 0.0110334350 0 0
-0.0189364970 0.0089255140 0 0
-0.0196473360 0.0073654530 0 0
-0.0212010960 0.0065047420 0 0
-0.0234660650 0.0064251370 0 0
-0.0262435470 0.0071326740 0 0
-0.0292850350 0.0085570650 0 0
-0.0323161520 0.0105574600 -1 0
-0.0350641630 0.0129351620 -1 0
-0.0372848960 0.0154524370 -1 0
-0.0387864360 0.0178552520 -1 0
-0.0394480590 0.0198973990 -1 0
-0.0392324140 0.0213638860 -1 0
-0.0381894150 0.0220920230 -1 0
-0.0364515310 0.0219885850 -1 0
-0.0342205320 0.0210411820 -1 0
-0.0317466320 0.0193219420 -1 0
-0.0293027680 0.0169824710 0 0
-0.0271574470 0.0142403000 0 0
-0.0255480570 0.0113581290 0 0
-0.0246556160 0.0086179070 0 0
-0.0245833960 0.0062924580 0 0
-0.0253436860 0.0046177990 0 0
-0.0268563080 0.0037694680 0 0
-0.0289596970 0.0038453700 0 0
-0.0314317260 0.0048561390 -1 0
-0.0340149170 0.0067231500 -1 0
-0.0364421500 0.0092847220 -1 0
-0.0384625980 0.0123108410 -1 0
-0.0398672040 0.0155249390 -1 0
-0.0405097980 0.0186302250 -1 0
-0.0403200690 0.0213390200 -1 0
-0.0393080880 0.0234033100 -1 0
-0.0375625250 0.0246422130 -1 0
-0.0352442750 0.0249605690 -1 0
-0.0325744490 0.0243552770 -1 0
-0.0298148090 0.0229107230 0 0
-0.0272418670 0.0207872770 0 0
-0.0251182560 0.0182053280 0 0
-0.0236647740 0.0154248940 0 0
-0.0230363920 0.0127209280 0 0
-0.0233053650 0.0103564410 0 0
-0.0244536030 0.0085572370 0 0
-0.0263755210 0.0074918710 0 0
-0.0288906960 0.0072584980 0 0
-0.0317633100 0.0078780590 -1 0
-0.0347253100 0.0092929060 -1 0
-0.0375018140 0.0113711570 -1 0
-0.0398365940 0.0139177860 -1 0
-0.0415141130 0.0166922580 -1 0
-0.0423770820 0.0194309690 -1 0
-0.0423417370 0.0218722850 -1 0
-0.0414108560 0.0237820900 -1 0
-0.0396793800 0.0249776290 -1 0
-0.0373276640 0.0253470110 -1 0
-0.0346030330 0.0248616430 -1 0
-0.0317939350 0.0235794970 -1 0
-0.0291997810 0.0216386880 0 0
-0.0270985840 0.0192426050 0 0
-0.0257161070 0.0166389390 0 0
-0.0252015640 0.0140952650 0 0
-0.0256135470 0.0118734360 0 0
-0.0269173340 0.0102044340 0 0
-0.0289923410 0.0092656750 0 0
-0.0316471440 0.0091632510 -1 0
-0.0346392660 0.0099209410 -1 0
-0.0376974680 0.0114769240 -1 0
-0.0405453100 0.0136883480 -1 0
-0.0429254560 0.0163434870 -1 0
-0.0446241280 0.0191811510 -1 0
-0.0454939960 0.0219167050 -1 0
-0.0454712610 0.0242726880 -1 0
-0.0445818750 0.0260099510 -1 0
-0.0429358450 0.0269540390 -1 0
-0.0407133370 0.0270127060 -1 0
-0.0381467310 0.0261832120 -1 0
-0.0355007790 0.0245502650 -1 0
-0.0330508670 0.0222763900 -1 0
-0.0310578510 0.0195865190 -1 0
-0.0297395930 0.0167478070 0 0
-0.0292437840 0.0140452370 0 0
-0.0296288280 0.0117541450 0 0
-0.0308574080 0.0101121580 -1 0
-0.0328031880 0.0092942220 -1 0
-0.0352680340 0.0093943270 -1 0
-0.0380059110 0.0104162370 -1 0
-0.0407489410 0.0122744920 -1 0
-0.0432320820 0.0148054680 -1 0
-0.0452159970 0.0177857850 -1 0
-0.0465086510 0.0209538580 -1 0
-0.0469837070 0.0240320390 -1 0
-0.0465924400 0.0267498140 -1 0
-0.0453679870 0.0288686550 -1 0
-0.0434227540 0.0302062940 -1 1
-0.0409392550 0.0306560030 -1 1
-0.0381539110 0.0301968530 -1 1
-0.0353345630 0.0288933670 -1 0
-0.0327548420 0.0268860310 -1 0
-0.0306692300 0.0243757390 -1 0
-0.0292907510 0.0216049470 0 0
-0.0287711610 0.0188368810 0 0
-0.0291843420 0.0163327600 0 0
-0.0305160650 0.0143272180 -1 0
-0.0326630760 0.0130043690 -1 0
-0.0354417500 0.0124786980 -1 0
-0.0386053860 0.0127840250 -1 0
-0.0418690140 0.0138712660 -1 0
-0.0449387150 0.0156140420 -1 0
-0.0475413570 0.0178210310 -1 0
-0.0494515940 0.0202545860 -1 0
-0.0505134480 0.0226548520 -1 0
-0.0506541110 0.0247670590 -1 0
-0.0498890550 0.0263682030 -1 0
-0.0483185300 0.0272892730 -1 0
-0.0461158180 0.0274311260 -1 0
-0.0435087190 0.0267733380 -1 0
-0.0407563650 0.0253756140 -1 0
-0.0381231340 0.0233722210 -1 0
-0.0358520100 0.0209601290 -1 0
-0.0341410830 0.0183805770 -1 0
-0.0331265170 0.0158945370 -1 0
-0.0328731640 0.0137548210 -1 0
-0.0333718550 0.0121790000 -1 0
-0.0345422340 0.0113266840 -1 0
-0.0362413670 0.0112832830 -1 0
-0.0382786850 0.0120515010 -1 0
-0.0404360780 0.0135509410 -1 0
-0.0424893900 0.0156254560 -1 0
-0.0442270010 0.0180576450 -1 0
-0.0454636870 0.0205894960 -1 0
-0.0460506460 0.0229471210 -1 0
-0.0458836060 0.0248667440 -1 0
-0.0449114800 0.0261193240 -1 0
-0.0431467500 0.0265320730 -1 0
-0.0406739070 0.0260052640 -1 0
-0.0376488880 0.0245220210 -1 0
-0.0342865880 0.0221489430 -1 0
-0.0308402900 0.0190276330 -1 0
-0.0275765880 0.0153594830 0 0
-0.0247457310 0.0113857790 0 0
-0.0225495520 0.0073640210 0 0
-0.0211137120 0.0035418970 0 0
-0.0204701610 0.0001316220 0 0
-0.0205513300 -0.0027120150 0 0
-0.0211954010 -0.0049067000 0 0
-0.0221622650 -0.0064491130 0 0
-0.0231593950 -0.0074136640 0 0
-0.0238751110 -0.0079449100 0 0
-0.0240146900 -0.0082438240 0 0
-0.0233339090 -0.0085475480 0 0
-0.0216651940 -0.0091045130 0 0
-0.0189336630 -0.0101487030 0 0
-0.0151628130 -0.0118758360 0 0
-0.0104704540 -0.0144232280 0 0
-0.0050558430 -0.0178554810 0 0
0.0008202230 -0.0221574710 0 0
0.0068601790 -0.0272351220 0 0
0.0127575960 -0.0329238570 0 -1
0.0182266350 -0.0390034380 0 -1
0.0230301850 -0.0452168520 0 -1
0.0270018890 -0.0512913700 0 -1
0.0300581360 -0.0569605050 1 -1
0.0322001230 -0.0619858430 1 -1
0.0335087550 -0.0661778760 1 -1
0.0341345830 -0.0694145330 1 -1
0.0342841970 -0.0716552890 1 -1
0.0342037810 -0.0729480900 1 -1
0.0341589590 -0.0734261140 1 -1
0.0344105450 -0.0732931290 1 -1
0.0351885980 -0.0727999150 1 -1
0.0366678590 -0.0722170740 1 -1
0.0389467360 -0.0718089430 1 -1
0.0420327380 -0.0718102670 1 -1
0.0458375970 -0.0724058150 1 -1
0.0501836410 -0.0737141090 1 -1
0.0548209420 -0.0757767750 1 -1
0.0594531530 -0.0785541090 1 -1
0.0637687140 -0.0819273620 1 -1
0.0674729250 -0.0857087030 1 -1
0.0703173330 -0.0896588380 1 -1
0.0721250380 -0.0935102260 1 -1
0.0728098130 -0.0969930560 1 -1
0.0723849790 -0.0998617440 1 -1
0.0709603060 -0.1019199450 1 -1
0.0687292140 -0.1030416470 1 -1
0.0659491060 -0.1031855650 1 -1
0.0629166920 -0.1024006010 1 -1
0.0599405810 -0.1008215420 1 -1
0.0573144060 -0.0986554850 1 -1
0.0552926020 -0.0961604640 1 -1
0.0540682590 -0.0936188210 1 -1
0.0537527860 -0.0913082170 1 -1
0.0543611480 -0.0894731810 1 -1
0.0558083140 -0.0883003180 1 -1
0.0579196230 -0.0879001590 1 -1
0.0604525830 -0.0882978070 1 -1
0.0631241150 -0.0894331860 1 -1
0.0656389530 -0.0911701910 1 -1
0.0677186500 -0.0933129660 1 -1
0.0691297680 -0.0956272420 1 -1
0.0697066730 -0.0978645570 1 -1
0.0693659210 -0.0997870300 1 -1
0.0681129210 -0.1011900760 1 -1
0.0660417210 -0.1019211290 1 -1
0.0633268140 -0.1018936350 1 -1
0.0602057750 -0.1010956120 1 -1
0.0569542390 -0.0995915090 1 -1
0.0538576720 -0.0975167820 1 -1
0.0511845000 -0.0950652990 1 -1
0.0491625330 -0.0924698950 1 -1
0.0479581700 -0.0899781660 1 -1
0.0476589850 -0.0878276830 1 -1
0.0482631880 -0.0862236910 1 -1
0.0496792130 -0.0853200750 1 -1
0.0517355470 -0.0852041830 1 -1
0.0541988800 -0.0858870220 1 -1
0.0567982910 -0.0873000680 1 -1
0.0592526490 -0.0892994560 1 -1
0.0612980630 -0.0916782720 1 -1
0.0627128030 -0.0941866320 1 -1
0.0633377180 -0.0965570450 1 -1
0.0630904720 -0.0985315080 1 -1
0.0619722040 -0.0998875790 1 -1
0.0600661660 -0.1004618040 1 -1
0.0575299660 -0.1001685970 1 -1
0.0545832430 -0.0990117860 1 -1
0.0514901930 -0.0970863840 1 -1
0.0485353760 -0.0945696840 1 -1
0.0459943030 -0.0917024590 1 -1
0.0441036340 -0.0887626920 1 -1
0.0430358780 -0.0860356360 1 -1
0.0428817680 -0.0837845520 1 -1
0.0436415870 -0.0822257000 1 -1
0.0452254660 -0.0815093820 1 -1
0.0474623970 -0.0817078820 1 -1
0.0501171490 -0.0828107130 1 -1
0.0529137950 -0.0847267050 1 -1
0.0555637230 -0.0872920280 1 -1
0.0577944240 -0.0902839690 1 -1
0.0593753890 -0.0934404710 1 -1
0.0601391320 -0.0964836550 1 -1
0.0599961520 -0.0991438210 1 -1
0.0589431980 -0.1011816570 1 -1
0.0570652010 -0.1024087840 1 -1
0.0545307510 -0.1027063170 1 -1
0.0515792220 -0.1020391910 1 -1
0.0484976180 -0.1004635650 1 -1
0.0455882620 -0.0981252400 1 -1
0.0431323950 -0.0952477500 1 -1
0.0413565440 -0.0921103720 1 -1
0.0404078350 -0.0890185460 1 -1
0.0403413970 -0.0862711530 1 -1
0.0411191090 -0.0841296240 1 -1
0.0426172490 -0.0827924090 1 -1
0.0446416680 -0.0823763190 1 -1
0.0469492100 -0.0829054980 1 -1
0.0492718440 -0.0843091670 1 -1
0.0513399700 -0.0864291890 1 -1
0.0529044710 -0.0890371730 1 -1
0.0537583850 -0.0918591140 1 -1
0.0537574770 -0.0946043780 1 -1
0.0528375330 -0.0969952920 1 -1
0.0510252100 -0.0987940070 1 -1
0.0484388410 -0.0998242020 1 -1
0.0452775800 -0.0999857460 1 -1
0.0418004730 -0.0992612710 1 -1
0.0382990940 -0.0977151580 1 -1
0.0350679040 -0.0954863150 1 -1
0.0323757590 -0.0927758960 1 -1
0.0304412300 -0.0898306080 1 -1
0.0294140030 -0.0869217400 0 -1
0.0293635050 -0.0843198510 0 -1
0.0302737650 -0.0822668680 1 -1
0.0320434090 -0.0809498430 1 -1
0.0344920280 -0.0804812110 1 -1
0.0373753110 -0.0808887080 1 -1
0.0404089110 -0.0821152780 1 -1
0.0432972420 -0.0840269930 1 -1
0.0457620350 -0.0864271750 1 -1
0.0475677860 -0.0890756930 1 -1
0.0485441720 -0.0917118980 1 -1
0.0486045180 -0.0940789520 1 -1
0.0477562950 -0.0959476100 1 -1
0.0460998930 -0.0971376560 1 -1
0.0438152350 -0.0975350820 1 -1
0.0411389870 -0.0971034490 1 -1
0.0383376560 -0.0958882250 1 -1
0.0356823210 -0.0940133570 1 -1
0.0334269590 -0.0916703970 1 -1
0.0317885280 -0.0891009990 1 -1
0.0309280170 -0.0865735250 1 -1
0.0309347100 -0.0843554390 1 -1
0.0318160300 -0.0826843420 1 -1
0.0334942790 -0.0817407620 1 -1
0.0358122250 -0.0816261160 1 -1
0.0385490390 -0.0823501080 1 -1
0.0414442220 -0.0838306880 1 -1
0.0442238950 -0.0859060970 1 -1
0.0466256000 -0.0883554660 1 -1
0.0484215790 -0.0909237760 1 -1
0.0494402630 -0.0933479040 1 -1
0.0495832000 -0.0953816310 1 -1
0.0488352850 -0.0968179650 1 -1
0.0472673820 -0.0975074320 1 -1
0.0450299820 -0.0973713510 1 -1
0.0423385350 -0.0964090830 1 -1
0.0394540990 -0.0946981650 1 -1
0.0366618690 -0.0923870850 1 -1
0.0342475040 -0.0896816430 1 -1
0.0324708430 -0.0868262730 1 -1
0.0315388150 -0.0840816870 1 -1
0.0315825160 -0.0817009850 1 -1
0.0326431260 -0.0799071480 1 -1
0.0346672300 -0.0788742290 1 -1
0.0375097300 -0.0787129310 1 -1
0.0409440200 -0.0794604880 1 -1
0.0446811630 -0.0810756090 1 -1
0.0483989520 -0.0834395640 1 -1
0.0517780190 -0.0863638470 1 -1
0.0545384750 -0.0896046230 1 -1
0.0564696330 -0.0928843570 1 -1
0.0574478610 -0.0959197510 1 -1
0.0574420530 -0.0984522570 1 -1
0.0565096530 -0.1002761940 1 -1
0.0547865730 -0.1012605790 1 -1
0.0524728200 -0.1013621210 1 -1
0.0498147750 -0.1006279090 1 -1
0.0470847770 -0.0991880290 1 -1
0.0445580870 -0.0972399780 1 -1
0.0424877390 -0.0950276180 1 -1
0.0410797200 -0.0928172730 1 -1
0.0404717040 -0.0908724280 1 -1
0.0407174730 -0.0894281690 1 -1
0.0417782730 -0.0886674550 1 -1
0.0435228890 -0.0887019140 1 -1
0.0457388150 -0.0895595620 1 -1
0.0481554350 -0.0911813700 1 -1
0.0504769730 -0.0934272980 1 -1
0.0524200100 -0.0960909570 1 -1
0.0537482820 -0.0989213660 1 -1
0.0542980500 -0.1016493860 1 -1
0.0539912190 -0.1040158090 1 -1
0.0528372970 -0.1057983700 1 -1
0.0509271620 -0.1068348180 1 -1
0.0484216860 -0.1070388620 1 -1
0.0455364780 -0.1064073140 1 -1
0.0425229560 -0.1050187930 1 -1
0.0396469250 -0.1030250350 1 -1
0.0371653510 -0.1006355470 1 -1
0.0353013780 -0.0980967160 1 -1
0.0342200490 -0.0956673930 1 -1
0.0340093670 -0.0935937230 1 -1
0.0346700810 -0.0920862470 1 -1
0.0361155770 -0.0913013530 1 -1
0.0381823290 -0.0913278220 1 -1
0.0406499700 -0.0921788590 1 -1
0.0432676380 -0.0937900510 1 -1
0.0457813060 -0.0960234250 1 -1
0.0479572460 -0.0986776600 1 -1
0.0496002530 -0.1015048300 1 -1
0.0505680260 -0.1042335280 1 -1
0.0507823560 -0.1065964490 1 -1
0.0502363820 -0.1083587600 1 -1
0.0489964570 -0.1093428760 1 -1
0.0471969320 -0.1094457890 1 -1
0.0450273650 -0.1086470470 1 -1
0.0427138330 -0.1070083490 1 -1
0.0404965290 -0.1046669420 1 -1
0.0386055310 -0.1018240040 1 -1
0.0372374130 -0.0987276730 1 -1
0.0365354890 -0.0956510410 1 -1
0.0365753380 -0.0928675130 1 -1
0.0373569070 -0.0906263790 1 -1
0.0388038970 -0.0891299460 1 -1
0.0407698690 -0.0885128990 1 -1
0.0430507560 -0.0888262200 1 -1
0.0454038440 -0.0900295660 1 -1
0.0475717300 -0.0919946240 1 -1
0.0493081220 -0.0945189710 1 -1
0.0504027870 -0.0973479090 1 -1
0.0507039310 -0.1002009470 1 -1
0.0501359310 -0.1027995330 1 -1
0.0487097350 -0.1048933440 1 -1
0.0465233950 -0.1062833260 1 -1
0.0437518420 -0.1068400220 1 -1
0.0406283110 -0.1065159510 1 -1
0.0374215840 -0.1053514460 1 -1
0.0344112110 -0.1034735350 1 -1
0.0318611840 -0.1010866960 1 -1
0.0299941280 -0.0984538600 0 -1
0.0289697950 -0.0958679390 0 -1
0.0288700630 -0.0936173260 0 -1
0.0296903180 -0.0919513360 0 -1
0.0313374030 -0.0910515590 1 -1
0.0336357600 -0.0910131080 1 -1
0.0363429980 -0.0918375750 1 -1
0.0391739450 -0.0934373900 1 -1
0.0418301940 -0.0956490700 1 -1
0.0440308860 -0.0982519850 1 -1
0.0455409360 -0.1009902080 1 -1
0.0461943750 -0.1035961810 1 -1
0.0459111560 -0.1058154340 1 -1
0.0447052790 -0.1074309570 1 -1
0.0426825450 -0.1082845230 1 -1
0.0400283770 -0.1082918560 1 -1
0.0369884630 -0.1074496870 1 -1
0.0338449080 -0.1058340470 1 -1
0.0308889990 -0.1035904010 1 -1
0.0283917670 -0.1009180630 0 -1
0.0265756820 -0.0980518470 0 -1
0.0255924810 -0.0952420690 0 -1
0.0255109580 -0.0927335160 0 -1
0.0263146830 -0.0907450870 0 -1
0.0279067520 -0.0894517630 0 -1
0.0301194110 -0.0889694840 1 -1
0.0327278510 -0.0893436060 1 -1
0.0354678930 -0.0905424980 1 -1
0.0380576030 -0.0924579070 1 -1
0.0402232160 -0.0949126980 1 -1
0.0417287760 -0.0976757840 1 -1
0.0424054620 -0.1004835840 1 -1
0.0421732960 -0.1030663560 1 -1
0.0410493660 -0.1051763260 1 -1
0.0391418630 -0.1066138850 1 -1
0.0366335810 -0.1072484800 1 -1
0.0337601910 -0.1070320010 1 -1
0.0307874860 -0.1060033860 1 -1
0.0279885810 -0.1042838850 0 -1
0.0256201190 -0.1020636390 0 -1
0.0238976810 -0.0995816000 0 -1
0.0229729320 -0.0971012220 0 -1
0.0229165110 -0.0948839900 0 -1
0.0237102970 -0.0931627440 0 -1
0.0252504710 -0.0921173270 0 -1
0.0273609750 -0.0918554880 0 -1
0.0298152400 -0.0924017770 0 -1
0.0323612750 -0.0936962660 1 -1
0.0347446780 -0.0956027390 1 -1
0.0367280940 -0.0979236500 1 -1
0.0381091600 -0.1004189380 1 -1
0.0387378480 -0.1028274000 1 -1
0.0385310430 -0.1048904870 1 -1
0.0374817430 -0.1063775210 1 -1
0.0356625260 -0.1071092780 1 -1
0.0332233730 -0.1069764500 1 -1
0.0303818130 -0.1059511070 1 -1
0.0274031350 -0.1040907680 0 -1
0.0245725070 -0.1015350230 0 -1
0.0221647320 -0.0984946040 0 -1
0.0204166250 -0.0952331660 0 -1
0.0195036890 -0.0920427760 0 -1
0.0195213840 -0.0892150100 0 -1
0.0204722120 -0.0870107330 0 -1
0.0222613680 -0.0856325040 0 -1
0.0247042220 -0.0852030800 0 -1
0.0275465210 -0.0857525630 0 -1
0.0304937440 -0.0872159190 1 -1
0.0332430300 -0.0894411740 1 -1
0.0355129780 -0.0922066680 1 -1
0.0370701850 -0.0952446490 1 -1
0.0377513650 -0.0982683660 1 -1
0.0374786020 -0.1009997240 1 -1
0.0362665840 -0.1031944240 1 -1
0.0342221010 -0.1046624840 1 -1
0.0315351630 -0.1052834520 1 -1
0.0284603470 -0.1050157650 0 -1
0.0252893830 -0.1038991840 0 -1
0.0223201440 -0.1020503750 0 -1
0.0198284250 -0.0996529810 0 -1
0.0180449680 -0.0969424180 0 -1
0.0171359230 -0.0941846330 0 -1
0.0171854010 -0.0916495850 0 -1
0.0181833210 -0.0895826100 0 -1
0.0200246000 -0.0881777130 0 -1
0.0225220410 -0.0875566620 0 -1
0.0254287730 -0.0877572010 0 -1
0.0284636940 -0.0887317920 0 -1
0.0313363370 -0.0903554980 1 -1
0.0337708870 -0.0924407650 1 -1
0.0355287570 -0.0947575010 1 -1
0.0364284230 -0.0970566390 1 -1
0.0363624160 -0.0990946670 1 -1
0.0353105240 -0.1006566840 1 -1
0.0333457780 -0.1015761300 1 -1
0.0306302560 -0.1017496230 1 -1
0.0274002060 -0.1011455260 0 -1
0.0239425190 -0.0998058260 0 -1
0.0205669920 -0.0978419270 0 -1
0.0175786440 -0.0954250310 0 -1
0.0152517280 -0.0927713470 0 -1
0.0138053240 -0.0901223990 0 -1
0.0133806610 -0.0877215990 0 -1
0.0140215080 -0.0857900340 0 -1
0.0156617830 -0.0845050880 0 -1
0.0181270890 -0.0839835660 0 -1
0.0211545110 -0.0842692520 0 -1
0.0244274070 -0.0853257220 0 -1
0.0276157770 -0.0870366880 0 -1
0.0304136150 -0.0892150500 1 -1
0.0325690530 -0.0916197960 1 -1
0.0339058430 -0.0939794590 1 -1
0.0343359890 -0.0960207800 1 -1
0.0338632970 -0.0974995580 1 -1
0.0325775950 -0.0982293920 1 -1
0.0306414000 -0.0981041290 1 -1
0.0282722470 -0.0971103390 0 -1
0.0257228430 -0.0953279310 0 -1
0.0232600330 -0.0929201650 0 -1
0.0211431860 -0.0901159210 0 -1
0.0196018700 -0.0871862030 0 -1
0.0188131600 -0.0844162410 0 -1
0.0188810010 -0.0820760170 0 -1
0.0198220770 -0.0803933040 0 -1
0.0215619080 -0.0795323080 0 -1
0.0239418220 -0.0795790780 0 -1
0.0267346770 -0.0805343640 0 -1
0.0296665940 -0.0823148040 0 -1
0.0324435790 -0.0847622780 1 -1
0.0347828840 -0.0876593910 1 -1
0.0364454300 -0.0907487140 1 -1
0.0372620840 -0.0937546780 1 -1
0.0371492240 -0.0964072570 1 -1
0.0361144580 -0.0984657340 1 -1
0.0342544130 -0.0997405320 1 -1
0.0317441340 -0.1001113930 1 -1
0.0288175530 -0.0995398720 0 -1
0.0257415600 -0.0980737760 0 -1
0.0227887590 -0.0958421260 0 -1
0.0202130150 -0.0930418060 0 -1
0.0182291020 -0.0899189170 0 -1
0.0169963840 -0.0867470430 0 -1
0.0166069250 -0.0838031460 0 -1
0.0170784660 -0.0813422390 0 -1
0.0183523230 -0.0795734130 0 -1
0.0202963450 -0.0786400990 0 -1
0.0227132460 -0.0786067320 0 -1
0.0253549710 -0.0794530380 0 -1
0.0279440170 -0.0810758670 0 -1
0.0302012260 -0.0832980750 1 -1
0.0318766710 -0.0858843990 1 -1
0.0327777750 -0.0885637160 1 -1
0.0327900370 -0.0910558330 1 -1
0.0318899890 -0.0931007490 1 -1
0.0301509680 -0.0944874560 1 -1
0.0277388250 -0.0950773930 0 -1
0.0248947980 -0.0948175310 0 -1
0.0219078590 -0.0937412420 0 -1
0.0190823940 -0.0919593410 0 -1
0.0167065780 -0.0896457970 0 -1
0.0150247400 -0.0870212240 0 -1
0.0142150860 -0.0843345970 0 -1
0.0143725300 -0.0818422580 0 -1
0.0154968230 -0.0797838320 0 -1
0.0174887870 -0.0783571540 0 -1
0.0201581450 -0.0776966000 0 -1
0.0232433780 -0.0778590150 0 -1
0.0264407400 -0.0788189500 0 -1
0.0294380190 -0.0804723490 0 -1
0.0319481050 -0.0826468250 1 -1
0.0337374170 -0.0851173230 1 -1
0.0346454530 -0.0876266390 1 -1
0.0345945350 -0.0899099240 1 -1
0.0335918560 -0.0917218890 1 -1
0.0317262860 -0.0928644150 1 -1
0.0291605830 -0.0932101830 0 -1
0.0261185130 -0.0927175140 0 -1
0.0228666770 -0.0914341950 0 -1
0.0196915130 -0.0894904960 0 -1
0.0168725460 -0.0870829140 0 -1
0.0146537780 -0.0844516060 0 -1
0.0132169510 -0.0818552260 0 -1
0.0126622190 -0.0795460820 0 -1
0.0130006020 -0.0777474910 0 -1
0.0141579850 -0.0766342330 0 -1
0.0159867570 -0.0763167200 0 -1
0.0182817600 -0.0768305740 0 -1
0.0207996110 -0.0781334250 0 -1
0.0232805360 -0.0801089830 0 -1
0.0254712360 -0.0825772460 0 -1
0.0271474320 -0.0853102880 0 -1
0.0281341160 -0.0880529900 0 -1
0.0283214630 -0.0905467760 0 -1
0.0276765720 -0.0925539290 0 -1
0.0262514810 -0.0938805310 0 -1
0.0241849420 -0.0943960760 0 -1
0.0216943790 -0.0940474740 0 -1
0.0190564040 -0.0928649950 0 -1
0.0165766960 -0.0909590070 0 -1
0.0145530100 -0.0885083780 0 -1
0.0132378910 -0.0857425330 0 -1
0.0128078540 -0.0829194860 0 -1
0.0133437500 -0.0803021830 0 -1
0.0148244730 -0.0781350410 0 -1
0.0171326720 -0.0766214550 0 -1
0.0200686670 -0.0759033040 0 -1
0.0233695930 -0.0760453230 0 -1
0.0267328220 -0.0770272050 0 -1
0.0298425640 -0.0787441560 0 -1
0.0323981890 -0.0810157710 1 -1
0.0341431940 -0.0836032360 1 -1
0.0348926670 -0.0862337710 1 -1
0.0345552540 -0.0886300870 1 -1
0.0331456260 -0.0905416550 1 -1
0.0307849320 -0.0917729700 1 -1
0.0276879290 -0.0922037430 0 -1
0.0241379250 -0.0917985080 0 -1
0.0204547360 -0.0906059880 0 -1
0.0169623010 -0.0887501470 0 -1
0.0139597490 -0.0864153280 0 -1
0.0116961310 -0.0838276690 0 -1
0.0103480550 -0.0812344300 0 -1
0.0100016390 -0.0788823170 0 -1
0.0106428520 -0.0769956380 0 -1
0.0121600700 -0.0757553240 0 -1
0.0143593730 -0.0752804270 0 -1
0.0169892140 -0.0756142740 0 -1
0.0197689880 -0.0767175810 0 -1
0.0224165280 -0.0784705160 0 -1
0.0246720650 -0.0806845810 0 -1
0.0263187820 -0.0831231970 0 -1
0.0271999430 -0.0855278220 0 -1
0.0272309510 -0.0876453920 0 -1
0.0264055790 -0.0892534900 0 -1
0.0247968710 -0.0901811350 0 -1
0.0225518460 -0.0903242600 0 -1
0.0198784960 -0.0896552030 0 -1
0.0170253940 -0.0882254070 0 -1
0.0142564310 -0.0861607740 0 -1
0.0118244650 -0.0836496180 0 -1
0.0099477630 -0.0809240630 0 -1
0.0087921100 -0.0782369840 0 -1
0.0084594750 -0.0758375360 0 -1
0.0089811600 -0.0739479200 0 -1
0.0103124460 -0.0727427220 0 -1
0.0123292650 -0.0723315720 0 -1
0.0148313290 -0.0727464110 0 -1
0.0175558450 -0.0739354180 0 -1
0.0202032120 -0.0757660800 0 -1
0.0224722450 -0.0780389030 0 -1
0.0240980010 -0.0805103690 0 -1
0.0248845720 -0.0829207160 0 -1
0.0247284190 -0.0850211310 0 -1
0.0236300530 -0.0865963020 0 -1
0.0216922560 -0.0874809520 0 -1
0.0191052780 -0.0875713750 0 -1
0.0161226660 -0.0868339470 0 -1
0.0130322670 -0.0853108040 0 -1
0.0101265230 -0.0831199170 0 -1
0.0076751350 -0.0804467190 0 -1
0.0059015200 -0.0775273660 0 -1
0.0049637370 -0.0746259790 0 -1
0.0049412430 -0.0720085170 0 -1
0.0058288520 -0.0699159370 0 -1
0.0075382690 -0.0685394160 0 -1
0.0099070010 -0.0680003070 0 -1
0.0127142220 -0.0683369790 0 -1
0.0157016560 -0.0695005230 0 -1
0.0185963400 -0.0713608530 0 -1
0.0211332690 -0.0737227170 0 -1
0.0230775420 -0.0763484980 0 -1
0.0242455100 -0.0789830770 0 -1
0.0245233290 -0.0813768200 0 -1
0.0238803890 -0.0833053790 0 -1
0.0223747110 -0.0845872060 0 -1
0.0201485270 -0.0850992050 0 -1
0.0174145310 -0.0847892570 0 -1
0.0144344230 -0.0836837460 0 -1
0.0114916930 -0.0818885300 0 -1
0.0088620670 -0.0795818250 0 -1
0.0067862060 -0.0769979080 0 -1
0.0054484200 -0.0744025920 0 -1
0.0049628850 -0.0720640510 0 -1
0.0053658920 -0.0702238400 0 -1
0.0066115700 -0.0690720790 0 -1
0.0085713800 -0.0687291530 0 -1
0.0110409840 -0.0692350110 0 -1
0.0137576650 -0.0705459240 0 -1
0.0164278480 -0.0725380350 0 -1
0.0187601270 -0.0750178810 0 -1
0.0204974000 -0.0777402880 0 -1
0.0214431670 -0.0804325030 0 -1
0.0214800070 -0.0828217210 0 -1
0.0205804400 -0.0846625670 0 -1
0.0188104250 -0.0857617640 0 -1
0.0163247010 -0.0859978180 0 -1
0.0133530860 -0.0853332280 0 -1
0.0101775270 -0.0838173580 0 -1
0.0071013770 -0.0815802750 0 -1
0.0044154650 -0.0788195490 0 -1
0.0023668400 -0.0757817860 0 -1
0.0011341640 -0.0727400670 0 -1
0.0008116800 -0.0699688120 0 -1
0.0014027360 -0.0677182980 0 -1
0.0028225470 -0.0661914120 0 -1
0.0049080020 -0.0655254580 0 -1
0.0074319170 -0.0657812640 0 -1
0.0101214630 -0.0669391160 0 -1
0.0126818520 -0.0688994310 0 -1
0.0148250820 -0.0714880650 0 -1
0.0163010260 -0.0744685080 0 -1
0.0169260400 -0.0775625040 0 -1
0.0166035540 -0.0804779770 0 -1
0.0153332980 -0.0829403100 0 -1
0.0132092200 -0.0847215450 0 -1
0.0104084700 -0.0856632310 0 -1
0.0071746660 -0.0856912930 0 -1
0.0037977220 -0.0848224240 0 -1
0.0005898070 -0.0831616440 0 -1
-0.0021440480 -0.0808913700 0 -1
-0.0041387810 -0.0782528340 0 -1
-0.0051993150 -0.0755210610 0 -1
-0.0052211870 -0.0729760580 0 -1
-0.0041991960 -0.0708739850 0 -1
-0.0022252230 -0.0694217360 0 -1
0.0005226250 -0.0687570180 0 -1
0.0037977170 -0.0689348850 0 -1
0.0073074290 -0.0699214480 0 -1
0.0107387990 -0.0715958500 0 -1
0.0137863920 -0.0737614290 0 -1
0.0161810280 -0.0761658950 0 -1
0.0177165160 -0.0785290140 0 -1
0.0182712050 -0.0805749780 0 -1
0.0178220550 -0.0820648510 0 -1
0.0164492170 -0.0828234580 0 -1
0.0143288400 -0.0827562300 0 -1
0.0117129990 -0.0818550110 0 -1
0.0088994280 -0.0801949970 0 -1
0.0061973930 -0.0779249980 0 -1
0.0038951690 -0.0752516570 0 -1
0.0022310000 -0.0724187930 0 -1
0.0013692100 -0.0696846750 0 -1
0.0013852990 -0.0672996710 0 -1
0.0022628420 -0.0654848200 0 -1
0.0039006640 -0.0644115760 0 -1
0.0061264470 -0.0641849510 0 -1
0.0087143660 -0.0648330680 0 -1
0.0114063840 -0.0663043510 0 -1
0.0139362940 -0.0684717190 0 -1
0.0160540540 -0.0711427310 0 -1
0.0175480620 -0.0740750980 0 -1
0.0182637910 -0.0769973500 0 -1
0.0181176070 -0.0796339320 0 -1
0.0171049830 -0.0817325820 0 -1
0.0153029100 -0.0830905850 0 -1
0.0128661530 -0.0835759050 0 -1
0.0100154930 -0.0831402030 0 -1
0.0070161500 -0.0818225710 0 -1
0.0041487680 -0.0797442410 0 -1
0.0016790940 -0.0770958620 0 -1
-0.0001686950 -0.0741198070 0 -1
-0.0012328950 -0.0710893900 0 -1
-0.0014281800 -0.0682856810 0 -1
-0.0007520500 -0.0659722360 0 -1
0.0007157000 -0.0643686620 0 -1
0.0028205160 -0.0636257740 0 -1
0.0053478670 -0.0638066000 0 -1
0.0080443910 -0.0648766480 0 -1
0.0106430380 -0.0667051160 0 -1
0.0128887430 -0.0690776380 0 -1
0.0145614020 -0.0717197800 0 -1
0.0154948070 -0.0743285870 0 -1
0.0155913210 -0.0766077860 0 -1
0.0148312040 -0.0783011390 0 -1
0.0132744840 -0.0792188650 0 -1
0.0110545520 -0.0792545000 0 -1
0.0083652710 -0.0783915250 0 -1
0.0054439570 -0.0766998690 0 -1
0.0025511670 -0.0743244190 0 -1
-0.0000516808 -0.0714698680 0 -1
-0.0021242630 -0.0683842400 0 -1
-0.0034669460 -0.0653399780 0 -1
-0.0039383990 -0.0626111320 0 -1
-0.0034717250 -0.0604473300 0 -1
-0.0020868320 -0.0590472120 0 -1
0.0001054750 -0.0585354170 0 -1
0.0029109360 -0.0589473360 0 -1
0.0060697060 -0.0602242280 0 -1
0.0092811080 -0.0622193950 0 -1
0.0122328300 -0.0647142490 0 -1
0.0146329370 -0.0674413570 0 -1
0.0162415980 -0.0701111920 0 -1
0.0168983080 -0.0724405390 0 -1
0.0165409240 -0.0741810070 0 -1
0.0152139510 -0.0751448670 0 -1
0.0130646240 -0.0752243890 0 -1
0.0103261780 -0.0744022030 0 -1
0.0072893620 -0.0727521070 0 -1
0.0042666570 -0.0704309200 0 -1
0.0015565950 -0.0676625230 0 -1
-0.0005855410 -0.0647152790 0 -1
-0.0019690140 -0.0618745930 0 -1
-0.0024827940 -0.0594139330 0 -1
-0.0021049780 -0.0575682080 0 -1
-0.0009038650 -0.0565121630 0 -1
0.0009705720 -0.0563456260 0 -1
0.0033021470 -0.0570866370 0 -1
0.0058279030 -0.0586720670 0 -1
0.0082608760 -0.0609642350 0 -1
0.0103160730 -0.0637624220 0 -1
0.0117387230 -0.0668193330 0 -1
0.0123325910 -0.0698627880 0 -1
0.0119841780 -0.0726214810 0 -1
0.0106777840 -0.0748515970 0 -1
0.0084987260 -0.0763600430 0 -1
0.0056253580 -0.0770210110 0 -1
0.0023114850 -0.0767853740 0 -1
-0.0011396650 -0.0756843120 0 -1
-0.0044077500 -0.0738276620 0 -1
-0.0071901040 -0.0713959660 0 -1
-0.0092342880 -0.0686254060 0 -1
-0.0103640470 -0.0657862100 0 -1
-0.0104959770 -0.0631563820 0 -1
-0.0096453910 -0.0609932210 0 -1
-0.0079215870 -0.0595057960 0 -1
-0.0055148790 -0.0588327680 0 -1
-0.0026774810 -0.0590293240 0 -1
0.0003007510 -0.0600637390 0 -1
0.0031196990 -0.0618217870 0 -1
0.0054973130 -0.0641178240 0 -1
0.0071974310 -0.0667123630 0 -1
0.0080544340 -0.0693351380 0 -1
0.0079903290 -0.0717111100 0 -1
0.0070211180 -0.0735866780 0 -1
0.0052529050 -0.0747544770 0 -1
0.0028699510 -0.0750755190 0 -1
0.0001155640 -0.0744960650 0 -1
-0.0027334840 -0.0730553040 0 -1
-0.0053950860 -0.0708812400 0 -1
-0.0076074650 -0.0681756530 0 -1
-0.0091509590 -0.0651919050 0 -1
-0.0098670330 -0.0622096390 0 -1
-0.0096738560 -0.0595091160 0 -1
-0.0085761700 -0.0573463680 0 -1
-0.0066680470 -0.0559296000 0 -1
-0.0041277310 -0.0553980320 0 -1
-0.0012031950 -0.0558056710 0 -1
0.0018117720 -0.0571132320 0 -1
0.0046084780 -0.0591910320 0 -1
0.0068968830 -0.0618335530 0 -1
0.0084371490 -0.0647827590 0 -1
0.0090649860 -0.0677550900 0 -1
0.0087074720 -0.0704680380 0 -1
0.0073880360 -0.0726647910 0 -1
0.0052212780 -0.0741370510 0 -1
0.0023992620 -0.0747455200 0 -1
-0.0008278330 -0.0744355460 0 -1
-0.0041732030 -0.0732443420 0 -1
-0.0073360340 -0.0712973290 0 -1
-0.0100264210 -0.0687935310 0 -1
-0.0119916670 -0.0659820800 0 -1
-0.0130399820 -0.0631333570 0 -1
-0.0130582120 -0.0605093940 0 -1
-0.0120229650 -0.0583379030 0 -1
-0.0100055980 -0.0567925100 0 -1
-0.0071703560 -0.0559802910 0 -1
-0.0037637350 -0.0559365370 0 -1
-0.0000938785 -0.0566253400 0 -1
0.0034991020 -0.0579447910 0 -1
0.0066789890 -0.0597365160 0 -1
0.0091509320 -0.0617989380 0 -1
0.0106949320 -0.0639034960 0 -1
0.0111898410 -0.0658136030 0 -1
0.0106244290 -0.0673062160 0 -1
0.0090951330 -0.0681948140 0 -1
0.0067921680 -0.0683511450 0 -1
0.0039763950 -0.0677221960 0 -1
0.0009495420 -0.0663391370 0 -1
-0.0019789060 -0.0643162680 0 -1
-0.0045235020 -0.0618401800 0 -1
-0.0064492680 -0.0591513800 0 -1
-0.0075909190 -0.0565209210 0 -1
-0.0078647090 -0.0542236690 0 -1
-0.0072736170 -0.0525098270 0 -1
-0.0059058410 -0.0515774120 0 -1
-0.0039254620 -0.0515492970 0 -1
-0.0015557390 -0.0524582010 0 -1
0.0009425140 -0.0542417660 0 -1
0.0032955850 -0.0567486530 0 -1
0.0052430310 -0.0597555100 0 -1
0.0065628820 -0.0629922090 0 -1
0.0070936150 -0.0661701340 0 -1
0.0067510840 -0.0690086910 0 -1
0.0055379080 -0.0712582120 0 -1
0.0035434910 -0.0727200900 0 -1
0.0009352350 -0.0732651670 0 -1
-0.0020576360 -0.0728487470 0 -1
-0.0051664420 -0.0715180230 0 -1
-0.0081096180 -0.0694086340 0 -1
-0.0106206090 -0.0667306330 0 -1
-0.0124736920 -0.0637465510 0 -1
-0.0135049490 -0.0607441610 0 -1
-0.0136268150 -0.0580066210 0 -1
-0.0128353590 -0.0557835880 0 -1
-0.0112101120 -0.0542674370 0 -1
-0.0089075530 -0.0535771780 0 -1
-0.0061495370 -0.0537503550 0 -1
-0.0032062530 -0.0547419750 0 -1
-0.0003730360 -0.0564296080 0 -1
0.0020576780 -0.0586242030 0 -1
0.0038266780 -0.0610864950 0 -1
0.0047367920 -0.0635486640 0 -1
0.0046749590 -0.0657403380 0 -1
0.0036242380 -0.0674168080 0 -1
0.0016658200 -0.0683856020 0 -1
-0.0010284480 -0.0685267860 0 -1
-0.0042132430 -0.0678038970 0 -1
-0.0075952010 -0.0662652240 0 -1
-0.0108629570 -0.0640368410 0 -1
-0.0137178960 -0.0613088380 0 -1
-0.0159024080 -0.0583161350 0 -1
-0.0172233000 -0.0553159380 0 -1
-0.0175692350 -0.0525644410 0 -1
-0.0169212600 -0.0502950360 0 -1
-0.0153553150 -0.0486991980 0 -1
-0.0130361090 -0.0479104520 0 -1
-0.0102019720 -0.0479916280 0 -1
-0.0071406420 -0.0489267590 0 -1
-0.0041586430 -0.0506202120 0 -1
-0.0015497030 -0.0529046720 0 -1
0.0004329410 -0.0555569170 0 -1
0.0015986540 -0.0583186240 0 -1
0.0018360390 -0.0609200910 0 -1
0.0011237060 -0.0631059720 0 -1
-0.0004666680 -0.0646615330 0 -1
-0.0027770410 -0.0654360060 0 -1
-0.0055796080 -0.0653592390 0 -1
-0.0086006460 -0.0644495070 0 -1
-0.0115479150 -0.0628119510 0 -1
-0.0141390030 -0.0606276870 0 -1
-0.0161292010 -0.0581339540 0 -1
-0.0173366610 -0.0555973510 0 -1
-0.0176619290 -0.0532843700 0 -1
-0.0170991230 -0.0514335960 0 -1
-0.0157359590 -0.0502323920 0 -1
-0.0137410980 -0.0498000590 0 -1
-0.0113416650 -0.0501788200 0 -1
-0.0087969560 -0.0513320530 0 -1
-0.0063730150 -0.0531479260 0 -1
-0.0043197580 -0.0554478950 0 -1
-0.0028502580 -0.0580011120 0 -1
-0.0021214940 -0.0605450220 0 -1
-0.0022175700 -0.0628106610 0 -1
-0.0031385360 -0.0645500950 0 -1
